Time (min), Depth (µm), Load (N), Position (µm), Acoustic (aJ)
8.83166666666667E-06, 238.409353921965, -0.000334487418573913, 0,309.493103027344
0.000666156666666667, 238.409366785563, -0.000377382264033453, 0.00375000000000006,309.493103027344
0.00133389333333333, 238.408328051225, -0.000474223399804842, 0.0187499999999999,310.876556396484
0.00199987666666667, 238.406973439079, -0.000315115891590199, 0.0349999999999999,316.257415771484
0.00266608166666667, 238.405527152159, -0.000152123578533496, 0.0499999999999999,335.830535888672
0.00333249166666667, 238.405073841521, -0.000272590027618877, 0.06375,328.935913085938
0.00399936, 238.405941553089, -0.000463411942814544, 0.0774999999999999,328.935913085938
0.00466609166666667, 238.408684980432, 4.06137404651971E-05, 0.09125,329.231140136719
0.005332525, 238.413466025283, 2.48415566371765E-06, 0.105,331.070861816406
0.005999185, 238.419635232448, 7.3778574599221E-05, 0.1175,333.819000244141
0.00666592333333333, 238.426798188907, 7.88798183661189E-05, 0.13,332.977416992188
0.00733293, 238.434182711725, -2.8505787766771E-05, 0.14375,332.977416992188
0.00799925666666667, 238.442274418335, -0.000242150556593163, 0.15625,327.227325439453
0.00866640833333333, 238.450942857556, -0.000420398603369656, 0.17,329.080230712891
0.009332475, 238.459833644074, -0.000796722201009962, 0.18375,324.09814453125
0.00999926333333333, 238.468763657949, -0.000846534698986302, 0.1975,329.532928466797
0.0106663733333333, 238.478144282117, -0.000455567336867752, 0.21,329.532928466797
0.011332495, 238.487090523915, -0.000247871269223623, 0.22375,327.627075195313
0.0119991666666667, 238.49659902875, 0.000135563471245267, 0.23625,327.920532226563
0.01266619, 238.506104399741, 0.000305030959077301, 0.25,333.163818359375
0.0133330016666667, 238.51530257167, 0.000673106471042577, 0.26375,396.630981445313
0.013999185, 238.524703418343, 0.000617526762758022, 0.27625,396.630981445313
0.0146661116666667, 238.534823512465, 0.000446157370421336, 0.28875,334.994934082031
0.0153332483333333, 238.544785479952, 0.000519118205687671, 0.3025,334.046539306641
0.016000075, 238.554826180496, 0.000428609751830795, 0.315,329.436309814453
0.0166658333333333, 238.564805254582, 0.000453075022938137, 0.32625,329.997528076172
0.0173329266666667, 238.575405640783, 0.000292934066639617, 0.34125,329.997528076172
0.0179992433333333, 238.585899833798, 0.000218330813896666, 0.355,329.824645996094
0.0186670366666667, 238.597107553645, 3.04922488279231E-05, 0.36875,317.814666748047
0.01933317, 238.608578403016, 5.83713485147026E-05, 0.3825,323.046142578125
0.019999675, 238.621061601998, -0.000112050091386583, 0.395,322.866973876953
0.0206658433333333, 238.632805050601, 6.00512641651628E-05, 0.4075,322.866973876953
0.0213344683333333, 238.644677372752, 0.000152731608940529, 0.42125,324.306793212891
0.021999415, 238.656078611038, 0.000349784211212543, 0.435,319.481689453125
0.0226661816666667, 238.668160619733, 0.000697100765866041, 0.44875,322.257507324219
0.0233341233333333, 238.679785244027, 0.000731750525414339, 0.46125,314.588348388672
0.0239993033333333, 238.692042184877, 0.000922314453548884, 0.475,314.588348388672
0.02466611, 238.703839407287, 0.000828467167375242, 0.4875,315.277191162109
0.0253325, 238.716147206939, 0.000822765953762024, 0.50125,314.545104980469
0.0259992216666667, 238.727484097698, 0.000759634124789312, 0.515,321.742279052734
0.0266662133333333, 238.739337057712, 0.000904561345251334, 0.5275,314.968383789063
0.0273330683333333, 238.751084765079, 0.000862507957573309, 0.54125,314.968383789063
0.02799964, 238.763342154064, 0.00102136797824016, 0.555,315.452026367188
0.0286672516666667, 238.775043572128, 0.00079951262180631, 0.56875,319.402374267578
0.0293338183333333, 238.787609785118, 0.000528794219713415, 0.5825,376.586334228516
0.03000003, 238.799405494904, 0.000556995803168149, 0.595,323.115661621094
0.0306658233333333, 238.811863068782, 0.000544469932329879, 0.60875,323.115661621094
0.0313324983333333, 238.8238499303, 0.000315942910981362, 0.62125,316.036376953125
0.0319991716666667, 238.836364840575, 0.000385806401802363, 0.635,313.453826904297
0.03266597, 238.848534728408, 0.000244186515244639, 0.64875,314.446258544922
0.033332535, 238.860757804001, -6.3785515649454E-05, 0.6625,326.755065917969
0.033999235, 238.872864153916, -0.000223711982737054, 0.675,326.755065917969
0.0346658366666667, 238.88483329227, -5.83797872286948E-05, 0.69,316.380889892578
0.0353326116666667, 238.896856981166, -0.000166614350701353, 0.7025,315.30615234375
0.03599958, 238.908664271223, -2.1146133643266E-06, 0.715,311.595977783203
0.0366661016666667, 238.920786761199, 0.000173640558650124, 0.72875,315.834625244141
0.0373325083333333, 238.933056498951, 0.000260939173710167, 0.7425,315.834625244141
0.0379992266666667, 238.945744811624, 0.000259776732127609, 0.75625,313.494110107422
0.0386659266666667, 238.957631589415, 0.000712109011931768, 0.77,313.53955078125
0.0393325016666667, 238.970094298732, 0.0011652902491182, 0.78375,308.882751464844
0.0399993433333333, 238.982534103816, 0.00109733766228451, 0.79625,314.740264892578
0.0406664466666667, 238.994423964014, 0.00133526621138671, 0.80875,314.740264892578
0.0413324966666667, 239.006579970338, 0.00149147136537095, 0.82375,318.273590087891
0.0419993616666667, 239.019237459605, 0.00122288135638885, 0.83625,318.565124511719
0.0426663783333333, 239.032058491972, 0.000944015363534685, 0.85,310.949066162109
0.0433325216666667, 239.044435753303, 0.000986400234590846, 0.86375,314.9541015625
0.0439993, 239.057413149584, 0.000611452067840868, 0.875,314.9541015625
0.0446658566666667, 239.06988726854, 0.000304643978496244, 0.88875,318.543762207031
0.04533282, 239.08261426645, 0.000310766670973048, 0.90375,315.460083007813
0.045999185, 239.09471885998, 0.000328075801562217, 0.91625,386.689605712891
0.0466658433333333, 239.1072912045, 0.000149842754029756, 0.92875,314.042999267578
0.0473330466666667, 239.119166553081, 0.000296478388663392, 0.9425,314.042999267578
0.047999155, 239.131597698228, 0.000369556218054435, 0.955,318.486358642578
0.0486660933333333, 239.143631381576, 0.000315075954527501, 0.96875,328.977081298828
0.0493327916666667, 239.156038262471, 0.000369887701390063, 0.98125,317.380249023438
0.0499992716666667, 239.168106393119, 0.000443355511168461, 0.99375,317.972412109375
0.0506658016666667, 239.180306012444, 0.000525353392515973, 1.00875,317.972412109375
0.0513324866666667, 239.19302791017, 0.00046503692213702, 1.0225,322.520172119141
0.051999795, 239.20555635715, 0.000397168331091164, 1.035,316.244079589844
0.0526663133333333, 239.218397104713, 0.000211866138592158, 1.05,320.886047363281
0.0533343216666667, 239.231020044585, 0.000286533888105703, 1.06125,324.683380126953
0.0540000183333333, 239.243263147415, 0.000347646818427802, 1.075,324.683380126953
0.0546667716666667, 239.255564715431, 0.000483186010413267, 1.08875,320.865417480469
0.0553328633333333, 239.267640706139, 0.000729295148634854, 1.10125,319.586730957031
0.056000825, 239.279534699882, 0.000887127720872932, 1.115,325.335510253906
0.0566658366666667, 239.292277939222, 0.00114315436092793, 1.1275,312.238525390625
0.05733318, 239.305067051813, 0.00101620223761765, 1.14125,312.238525390625
0.0579995483333333, 239.317718182372, 0.000973224896337187, 1.15375,317.173309326172
0.0586658366666667, 239.330365912936, 0.000805468822504319, 1.1675,320.469512939453
0.0593325166666667, 239.342989162442, 0.000461143117642269, 1.18,318.087554931641
0.0599991366666667, 239.355295012076, 0.000304855467837104, 1.19375,315.559051513672
0.06066645, 239.367855025326, 0.000229488753424116, 1.20625,315.559051513672
0.0613329883333333, 239.380061569406, 0.000456658342932635, 1.22,312.010314941406
0.0619994166666667, 239.393224736723, 0.000567010800087775, 1.23125,320.161895751953
0.062665855, 239.406255424462, 0.000382134586204311, 1.24625,384.504547119141
0.06333306, 239.419555368197, 2.2719639252487E-05, 1.25875,314.457580566406
0.0639997633333333, 239.43249375216, -0.000203939975852654, 1.2725,314.457580566406
0.0646674416666667, 239.445618178187, -0.000485796818455756, 1.28625,319.702911376953
0.0653325466666667, 239.4581853749, -0.000692330444517328, 1.3,316.198333740234
0.0659992866666667, 239.470019935706, -0.000311442576088998, 1.31375,314.654174804688
0.066666175, 239.481896628542, 9.40180822302637E-06, 1.32625,316.25146484375
0.0673326316666667, 239.494062354851, 0.000367940799174569, 1.34,316.25146484375
0.06799931, 239.506114491824, 0.000409727200266306, 1.35375,318.485046386719
0.068665925, 239.518003309587, 0.000694525395134295, 1.3675,323.283233642578
0.06933252, 239.530188955553, 0.000420721648012546, 1.38,318.341156005859
0.0699992866666667, 239.542688520283, 0.000197258372384608, 1.39375,316.689147949219
0.0706658533333333, 239.55525362888, 6.78403728877807E-05, 1.40625,316.689147949219
0.07133316, 239.567225283454, -3.05876831147961E-05, 1.42125,317.889831542969
0.0719995, 239.579329487325, -7.17561152673742E-05, 1.43375,322.220245361328
0.0726658633333333, 239.591749568935, -0.000205264409292017, 1.4475,320.052856445313
0.0733327283333333, 239.603635204407, 4.59984700293272E-05, 1.46,314.724151611328
0.07399946, 239.615485278173, -3.19991122333109E-05, 1.47375,314.724151611328
0.0746662033333333, 239.627839192651, -0.000153842492175932, 1.4875,318.595184326172
0.0753326083333333, 239.640203603596, -0.00031099559853181, 1.50125,322.324310302734
0.075999195, 239.652411080252, -0.000171685595937678, 1.51375,325.568450927734
0.0766668016666667, 239.664702911335, -0.000355480364113852, 1.52625,320.060089111328
0.0773327566666667, 239.676993851456, -0.000431861027572221, 1.54,320.060089111328
0.0780000133333333, 239.688573273118, -0.000292560024524508, 1.55375,318.849487304688
0.0786658366666667, 239.700113201811, -0.000197860781183545, 1.5675,322.001922607422
0.0793339966666667, 239.711624156471, 3.81328650558726E-05, 1.58125,384.523803710938
0.0799994883333333, 239.722391202663, 4.73404265117815E-06, 1.59375,317.478393554688
0.0806670433333333, 239.733438305222, 0.00010450753111978, 1.6075,317.478393554688
0.0813326566666667, 239.744748094147, -0.000171916584359542, 1.62,318.466369628906
0.081999525, 239.755779319508, -8.99682005598456E-05, 1.6325,321.297973632813
0.08266584, 239.766742394029, -0.000332798503377033, 1.6475,314.939208984375
0.0833327983333333, 239.777986380756, -0.000560784051909703, 1.66,322.626953125
0.08399916, 239.788953541706, -0.000386968282509985, 1.675,322.626953125
0.084665995, 239.799629184013, -0.000435790830188888, 1.6875,318.400207519531
0.0853326216666667, 239.810498983598, -0.000551886498840537, 1.70125,315.939636230469
0.0859996416666667, 239.820979156059, -0.000369705649598571, 1.715,322.426025390625
0.0866658433333333, 239.831438942953, -0.000169840688624113, 1.7275,324.86181640625
0.0873325133333333, 239.84234269861, -0.000425880827998744, 1.74,324.86181640625
0.08799919, 239.853058229402, -0.000203419502020961, 1.75375,326.162292480469
0.088665915, 239.864139697557, -0.000155538907016083, 1.7675,324.939514160156
0.0893327816666667, 239.875764942256, -0.000445600337550284, 1.78,330.014495849609
0.089999175, 239.887347120782, -0.00046630379765914, 1.79375,325.618560791016
0.09066604, 239.898230028916, -0.000179294713816921, 1.80625,325.618560791016
0.0913326216666667, 239.909946435545, -0.00018594387982303, 1.82,330.693267822266
0.0919991666666667, 239.921097080263, -0.000351709553590202, 1.83375,322.738800048828
0.092666115, 239.932263439292, -1.90682618061613E-05, 1.84625,326.240600585938
0.0933325483333333, 239.94309245653, 0.000122764614101841, 1.86,332.067993164063
0.0939996766666667, 239.954371803436, 0.000190370718334619, 1.8725,332.067993164063
0.0946673283333333, 239.965582324868, 0.000285054962452804, 1.88625,320.169708251953
0.0953325466666667, 239.976736659793, 0.000538819716125118, 1.9,322.338714599609
0.0960006416666667, 239.98771230896, 0.000642365515084283, 1.9125,390.60205078125
0.09666584, 239.998910666886, 0.000598020242535506, 1.925,324.26123046875
0.0973334266666667, 240.00974771862, 0.000592772006134581, 1.93875,324.26123046875
0.097999455, 240.020946185372, 0.000528198749576543, 1.9525,314.265106201172
0.0986659466666667, 240.032079211426, 0.000181525662619567, 1.965,329.311401367188
0.0993325816666667, 240.043240585526, 8.53864915964268E-05, 1.97875,322.183258056641
0.0999994866666667, 240.054193618904, 6.77053796702334E-05, 1.99125,328.1171875
0.100667953333333, 240.065483898251, -0.000399119172204932, 2.005,328.1171875
0.101332563333333, 240.076609582548, -0.000333812452486177, 2.01875,324.067321777344
0.101999315, 240.087430237729, 0.000120577723918064, 2.03125,322.600341796875
0.102666108333333, 240.09871807494, -8.05351743724456E-05, 2.045,329.586608886719
0.103333901666667, 240.110124546493, -0.000301211590034048, 2.0575,326.169555664063
0.103999175, 240.121312021706, -8.15630988084583E-06, 2.07,326.169555664063
0.104667, 240.132070981777, 3.96207903189535E-05, 2.08375,330.907623291016
0.105334001666667, 240.143195128995, -0.000433717934387282, 2.0975,327.267211914063
0.106000608333333, 240.154225042344, -0.000451784526906367, 2.11,328.029052734375
0.106667356666667, 240.165282724188, -0.000139551210059979, 2.12375,323.387573242188
0.107334106666667, 240.176767097348, -0.000335718856785291, 2.13625,323.387573242188
0.108000578333333, 240.188221047866, -0.000347170781559542, 2.15,323.992706298828
0.108665936666667, 240.199312585253, 0.000301288647011042, 2.16375,326.123687744141
0.109333156666667, 240.21054259687, 0.000356790359226627, 2.17625,321.253326416016
0.1099998, 240.221487391359, 0.000126887907009036, 2.19375,318.565155029297
0.110666253333333, 240.231388393445, 0.000128389331613001, 2.20375,318.565155029297
0.111333955, 240.241552200933, -9.91272161210988E-06, 2.2175,354.248504638672
0.111999663333333, 240.25183459324, -0.000559522615274022, 2.23125,415.899353027344
0.112666236666667, 240.26205635202, -0.000598034680862095, 2.245,340.249725341797
0.113334288333333, 240.272384265745, -0.000513740414891876, 2.25875,336.199188232422
0.114000866666667, 240.28389761236, -0.000522306484646668, 2.27125,336.199188232422
0.114665843333333, 240.294981668606, -0.000527587719363211, 2.285,351.120819091797
0.115333185, 240.306416771841, -0.000432565992169277, 2.2975,342.765716552734
0.115999333333333, 240.317443083195, -0.00049543983410212, 2.3125,338.892303466797
0.116667331666667, 240.328932620578, -0.000396447806353886, 2.325,340.067718505859
0.117333881666667, 240.339883244428, -0.000294923905809124, 2.33875,340.067718505859
0.117999148333333, 240.351742499256, -0.000453863422469348, 2.35125,345.458557128906
0.11866634, 240.363570487513, -0.000410128619216459, 2.365,338.514678955078
0.119333525, 240.375530057186, -0.000395664845709115, 2.38,344.147644042969
0.119999176666667, 240.387533248864, -0.000434583390852978, 2.39125,341.271850585938
0.120665871666667, 240.399229180317, -0.000167371812588761, 2.405,341.271850585938
0.121333231666667, 240.410223389415, -3.61569033805268E-05, 2.41875,344.47607421875
0.121999686666667, 240.421390586018, 0.000178137332840001, 2.4325,349.728485107422
0.122666463333333, 240.432042551869, -2.4985939690523E-06, 2.44375,349.509552001953
0.123334113333333, 240.443050983862, -1.71438583716994E-05, 2.4575,346.78125
0.123999513333333, 240.453787538109, -0.00028043463356567, 2.47125,346.78125
0.12466583, 240.464974538157, -0.000113680509467973, 2.485,343.464019775391
0.125332606666667, 240.475937128602, -0.000293792962617781, 2.49875,344.597625732422
0.125999336666667, 240.486979520573, -0.000134395969014564, 2.51125,343.483276367188
0.126666478333333, 240.497675250714, -1.20696133290766E-05, 2.525,347.037689208984
0.127333071666667, 240.509354423619, -0.00018338200849593, 2.53875,347.037689208984
0.127999488333333, 240.520550227282, -0.000530161590106791, 2.55125,346.776184082031
0.128665846666667, 240.531991258115, -0.000630787035742715, 2.565,422.010559082031
0.12933252, 240.543352212159, -0.000735672267470292, 2.57875,350.167694091797
0.129999315, 240.554802561373, -0.000769135586645581, 2.59125,350.834381103516
0.13066697, 240.565447564398, -0.000516600771196478, 2.605,350.834381103516
0.131333075, 240.576836349537, -0.000484388389228556, 2.61875,351.699798583984
0.131999521666667, 240.588470740455, -0.000742928903008499, 2.63125,355.723602294922
0.132665825, 240.600259222665, -0.000857529146775051, 2.645,354.434997558594
0.133332541666667, 240.611500994793, -0.000685975263758019, 2.6575,348.310974121094
0.133999233333333, 240.623650290418, -0.000716395235787745, 2.67125,348.310974121094
0.134665893333333, 240.63506807842, -0.000417514248232093, 2.68375,347.981964111328
0.135332605, 240.646480675738, -2.97537250403142E-05, 2.6975,343.040924072266
0.136000946666667, 240.658052720663, 0.000284239003449907, 2.71125,344.879455566406
0.13666734, 240.669866228909, -5.01916984447775E-05, 2.72375,345.251068115234
0.137334205, 240.681596261053, -0.000208106766482527, 2.7375,345.251068115234
0.137999173333333, 240.6931523459, -0.000428436699543215, 2.75,345.108245849609
0.138666211666667, 240.704396637372, -0.000339900646616689, 2.76375,343.896820068359
0.139332508333333, 240.715869022922, -0.000711389987097639, 2.77625,342.235595703125
0.1399992, 240.726923938068, -0.000717445182955042, 2.79,343.831970214844
0.140666423333333, 240.737675971667, -0.000579432615224777, 2.8025,343.831970214844
0.141333308333333, 240.747114944515, -0.00032474540789568, 2.81375,345.698669433594
0.141999533333333, 240.755855577011, -0.000212683036708285, 2.83,356.351867675781
0.142666488333333, 240.765137226341, -5.70313549138627E-05, 2.84375,365.700805664063
0.143332518333333, 240.77460952327, 0.000192631104814156, 2.855,362.704925537109
0.143999733333333, 240.784623470162, 7.19531663454071E-05, 2.86875,362.704925537109
0.144666366666667, 240.796243468353, -0.000597265219494445, 2.8825,365.668151855469
0.145332483333333, 240.808276987243, -0.000994467768420043, 2.89625,434.401153564453
0.146000715, 240.819712892644, -0.000974032794864386, 2.90875,361.400238037109
0.146667271666667, 240.831050573834, -0.00111280132466393, 2.9225,367.434661865234
0.147333985, 240.842076528759, -0.00111657063534819, 2.935,367.434661865234
0.147999751666667, 240.852747468139, -0.0005853168196577, 2.94875,365.710998535156
0.14866582, 240.863762559449, -0.00046827169871001, 2.9625,364.034118652344
0.149334006666667, 240.875295644989, -0.000470092607254376, 2.97625,362.793151855469
0.150000596666667, 240.88698934719, -0.000553644410517458, 2.98875,361.462249755859
0.150667168333333, 240.898175612958, -0.000599005132099781, 3.0025,361.462249755859
0.151334096666667, 240.909953487519, -0.000654412349077962, 3.015,364.299591064453
0.151999735, 240.921272734754, -0.000562541963692895, 3.02875,360.917266845703
0.15266656, 240.932281048928, -0.000341360073422378, 3.0425,364.305633544922
0.15333405, 240.943218102085, -0.000123266528050776, 3.055,360.550445556641
0.153999135, 240.955140607986, -0.000230386647543035, 3.06875,360.550445556641
0.15466662, 240.96661779406, -0.000392392010172362, 3.0825,364.874664306641
0.155332511666667, 240.978313841605, -0.000318601716540993, 3.095,358.246124267578
0.155999558333333, 240.989584893065, -0.000241355596531912, 3.10875,358.900207519531
0.15666584, 241.001020958132, -0.000271331590832003, 3.12125,358.944610595703
0.15733277, 241.011352429433, 5.29656200939434E-05, 3.135,358.944610595703
0.157999331666667, 241.022572223455, 0.000508681729925713, 3.1475,353.354858398438
0.158665976666667, 241.033575840627, 0.000313804018442251, 3.16125,355.699005126953
0.159332505, 241.045320147721, 0.000240726189072463, 3.175,354.508178710938
