Time (min), Depth (µm), Load (N), Position (µm), Acoustic (aJ)
8.33E-06, 227.972368376562, -0.000336900782783512, 0,230.315155029297
0.000666916666666667, 227.972734070221, -0.000295646854918694, 0.00499999999999999,272.274688720703
0.00133332666666667, 227.97262430984, -2.86317668363193E-05, 0.01625,223.988891601563
0.00199972166666667, 227.974079855801, -0.000312234521763625, 0.03,228.615921020508
0.00266684666666667, 227.974580641424, -0.000374658386269221, 0.04625,228.615921020508
0.00333366833333333, 227.97572023467, -0.000739177576836749, 0.06,247.713088989258
0.00399965833333333, 227.976055462143, -0.000610394045490024, 0.075,261.776641845703
0.0046667, 227.977451389524, -0.000864494782271176, 0.08875,268.640014648438
0.00533319333333333, 227.978553464791, -0.000772381409047766, 0.1025,273.662292480469
0.00599970166666667, 227.981388495365, -0.00065623474298766, 0.11625,273.662292480469
0.00666672833333333, 227.985046793223, -0.000462540472049656, 0.12875,269.7099609375
0.00733327, 227.990578595416, -0.000744775295687396, 0.1425,272.27099609375
0.007999715, 227.996307174488, -0.00060193147054031, 0.155,276.636596679688
0.008666665, 228.003364536741, -0.000835804223333456, 0.16875,276.587524414063
0.009333045, 228.010206109927, -0.000940411968961414, 0.1825,276.587524414063
0.00999984833333333, 228.017769407782, -0.000977464607850067, 0.19625,283.245239257813
0.0106664066666667, 228.025200838012, -0.000747482659639104, 0.20875,283.253814697266
0.0113331066666667, 228.033556154258, -0.000730765999338, 0.22375,284.560241699219
0.011999675, 228.0416672969, -0.000504373370819148, 0.23625,279.271118164063
0.012666715, 228.051141221012, -0.000639819567512865, 0.25,279.271118164063
0.0133534583333333, 228.060914447265, -0.000494503866566638, 0.26375,278.810852050781
0.013999685, 228.071532884778, -0.000757350664052227, 0.27625,280.795471191406
0.014666475, 228.082090058995, -0.000799480547896072, 0.29,279.082550048828
0.0153332666666667, 228.093686866984, -0.00112010294337516, 0.30375,289.694213867188
0.0159996666666667, 228.104963449592, -0.00100582368349467, 0.3175,289.694213867188
0.0166666983333333, 228.116347847184, -0.00131640708322117, 0.33,280.996887207031
0.0173332733333333, 228.128079738825, -0.00116213383222964, 0.34375,339.784942626953
0.01799977, 228.139769987632, -0.0013099799060905, 0.3575,283.999145507813
0.01866654, 228.151576757859, -0.00112808404250641, 0.37,284.434753417969
0.0193330466666667, 228.163678561632, -0.00125429820288277, 0.385,284.434753417969
0.0199997083333333, 228.175422055775, -0.001030936922093, 0.39625,278.567077636719
0.02066659, 228.187487333098, -0.000887014651172443, 0.41,278.57568359375
0.0213330616666667, 228.199495848835, -0.000876209193922268, 0.42375,282.791809082031
0.02199975, 228.211445234769, -0.000630409040212768, 0.4375,277.820495605469
0.02266639, 228.22385700358, -0.000375039367131411, 0.45,277.820495605469
0.0233330433333333, 228.236839642419, -0.000564647843314809, 0.46375,281.789794921875
0.0239998483333333, 228.249299480159, -0.000586761232575269, 0.4775,281.050598144531
0.0246665583333333, 228.262144964536, -0.000107752792689538, 0.49,273.226196289063
0.0253330833333333, 228.274215249621, -0.000118384258666428, 0.50375,281.40234375
0.0259997583333333, 228.286634457868, 7.88389900969739E-06, 0.51625,281.40234375
0.0266664833333333, 228.298521313177, 5.89053362888582E-05, 0.53,263.8076171875
0.027333185, 228.311024776356, 6.31441233751042E-05, 0.54375,270.546661376953
0.0279997783333333, 228.323109599587, 0.000166970408282694, 0.55625,261.609527587891
0.0286663566666667, 228.336012455071, 0.000338048815178877, 0.57,259.218292236328
0.0293331166666667, 228.348273381578, 0.000557858274386618, 0.58375,259.218292236328
0.0299996983333333, 228.360973864251, 0.000516184367603871, 0.59625,267.526916503906
0.0306666933333333, 228.372937090094, 0.000468240775774056, 0.61,268.320465087891
0.031333245, 228.385223600757, 0.000493361514015654, 0.6225,260.252502441406
0.0319997683333333, 228.396806669506, 0.000509905683031637, 0.63625,262.777404785156
0.032666425, 228.408874749049, 0.000428894752111502, 0.65,262.777404785156
0.033333185, 228.420610025588, 0.000824472882632068, 0.6625,258.581726074219
0.0339998566666667, 228.432744195287, 0.000982278456209634, 0.675,310.227508544922
0.0346665966666667, 228.444894069857, 0.00080148203742567, 0.68875,258.483123779297
0.0353332533333333, 228.457577695323, 0.000535911376756174, 0.7025,257.560211181641
0.0359998883333333, 228.46942896077, 0.000453943493896727, 0.715,257.560211181641
0.03666651, 228.481395122272, 0.000329769231048869, 0.72875,255.890548706055
0.0373333533333333, 228.493188255849, 6.80728757718651E-05, 0.74125,263.640777587891
0.0379998316666667, 228.505125149674, -3.16304609065712E-06, 0.755,259.319000244141
0.0386665716666667, 228.516540538449, 0.000241576660874452, 0.7675,261.612213134766
0.0393330533333333, 228.527517547929, 0.000756946274413918, 0.78,261.612213134766
0.03999973, 228.539212406337, 0.000687163779510693, 0.79375,265.653533935547
0.04066674, 228.550825920448, 0.000888197181829084, 0.8075,269.821929931641
0.0413330733333333, 228.562230325486, 0.0010039373683334, 0.82,271.909118652344
0.041999795, 228.573185621246, 0.00113088799176179, 0.8325,266.403594970703
0.0426664183333333, 228.582691886698, 0.000650199636225594, 0.84625,266.403594970703
0.04333316, 228.591978396942, 0.00102933259276205, 0.86,282.987762451172
0.0439999516666667, 228.601198131279, 0.00133001948955427, 0.87375,293.402740478516
0.0446665933333333, 228.610619587594, 0.00139144440423726, 0.8875,295.341827392578
0.0453331166666667, 228.620538514948, 0.00148456572685095, 0.90125,298.268859863281
0.045999695, 228.632961175868, 0.00130735112813708, 0.91375,298.268859863281
0.046666395, 228.645053571671, 0.00100873862713463, 0.92625,302.715515136719
0.047333055, 228.657137315828, 0.00070299548428635, 0.94,300.187286376953
0.0479998383333333, 228.668988777968, 0.000692469013017688, 0.95375,293.092315673828
0.0486665416666667, 228.681128564518, 0.000535722386217601, 0.9675,297.669189453125
0.0493330583333333, 228.692544657567, 0.000741086071010836, 0.98125,297.669189453125
0.049999715, 228.704459089437, 0.000786934268109235, 0.99375,294.437591552734
0.0506667316666667, 228.716066669034, 0.000959998575276651, 1.0075,351.107757568359
0.0513331966666667, 228.728100782501, 0.00108789865100108, 1.02125,292.507110595703
0.05199973, 228.739867071379, 0.00120254689234853, 1.035,293.271575927734
0.05266643, 228.752157946748, 0.000807591230582844, 1.04875,293.271575927734
0.0533330566666667, 228.764017034329, 0.000775920321345752, 1.06,295.986083984375
0.0539996966666667, 228.776429040601, 0.000694259923052735, 1.07375,294.988067626953
0.054666695, 228.788029756714, 0.000425428426199204, 1.0875,289.313323974609
0.0553338233333333, 228.799731745173, 0.000274354514469927, 1.10125,290.925903320313
0.05599972, 228.810933278233, 0.000681797049039402, 1.11375,290.925903320313
0.0566664783333333, 228.821821383529, 0.000959985075957021, 1.1275,292.540679931641
0.0573331966666667, 228.832787998477, 0.000941592999778667, 1.14125,288.779449462891
0.0579997566666667, 228.843941341461, 0.00072633431203932, 1.155,290.954498291016
0.05866644, 228.854739438528, 0.000705803343300601, 1.16875,285.436218261719
0.0593330966666667, 228.86551849077, 0.000479013234751123, 1.18125,285.436218261719
0.0599997333333333, 228.876198385298, 0.000412008600331576, 1.195,294.635650634766
0.060666375, 228.887458206634, 0.000429854703920874, 1.2075,289.830078125
0.0613333566666667, 228.898615332728, 0.000576455840293235, 1.22125,289.966552734375
0.0619997283333333, 228.909548144344, 0.000521452103085801, 1.235,293.416015625
0.0626664183333333, 228.920584081039, 0.000728668194814617, 1.24875,293.416015625
0.0633332566666667, 228.93148273306, 0.000337079863886848, 1.2625,298.038665771484
0.063999705, 228.94105096831, 0.0003430195655652, 1.275,297.741577148438
0.0646666116666667, 228.950471779014, 0.000569223203566734, 1.28875,294.463043212891
0.0653332383333333, 228.960078422894, 0.000576304347885997, 1.30125,301.589263916016
0.0659997533333333, 228.969597804929, 0.000517162318548591, 1.315,301.589263916016
0.0666665833333333, 228.979167826927, 0.000820573078545975, 1.3275,354.080627441406
0.067333105, 228.988775214164, 0.000848249688374552, 1.34125,301.044677734375
0.06799973, 228.998937139615, 0.000554397948235696, 1.355,298.264617919922
0.06866662, 229.008441261067, 0.000338555789754703, 1.3675,300.209564208984
0.0693340283333333, 229.017850003974, 0.000156203949109511, 1.38125,300.209564208984
0.0699999433333333, 229.027163558123, 9.30391217999277E-05, 1.39375,298.829620361328
0.0706664483333333, 229.036397408365, -7.98016965888944E-05, 1.4075,285.244812011719
0.0713332483333333, 229.045174323635, 0.000249598257985845, 1.42,290.840911865234
0.071999715, 229.053998453034, 0.000324721984602997, 1.43375,293.683685302734
0.0726665283333333, 229.062496194544, 0.000692491511904991, 1.44625,293.683685302734
0.073333125, 229.070813293029, 0.000686076334127044, 1.46,285.666839599609
0.0739997283333333, 229.079241219104, 0.000718941183380417, 1.47375,286.982818603516
0.0746663883333333, 229.087136140417, 0.00051602237576832, 1.48625,293.463531494141
0.0753331, 229.094687524537, 0.000583637479526263, 1.5,294.17138671875
0.0759997566666667, 229.102183607411, 0.000242712103839005, 1.5125,294.17138671875
0.0766664383333333, 229.109508766848, 0.000223756055978755, 1.52625,284.683288574219
0.0773330883333333, 229.115905593219, 0.000340180208095972, 1.53875,291.16455078125
0.077999845, 229.122790847468, 0.000288084824837808, 1.5525,294.743835449219
0.07866637, 229.130137471425, 0.000119215806970198, 1.56625,297.846069335938
0.07933322, 229.137177652809, 0.000231143184982554, 1.58,297.846069335938
0.07999974, 229.143971753964, 0.000386035904837641, 1.5925,294.856170654297
0.0806664133333333, 229.15125866377, 0.000250739700648011, 1.605,300.957000732422
0.0813330666666667, 229.158605457292, 0.000248195828392496, 1.61875,299.333862304688
0.0819997716666667, 229.165907641607, 0.000420520672701581, 1.6325,298.306335449219
0.08266644, 229.173479083665, 0.000444406972904248, 1.645,298.306335449219
0.08333308, 229.181655392085, 0.000155026508197905, 1.65875,348.7001953125
0.083999725, 229.18986325193, 0.000187330385596934, 1.67,301.322570800781
0.0846663716666667, 229.198815920689, -0.000166698331930119, 1.68375,298.674072265625
0.0853331733333333, 229.207981468857, -0.000328843187592711, 1.69875,290.368865966797
0.08599998, 229.216920045007, -0.000765901734584241, 1.7125,290.368865966797
0.0866663783333333, 229.225663906817, -0.000838103607953748, 1.725,287.350219726563
0.087333125, 229.234741989743, -0.00126706856148378, 1.7375,290.574493408203
0.0879997283333333, 229.242694215263, -0.00131127584100871, 1.75125,283.655059814453
0.0886672416666667, 229.250605135565, -0.00117795353763133, 1.765,288.696075439453
0.0893334083333333, 229.258625617376, -0.00102632615373349, 1.77875,288.696075439453
0.0899996633333333, 229.266562482545, -0.00110611164618237, 1.79125,286.362884521484
0.09066657, 229.274130416178, -0.000899890004481689, 1.805,286.029022216797
0.0913333933333333, 229.281215056219, -0.000646536230180884, 1.81875,296.049835205078
0.0920000616666667, 229.288399530866, -0.000726038236875038, 1.83125,289.431030273438
0.0926665233333333, 229.295346345232, -0.000449921605919638, 1.845,289.431030273438
0.093333345, 229.302192958625, 2.55650108508744E-05, 1.85875,292.667266845703
0.09399978, 229.309153630399, 0.000262163126773583, 1.87125,289.837677001953
0.0946664083333333, 229.31605507535, 0.000381531631025748, 1.885,285.017639160156
0.0953338333333333, 229.323047919266, 0.000392017604335521, 1.9,286.604064941406
0.095999755, 229.329877896237, 0.000545528893666429, 1.9125,286.604064941406
0.096666375, 229.336719794351, 0.000250777198779347, 1.925,289.650817871094
0.097333325, 229.343455096592, 0.000203708062982901, 1.93875,282.734924316406
0.0979997016666667, 229.350658273821, 0.000174126548800867, 1.9525,290.754852294922
0.0986665183333333, 229.357580505648, 0.000101365203522674, 1.96625,284.724212646484
0.099333055, 229.36511512655, -3.59573989183305E-05, 1.98,284.724212646484
0.0999998083333333, 229.372611211549, -0.000251585068188403, 1.9925,344.120025634766
0.100666543333333, 229.38008338163, -0.000764728793530861, 2.005,291.673278808594
0.101333078333333, 229.387434729872, -0.000980660947454795, 2.01875,289.352325439453
0.10199976, 229.394489377506, -0.00114001294338968, 2.0325,286.943939208984
0.102666486666667, 229.401934924905, -0.00129592561205152, 2.0475,286.943939208984
0.103333395, 229.409611002404, -0.00112247282442115, 2.05875,294.214874267578
0.103999715, 229.417476969346, -0.000781431954533589, 2.07375,286.489624023438
0.104666396666667, 229.425657804998, -0.000668012151484942, 2.08625,285.426086425781
0.105333101666667, 229.434253930534, -0.000664874309101974, 2.1,291.938629150391
0.105999818333333, 229.442617134786, -0.000541880486929513, 2.1125,291.938629150391
0.106666603333333, 229.450822772856, -0.00066162697219506, 2.125,289.768493652344
0.107333328333333, 229.458982061912, -0.000700014543972646, 2.13875,290.044982910156
0.107999855, 229.467339525623, -0.000862636375680491, 2.1525,286.758209228516
0.108666373333333, 229.475501446368, -0.000910587467111068, 2.16625,292.834136962891
0.109333245, 229.48375553121, -0.00116783654576727, 2.18,292.834136962891
0.109999795, 229.492166550337, -0.000892106895350414, 2.1925,291.641723632813
0.11066645, 229.500862173711, -0.000964158776279595, 2.205,302.504333496094
0.111333563333333, 229.509107489016, -0.00042523734574315, 2.22,291.930480957031
0.111999683333333, 229.517363136301, -0.000313066979956212, 2.2325,296.858917236328
0.112667558333333, 229.525732888725, -0.000203881464220601, 2.24625,296.858917236328
0.113333053333333, 229.534074237303, -0.000570575545576681, 2.25875,301.692321777344
0.113999723333333, 229.54205599922, -0.000597104713045479, 2.2725,294.064208984375
0.114666376666667, 229.550005525136, -0.000960236473306199, 2.28625,292.516143798828
0.115333193333333, 229.558466952738, -0.00100038645661893, 2.29875,291.353973388672
0.115999853333333, 229.566139507411, -0.0011117978605303, 2.3125,291.353973388672
0.11666665, 229.574041210241, -0.000998481552265475, 2.325,349.360473632813
0.117333298333333, 229.58209165069, -0.00109089641037896, 2.3375,285.225860595703
0.117999725, 229.590011842431, -0.00111318979061032, 2.35125,296.874176025391
0.118666425, 229.597959518858, -0.000902585369059425, 2.365,287.330078125
0.11933325, 229.605844128964, -0.00100768209017037, 2.37875,287.330078125
0.119999758333333, 229.613849721152, -0.000929459519225989, 2.39,289.624908447266
0.120666501666667, 229.621548252746, -0.00062479482221494, 2.40375,291.045745849609
0.121333208333333, 229.629966250197, -0.000456507775058302, 2.4175,291.512451171875
0.1219997, 229.638086194698, -0.000555990278150164, 2.43125,291.267974853516
0.12266664, 229.646973664201, -7.74348154979798E-05, 2.44375,291.267974853516
0.12333302, 229.65591043969, -8.52014253758029E-05, 2.4575,290.720092773438
0.12399981, 229.665802839763, -0.000157049316522379, 2.47,292.871337890625
0.12466672, 229.675324259438, -0.000355957325621288, 2.48375,298.659790039063
0.125333098333333, 229.685437177309, -0.000304424414035599, 2.4975,293.572937011719
0.125999875, 229.695369559239, -0.000518036184567628, 2.51,293.572937011719
0.126666675, 229.705699286968, -0.000277061288471065, 2.5225,289.399597167969
0.12733316, 229.7162876251, -0.000391018064541095, 2.53625,282.272430419922
0.12799975, 229.72675502327, -0.000144031470394824, 2.55,271.091217041016
0.128666346666667, 229.737542352234, 4.43725662377095E-05, 2.56375,283.459564208984
0.129333368333333, 229.748287565576, 8.34426037888104E-05, 2.57625,283.459564208984
0.129999766666667, 229.758929640214, -0.000143139015204853, 2.59,274.794067382813
0.13066639, 229.76925367879, 4.2787145909671E-05, 2.6025,272.8251953125
0.131333093333333, 229.780118675492, -0.00021882221373069, 2.61625,281.584442138672
0.131999863333333, 229.790766925352, -0.000530842541248053, 2.63,275.346649169922
0.132666378333333, 229.802065693797, -0.000971898387433143, 2.64375,275.346649169922
0.133334835, 229.812832864536, -0.00116264530645116, 2.65625,323.170837402344
0.133999758333333, 229.823863294632, -0.00124473318324161, 2.67,271.463775634766
0.134666433333333, 229.83454732683, -0.00108664712375813, 2.68375,280.196685791016
0.1353331, 229.845173188798, -0.00106779757057302, 2.6975,277.070922851563
0.135999741666667, 229.856031185533, -0.00100451874900878, 2.71,277.070922851563
0.136666816666667, 229.866931554119, -0.00102978497989624, 2.72375,276.149322509766
0.137333428333333, 229.877586439378, -0.00134756501814231, 2.7375,275.960052490234
0.137999705, 229.888608956118, -0.00155296170127242, 2.75,279.286224365234
0.138666376666667, 229.899333578429, -0.00191139869734329, 2.76375,274.441589355469
0.139333076666667, 229.910065839072, -0.00195422754608658, 2.7775,274.441589355469
0.139999816666667, 229.920746990366, -0.00164697097928162, 2.79,273.019622802734
0.140666408333333, 229.931181978925, -0.00153310419867578, 2.80375,281.091918945313
0.141333088333333, 229.941786137261, -0.00175358862397126, 2.8175,271.6796875
0.141999736666667, 229.952510990085, -0.001463477695953, 2.83,279.856903076172
0.142666526666667, 229.963452992445, -0.00144288673019565, 2.84375,279.856903076172
0.143333076666667, 229.974296192117, -0.00150471212473682, 2.85625,272.852966308594
0.143999778333333, 229.984973702179, -0.00119841400979557, 2.87,275.160827636719
0.144666656666667, 229.995365715463, -0.000746831692320565, 2.885,270.813323974609
0.145333368333333, 230.005988637014, -0.000873611324303218, 2.8975,276.982421875
0.145999736666667, 230.01608258966, -0.000764394310197647, 2.91,276.982421875
0.14666648, 230.026670688797, -0.000833879820005264, 2.92375,278.122955322266
0.147333058333333, 230.03764228417, -0.00132534663410986, 2.9375,283.356903076172
0.147999768333333, 230.048756082674, -0.00160002483732875, 2.95,265.94287109375
0.148666446666667, 230.059822380553, -0.0014056735994171, 2.96375,320.142700195313
0.149333143333333, 230.07076628031, -0.00141326621804289, 2.9775,320.142700195313
0.150000001666667, 230.081738531895, -0.00140971589640652, 2.99,264.451507568359
0.150666586666667, 230.092549224264, -0.00135049437103323, 3.00375,266.471008300781
0.15133309, 230.103269320883, -0.00121941145517248, 3.0175,265.302093505859
0.151999803333333, 230.114152198802, -0.00131840498278136, 3.03,261.203491210938
0.152666395, 230.124705881658, -0.00132760852049255, 3.04375,261.203491210938
0.153333135, 230.135634686157, -0.00114722308105884, 3.05625,257.431488037109
0.153999765, 230.146478450711, -0.000885418731224803, 3.07,259.330352783203
0.15466654, 230.157478238155, -0.000807679136023288, 3.08375,259.737884521484
0.155333201666667, 230.168066574983, -0.000437469231313365, 3.09625,256.526733398438
0.155999741666667, 230.178743624904, -0.000381679533569846, 3.10875,256.526733398438
0.156666728333333, 230.188850912604, -0.000222324537828666, 3.1225,252.21208190918
0.157333075, 230.199350679124, -0.000218054252329952, 3.135,251.170944213867
0.15799979, 230.209750812241, 7.32971134035925E-05, 3.14875,255.878829956055
0.158666515, 230.220081027071, 3.95833067679433E-05, 3.1625,250.006927490234
0.159333151666667, 230.230568583024, 7.77698886754925E-05, 3.175,250.006927490234
0.159999886666667, 230.241014068703, -0.0002208606114198, 3.18875,259.147552490234
0.160666375, 230.251588831939, -0.00021796125701695, 3.20125,253.835113525391
0.161333441666667, 230.26194066743, -0.000574629841918818, 3.215,254.079437255859
