Time (min), Depth (µm), Load (N), Position (µm), Acoustic (aJ)
7.11E-06, 227.965367781248, -0.000627085009731781, 0,228.76774597168
0.000666356666666667, 227.965832713646, -0.000710171836366091, 0.00499999999999999,230.244216918945
0.00133113, 227.965606142343, -0.000713377175368459, 0.01625,230.492416381836
0.00199747833333333, 227.965912706639, -0.000145439702256279, 0.03125,230.492416381836
0.00266548166666667, 227.966132600136, 0.000194693713176026, 0.04625,239.036956787109
0.00333054333333333, 227.966393948803, 0.000167735567221626, 0.06,257.770568847656
0.00399766, 227.965775742519, 0.000383732217916154, 0.075,268.572296142578
0.00466396, 227.966473850002, 0.000527066518385613, 0.08875,267.479034423828
0.005330535, 227.966723991586, 0.000351357844091426, 0.10375,267.479034423828
0.00599732, 227.968910327947, 0.000390211892485949, 0.11625,266.600738525391
0.00666465, 227.972112667028, 0.000260685898453341, 0.13,269.521545410156
0.00733095333333333, 227.977579392287, 0.000224939693974974, 0.14375,279.119598388672
0.00799783833333333, 227.983828730962, -0.00027359926490247, 0.15625,278.330200195313
0.008664785, 227.99132557254, -0.000510825849298923, 0.17,278.330200195313
0.00933058, 227.999489279338, -0.000665285090958959, 0.18375,328.480987548828
0.009997265, 228.008395470477, -0.000651565280083155, 0.19625,284.951385498047
0.0106639833333333, 228.017579372168, -0.00101834485713022, 0.21,276.587493896484
0.0113320916666667, 228.027437534819, -0.000862696175227113, 0.22375,277.542358398438
0.011998685, 228.037774978132, -0.000886295989826251, 0.2375,277.542358398438
0.0126641066666667, 228.048153440373, -0.000902213190335401, 0.25,273.539489746094
0.01333065, 228.059064103969, -0.000941488717551003, 0.26375,277.252685546875
0.0139986866666667, 228.070302570772, -0.000781541251564265, 0.27625,278.317535400391
0.014665565, 228.0816649488, -0.000765837040362885, 0.29,274.045806884766
0.0153305166666667, 228.093438565466, -0.00058197477556731, 0.30375,274.045806884766
0.0159974133333333, 228.105071312215, -0.000400129909434182, 0.31875,274.602172851563
0.016664085, 228.117578463934, -0.000451722817974746, 0.33,282.454467773438
0.017330565, 228.129371601642, -0.000428019508549276, 0.34375,275.903228759766
0.01799784, 228.142026101708, -0.000264520220938001, 0.3575,280.198791503906
0.0186641283333333, 228.15387112305, -1.82130927164385E-05, 0.37125,280.198791503906
0.0193305166666667, 228.16603146712, -0.00018246384258127, 0.38375,273.300598144531
0.0199973416666667, 228.177441474902, -6.16509109162278E-05, 0.3975,273.905456542969
0.0206639433333333, 228.189359299946, -0.000170662435378552, 0.41,280.457244873047
0.0213308333333333, 228.200969410414, -0.000145078220453839, 0.42375,276.569183349609
0.0219974566666667, 228.213104678008, -0.000541556305743885, 0.4375,276.569183349609
0.02266388, 228.225204131543, -0.000348703492544887, 0.45125,279.352203369141
0.0233308816666667, 228.237560160476, -0.000257085094438314, 0.46375,274.299743652344
0.023997485, 228.249974946807, -0.000309289972241678, 0.4775,273.154510498047
0.0246638833333333, 228.262300844974, -0.000200363943491593, 0.49,276.562042236328
0.0254402, 228.274493871304, -0.000113251319057554, 0.50625,276.562042236328
0.0260884333333333, 228.286767539497, -0.000362289810127548, 0.51875,324.234680175781
0.0267569333333333, 228.304791926442, -0.000170041466569333, 0.5325,270.196533203125
0.0274227533333333, 228.317513012816, -0.000266731109975993, 0.545,264.996948242188
0.0280893816666667, 228.330734330486, -0.000619453393114013, 0.55875,262.969940185547
0.02875636, 228.343615306616, -0.00073401913861929, 0.5725,263.477172851563
0.0294232216666667, 228.356572764124, -0.000664857612546539, 0.585,263.477172851563
0.0300893583333333, 228.369297644101, -0.000893524126885813, 0.59875,260.049011230469
0.0307560183333333, 228.38196033082, -0.000914872554551832, 0.61125,258.73095703125
0.0314227933333333, 228.393894174828, -0.000831349249873666, 0.625,261.470153808594
0.0320896566666667, 228.406017532125, -0.00086489806473994, 0.63875,262.254577636719
0.0327571366666667, 228.418078883829, -0.000929043842758033, 0.65125,262.254577636719
0.0334229216666667, 228.430534275246, -0.000902525174760058, 0.66375,256.351409912109
0.0340895066666667, 228.44249294825, -0.000989462308017662, 0.6775,259.808197021484
0.0347567983333333, 228.454450172361, -0.000912199688776382, 0.69125,257.353149414063
0.03542292, 228.466287350774, -0.000966264473179852, 0.70375,256.725494384766
0.036089755, 228.47841846694, -0.00101652094884332, 0.7175,256.725494384766
0.0367560616666667, 228.489692825349, -0.000884133098539196, 0.73,261.110198974609
0.0374227716666667, 228.501323109506, -0.000723018691154183, 0.74375,261.564727783203
0.0380893983333333, 228.512641352089, -0.000718556415289343, 0.7575,258.460235595703
0.0387561333333333, 228.524021841569, -0.000429061956264589, 0.77,265.182739257813
0.03942332, 228.535091589896, -0.000281287878775086, 0.78375,265.182739257813
0.0400893683333333, 228.546616667121, -6.82880775058568E-05, 0.79625,263.975860595703
0.04075679, 228.557667410507, -0.000161313404957735, 0.81,261.461181640625
0.041422935, 228.569338633799, -0.000361545847517261, 0.82375,324.971893310547
0.0420896283333333, 228.579377199873, -0.000647242497294089, 0.835,275.847839355469
0.0427561733333333, 228.589062772262, -0.000505237130079712, 0.85,275.847839355469
0.0434230416666667, 228.598694025974, -0.000609028916726027, 0.8625,281.735778808594
0.044089535, 228.608392729439, -0.000663980156600601, 0.87625,289.067138671875
0.0447567966666667, 228.617531418645, -0.000476518072599583, 0.88875,292.918853759766
0.0454231616666667, 228.628702836978, -0.000424523184255184, 0.90375,295.894409179688
0.0460897216666667, 228.64017122943, -0.000496120588026416, 0.91625,295.894409179688
0.0467568783333333, 228.651905811032, -0.00048105084493263, 0.93,292.094970703125
0.04742312, 228.663248949552, -0.00027655111674445, 0.9425,296.514038085938
0.048089665, 228.674921238648, -7.75876104851291E-05, 0.95625,291.218444824219
0.04875617, 228.686605770653, 0.000183315284633773, 0.97,291.299438476563
0.04942301, 228.698575369602, -7.46717569776058E-05, 0.98375,291.299438476563
0.0500897266666667, 228.710557222014, -0.000143593295124582, 0.99625,299.393951416016
0.0507563233333333, 228.722601530527, -0.000528506961310133, 1.01,287.936218261719
0.0514226933333333, 228.734585610118, -0.000506129585290937, 1.02375,294.166015625
0.0520896816666667, 228.746018428062, -0.000574058173291669, 1.03625,294.277435302734
0.05275618, 228.757842442935, -0.000377377552335426, 1.05,294.277435302734
0.0534241533333333, 228.769315183023, -0.000330251419432911, 1.06375,291.3154296875
0.0540894483333333, 228.781144995675, -5.76296129109624E-05, 1.07625,290.228668212891
0.0547568883333333, 228.792986081436, -0.000227409085061383, 1.08875,287.944915771484
0.0554233983333333, 228.804912734852, -0.000191349396318973, 1.1025,289.010009765625
0.0560894066666667, 228.816067495743, -0.000333477757334417, 1.11625,289.010009765625
0.0567569783333333, 228.827744916109, -0.000482057294334741, 1.12875,300.592193603516
0.0574229383333333, 228.838212779899, -0.000177079113059648, 1.14375,284.219268798828
0.0580893566666667, 228.848832836337, 0.0001872900850463, 1.15625,341.375335693359
0.0587561883333333, 228.859538687068, 9.27588332810097E-05, 1.17,294.505981445313
0.059423975, 228.87021833772, 0.000215140686169417, 1.18375,294.505981445313
0.06008975, 228.880004617237, 0.000422140788741656, 1.19625,292.994293212891
0.060756045, 228.890883602384, -3.63786803311548E-05, 1.21,294.633575439453
0.06142279, 228.901131707628, -0.000342933282387866, 1.22375,291.310394287109
0.06208968, 228.911671535208, -0.000563684694290886, 1.2375,291.310394287109
0.0627563466666667, 228.922025520965, -0.000991155722881481, 1.25,293.532684326172
0.0634229566666667, 228.932652443638, -0.00126331105280775, 1.26375,296.232421875
0.0640895066666667, 228.942600028172, -0.000901229239778086, 1.2775,292.755157470703
0.06475603, 228.952631384177, -0.000823633637319283, 1.29,297.596923828125
0.0654229183333333, 228.962366438895, -0.00108915630036537, 1.30375,293.325469970703
0.06608951, 228.971957467797, -0.000687614469418505, 1.3175,293.325469970703
0.066756165, 228.981185217492, -0.000665775566345095, 1.33,299.2119140625
0.0674227283333333, 228.990749222074, -0.000766891487409662, 1.3425,294.855194091797
0.0680893633333333, 229.000147526449, -0.00105594196872604, 1.35625,298.395812988281
0.0687568633333333, 229.009204887659, -0.000686839008374496, 1.37,293.423004150391
0.06942319, 229.017938899198, -0.00060461763824839, 1.38375,293.423004150391
0.0700897516666667, 229.026885562612, -0.000649627377456589, 1.39625,293.821014404297
0.0707560483333333, 229.03554693823, -0.000614187157556487, 1.41,291.4990234375
0.071422915, 229.04408390726, -0.000296353122031899, 1.4225,293.30615234375
0.072089665, 229.052390908036, -0.000267337079498672, 1.43625,288.007965087891
0.07275638, 229.06110234323, -4.33878964835288E-06, 1.45,288.007965087891
0.0734227366666667, 229.069054081804, 0.000430163885756198, 1.4625,285.22509765625
0.0740895983333333, 229.077159470422, 0.000615446579195454, 1.475,296.256378173828
0.0747563116666667, 229.085446866131, 0.000305133165925302, 1.48875,346.597381591797
0.0754239666666667, 229.093380186202, 0.000429914898284004, 1.50125,287.238861083984
0.0760895366666667, 229.101163156844, 6.81810678221696E-05, 1.515,287.238861083984
0.0767569216666667, 229.109291854495, -0.00011098493285915, 1.52875,295.843444824219
0.0774227333333333, 229.116892415322, -0.000212066355662442, 1.54125,291.620422363281
0.0780896766666667, 229.124603360276, -0.000176593137425468, 1.555,287.758056640625
0.07875645, 229.13228411034, -0.000353453753916407, 1.56875,294.680206298828
0.0794231933333333, 229.139738831205, -0.000394745179891306, 1.58125,294.680206298828
0.0800895116666667, 229.147182085033, -0.000553390711262221, 1.59375,298.594665527344
0.080756255, 229.154731781828, -0.000697188488436048, 1.6075,293.200958251953
0.0814228366666667, 229.161916340406, -0.000415151654862047, 1.62125,293.290557861328
0.0820893566666667, 229.169447246006, -0.000464196191416394, 1.63375,296.517822265625
0.0827562516666667, 229.176985336371, -0.000368132016613417, 1.6475,296.517822265625
0.0834227966666667, 229.184286674621, -0.000152597342698855, 1.66,295.817016601563
0.084089495, 229.191932370048, -0.000276620113181984, 1.6725,300.724517822266
0.0847560516666667, 229.200581489652, -0.000464124195045038, 1.68625,293.783386230469
0.0854228183333333, 229.208208366556, -0.000407572535577139, 1.7,300.918212890625
0.086089695, 229.216439159244, -0.00057176028859578, 1.71375,300.918212890625
0.0867563716666667, 229.224666492783, -0.000841599734839587, 1.7275,295.688598632813
0.087422835, 229.23233803113, -0.00063184727051978, 1.74,287.035247802734
0.0880897883333333, 229.239078699286, -0.000300957890757557, 1.75375,294.982421875
0.08875608, 229.246606889002, 0.000127119107376971, 1.7675,292.065246582031
0.0894227166666667, 229.253582948856, 0.000209521968334617, 1.78125,292.065246582031
0.0900896283333333, 229.261146814599, 0.000435647610288435, 1.79375,291.070587158203
0.090756415, 229.268706715054, 0.000398866457801788, 1.8075,286.977264404297
0.091423285, 229.276084969633, 0.00029279178583114, 1.82125,347.816925048828
0.09208949, 229.283300326893, 0.000336108110090503, 1.83375,347.816925048828
0.0927565716666667, 229.290607547444, 0.00047686404008568, 1.84875,288.122924804688
0.0934230866666667, 229.298037858293, 0.000437710006767997, 1.86,284.044189453125
0.0940893616666667, 229.305482738716, 0.000570267348572196, 1.875,286.594787597656
0.0947568833333333, 229.312948355038, 0.000661096786293876, 1.8875,291.229553222656
0.0954229116666667, 229.320542774458, 0.000339563936574487, 1.90125,284.652069091797
0.0960893716666667, 229.328111384142, 0.000253978235459267, 1.915,284.652069091797
0.0967564466666667, 229.335066328995, -9.94490122758085E-05, 1.9275,286.633270263672
0.0974229383333333, 229.341568541053, -0.000355462153032434, 1.94125,283.134857177734
0.098089695, 229.348323262411, -0.000855874517850867, 1.955,289.725891113281
0.098756045, 229.354127146273, -0.000601808279309736, 1.96875,286.166778564453
0.0994234933333333, 229.3603363465, -0.000653578178951139, 1.98125,286.166778564453
0.100089441666667, 229.366153967255, -0.000314206725221959, 1.995,290.365142822266
0.100757486666667, 229.372922266201, -0.000369318456986427, 2.0075,284.070831298828
0.101422691666667, 229.379309315222, -0.000254172240673327, 2.02125,289.029846191406
0.102089691666667, 229.387368969705, -0.000442501281128206, 2.035,294.054870605469
0.10275754, 229.394664573368, -0.000312583806741331, 2.04875,294.054870605469
0.103423031666667, 229.402884887003, -0.000620971316737635, 2.06125,285.85546875
0.104089996666667, 229.411340518082, -0.00050901244031281, 2.075,296.428619384766
0.104756568333333, 229.420311372539, -0.000625985564846635, 2.08875,293.207641601563
0.105422963333333, 229.428858152221, -0.000824317602825914, 2.10125,286.336944580078
0.106089435, 229.437743868316, -0.000560932332415793, 2.115,286.336944580078
0.106756856666667, 229.446536257989, -0.000707723959229875, 2.1275,293.2861328125
0.107423035, 229.45510972138, -0.000676882508400326, 2.1425,288.650787353516
0.108089416666667, 229.463520098171, -0.0006685024293353, 2.155,346.754058837891
0.10875622, 229.47161339169, -0.000768814390728434, 2.16875,346.754058837891
0.109422751666667, 229.480075004139, -0.0011993152670812, 2.18125,292.68115234375
0.110089498333333, 229.487868935517, -0.00114826683118403, 2.19375,296.953094482422
0.110756323333333, 229.49630166611, -0.00133987320699138, 2.20875,298.142211914063
0.111422908333333, 229.504843102521, -0.00144269454237876, 2.22125,301.427520751953
0.1120896, 229.513523263926, -0.00131338903725468, 2.235,292.710357666016
0.112756056666667, 229.521405497034, -0.000914499073120371, 2.24875,292.710357666016
0.113423501666667, 229.530115525868, -0.000586930526518313, 2.26,302.039978027344
0.114089505, 229.538289415553, -0.000383128263283918, 2.27375,294.391326904297
0.114756866666667, 229.546770459624, -1.46882696461432E-05, 2.2875,289.731597900391
0.115422723333333, 229.555404037812, 0.000268319015165545, 2.3,294.840728759766
0.116089478333333, 229.564685978039, 0.000279755940717017, 2.31375,294.840728759766
0.116757641666667, 229.573800509826, 3.23283014206322E-06, 2.32625,295.061462402344
0.117423013333333, 229.582224864945, -3.08664570864772E-05, 2.34,291.175323486328
0.118089368333333, 229.591001307655, -6.31598350146838E-05, 2.35375,296.017456054688
0.11875685, 229.599710825443, -0.000203410290358438, 2.36625,291.767700195313
0.119423501666667, 229.609729853825, -0.000403644232821113, 2.38,291.767700195313
0.120089958333333, 229.619837975598, -0.000261392877962094, 2.39375,288.616455078125
0.120756365, 229.630504337154, -0.00027852051765596, 2.40625,286.87646484375
0.121423493333333, 229.64060316819, -0.000192916817447902, 2.41875,292.179809570313
0.122089425, 229.651328962171, -8.54202168879167E-05, 2.4325,288.870025634766
0.122756041666667, 229.661064219319, -0.000213044306458383, 2.44625,288.870025634766
0.123422705, 229.670938702965, 8.68641294410262E-05, 2.45875,287.071838378906
0.12409, 229.680587017976, 0.00037294176005879, 2.4725,348.338623046875
0.124756915, 229.691302709009, 0.000361332343200943, 2.48625,295.621459960938
0.125422803333333, 229.701656294234, 0.000272917784172335, 2.49875,295.621459960938
0.126089943333333, 229.712003379699, 0.000558312949122854, 2.5125,292.576385498047
0.126756895, 229.723974014233, 0.000281675844293253, 2.525,290.055358886719
0.127423115, 229.735656221254, -5.30053449767757E-05, 2.53875,274.048431396484
0.128089418333333, 229.747077723372, -0.000167956571096198, 2.5525,271.788208007813
0.128756211666667, 229.758391784085, -0.000134637244684876, 2.565,273.837585449219
0.129422943333333, 229.770042390835, -0.000421697325978061, 2.57875,273.837585449219
0.13008943, 229.780456188735, -0.000106899137955765, 2.5925,274.595397949219
0.130756423333333, 229.791541667573, 0.000262944785178508, 2.605,279.416839599609
0.131424026666667, 229.802441569043, 0.000357558532828486, 2.62,278.439727783203
0.132089735, 229.813220179981, 0.000497113023164112, 2.6325,275.185913085938
0.132756045, 229.824103281908, 0.000722470703717192, 2.645,275.185913085938
0.133422695, 229.834853495806, 0.000548542439965975, 2.65875,276.92333984375
0.13408949, 229.845887361697, 0.000591174798548674, 2.67125,279.168029785156
0.134756068333333, 229.856535538541, 0.000508246963901109, 2.685,278.347869873047
0.135422806666667, 229.867936011217, 0.000249146978254989, 2.7,275.96337890625
0.136089671666667, 229.878600192029, 0.000326129111505334, 2.7125,275.96337890625
0.136756378333333, 229.889872151071, 0.000307464049021825, 2.72625,273.077087402344
0.137423025, 229.900773192354, 1.62851746371637E-05, 2.74,278.009063720703
0.138089431666667, 229.912026740711, -6.19388962528744E-05, 2.7525,281.397979736328
0.138756081666667, 229.922627078593, 0.000195680663773436, 2.76625,280.784912109375
0.139422731666667, 229.933933660876, -0.000215312192496174, 2.78,280.784912109375
0.140089345, 229.944209270441, -0.00033888798544337, 2.7925,281.314208984375
0.140756856666667, 229.954944438352, -0.000290986391454338, 2.80625,328.300140380859
0.141423368333333, 229.965144465381, -0.000337839538072952, 2.82,273.073486328125
0.1420895, 229.976058512026, -0.000300336921799558, 2.83375,278.574890136719
0.142756248333333, 229.986064269174, 2.60196856508726E-05, 2.84625,278.574890136719
0.143423381666667, 229.996589381962, 9.99974697901402E-05, 2.85875,274.322143554688
0.144089355, 230.006811971685, 0.000245793146630427, 2.8725,280.453491210938
0.144756845, 230.017574595641, 0.000263766743815256, 2.88625,276.779296875
0.145423351666667, 230.028092269455, 0.000132703327014259, 2.89875,274.907775878906
0.146089738333333, 230.039049364471, 7.57361884228958E-05, 2.91375,274.907775878906
0.146756325, 230.050351167362, 0.000216621111959261, 2.925,271.157745361328
0.147422703333333, 230.06178223622, 0.00030663909043, 2.93875,276.63623046875
0.148089601666667, 230.073607378491, 0.000248079031867328, 2.9525,269.697875976563
0.148756343333333, 230.084927419836, 0.000107968069493077, 2.96625,269.799957275391
0.14942388, 230.096180917855, 0.000329871423486577, 2.98,269.799957275391
0.150089735, 230.106871879781, 0.000196244635412823, 2.9925,266.687591552734
0.150756828333333, 230.117935215652, 0.000252008834420232, 3.005,266.759674072266
0.151422793333333, 230.127955327602, 0.000662595211049034, 3.01875,260.466552734375
0.15208957, 230.138775247515, 0.000992244153159731, 3.0325,263.170623779297
0.152756873333333, 230.149879111102, 0.000623252187235287, 3.04625,263.170623779297
0.153422925, 230.161142608638, 0.000653052690401451, 3.05875,257.435546875
0.154089705, 230.171511815813, 0.000770124809988399, 3.0725,256.276214599609
0.154756043333333, 230.182952063138, 0.00057791396456152, 3.085,259.852691650391
0.155422965, 230.193346843434, 0.000510940828554442, 3.09875,258.614501953125
0.156089711666667, 230.203634553686, 0.00078726444912, 3.11125,258.614501953125
0.156756041666667, 230.213692686348, 0.000926325464241938, 3.125,255.577102661133
0.157422891666667, 230.224365696569, 0.000751206260301994, 3.1375,312.224609375
0.158089355, 230.234633576334, 0.000620325834299449, 3.15,253.967697143555
0.158757231666667, 230.245218828134, 0.000548173458435249, 3.165,261.230865478516
0.159422988333333, 230.255844007398, 0.000596955508155264, 3.1775,261.230865478516
0.160089453333333, 230.266692009617, 0.000806274494258767, 3.19,257.731140136719
