Time (min), Depth (µm), Load (N), Position (µm), Acoustic (aJ)
7.83E-06, 227.771922115802, 0.000795096529249557, 0,296.015106201172
0.00066614, 227.772284180149, 0.000537185983782745, 0.00499999999999999,296.015106201172
0.00133257666666667, 227.772963200976, 2.7798069804922E-05, 0.01625,296.834991455078
0.00199892, 227.773927632504, -4.78281315298293E-05, 0.03125,299.258422851563
0.00266618, 227.774564746495, -0.000113133351345436, 0.04625,301.579376220703
0.003332585, 227.775314486636, -0.00017361181355994, 0.06,307.8427734375
0.00399897666666667, 227.775725120229, -6.85795891983357E-05, 0.075,307.8427734375
0.004665475, 227.775850620058, -0.000131747416335472, 0.08875,315.699340820313
0.00533265833333333, 227.776370951452, -2.47847889480629E-05, 0.1025,317.368469238281
0.00599901, 227.778486089836, -3.2873882678857E-05, 0.11625,318.145355224609
0.00666556, 227.782275685271, -0.000309386493761734, 0.12875,320.710388183594
0.00733214333333333, 227.787307422519, -0.000530901367313536, 0.1425,320.710388183594
0.00799892166666667, 227.794751132833, -0.000321790870702086, 0.15625,318.994781494141
0.00866555666666667, 227.803584883361, -0.000313080808204581, 0.17,316.673461914063
0.00933301833333333, 227.813594816858, 0.000235342645084322, 0.18375,317.800537109375
0.00999910666666667, 227.824480597821, 0.000719540824340505, 0.19625,392.191619873047
0.0106671283333333, 227.835963721875, 0.00108935174911665, 0.21,392.191619873047
0.0113321416666667, 227.847841818007, 0.00123529741839727, 0.22375,331.330657958984
0.011998925, 227.859438007263, 0.0013340419585552, 0.23625,320.160034179688
0.012665745, 227.87122547474, 0.000881135207598323, 0.2525,326.795166015625
0.0134988966666667, 227.882210226638, 0.000529114889187298, 0.2675,320.34228515625
0.0141655133333333, 227.893851471454, 0.000229702928350384, 0.28,319.494445800781
0.0148321666666667, 227.905036617923, 0.000325782102418648, 0.2925,319.494445800781
0.0154987833333333, 227.917134916142, 0.000259278442792297, 0.3075,323.946258544922
0.0161655266666667, 227.934893966861, 0.000430458844547901, 0.32375,324.725677490234
0.0169988283333333, 227.946900192481, 0.000520667313460363, 0.3375,320.195373535156
0.0176659483333333, 227.95936344827, 0.000321892797697107, 0.35,324.096099853516
0.0183326466666667, 227.971511354892, -7.91675574312934E-05, 0.36375,323.883758544922
0.0189990533333333, 227.983070197435, -0.00047200382565386, 0.3775,323.883758544922
0.0196655633333333, 227.994638383265, -0.000618286978010222, 0.39375,325.202850341797
0.0204988766666667, 228.006690902655, -0.000677294014130082, 0.4075,319.004425048828
0.0211656483333333, 228.018301175807, -0.000598042494832525, 0.42125,332.509429931641
0.0218324983333333, 228.029672704906, -0.000320322444456247, 0.435,319.484039306641
0.0224989383333333, 228.041548119829, 0.000171070873352593, 0.4475,326.085388183594
0.0231662283333333, 228.053453470782, 0.000189567944260429, 0.46,326.085388183594
0.0238335716666667, 228.065729983907, 0.00010562466064308, 0.47375,323.529541015625
0.02449889, 228.077999934538, 2.90490069485259E-05, 0.4875,257.83447265625
0.0251654516666667, 228.09006208933, -7.39466248362614E-06, 0.50125,322.853240966797
0.02583242, 228.10242421339, -0.000233050827992955, 0.51375,383.195617675781
0.02649882, 228.115217097273, -0.000195533212454275, 0.52625,383.195617675781
0.0271655733333333, 228.127280035037, -0.000459531952115362, 0.54,320.675537109375
0.0278324983333333, 228.139381552034, -0.000225608201828743, 0.55375,322.350555419922
0.0284987766666667, 228.152139620355, -0.000352987803700224, 0.56625,308.396545410156
0.0291654833333333, 228.16432334684, -0.000326406138856058, 0.57875,317.677398681641
0.0298324583333333, 228.176355131821, -0.000426980587083524, 0.59375,317.677398681641
0.0305005633333333, 228.188655181503, -0.000330919412150608, 0.60625,316.350311279297
0.0311656383333333, 228.201093815227, -0.00067534111219572, 0.62,311.370208740234
0.03183214, 228.212731104462, -0.000635776099549036, 0.63375,314.464447021484
0.0324989383333333, 228.224650550611, -0.00061522713167497, 0.645,315.358184814453
0.0331656733333333, 228.236676526933, -0.000653314718571904, 0.65875,315.358184814453
0.0338325483333333, 228.248392436658, -0.00107492554152003, 0.6725,315.133209228516
0.0344989283333333, 228.259930876166, -0.00078850892794462, 0.685,310.148040771484
0.0351659916666667, 228.271771844783, -0.00103548502255631, 0.7,321.006439208984
0.035832205, 228.283337146998, -0.00102055327259264, 0.71125,318.163970947266
0.036498825, 228.295185933089, -0.00126929927834023, 0.725,318.163970947266
0.0371658783333333, 228.306521190006, -0.000835728056181391, 0.73875,313.438110351563
0.0378324483333333, 228.317851356752, -0.00103310914194023, 0.75125,317.145629882813
0.03849901, 228.328710191209, -0.000648685951119557, 0.765,318.339202880859
0.0391659583333333, 228.339468048823, -0.000499711933937414, 0.7775,315.163726806641
0.039832145, 228.349898921075, -0.000117973608244913, 0.79125,315.163726806641
0.0404988716666667, 228.366140036611, 0.000320310377260383, 0.8075,315.135284423828
0.0413321666666667, 228.37714366261, 0.000281937804663067, 0.82125,317.224517822266
0.041998855, 228.387205854665, 8.71155903825265E-05, 0.83375,254.161834716797
0.0426655316666667, 228.39643260171, 1.03584458139237E-05, 0.8475,392.144653320313
0.04333253, 228.405717667196, -0.000115323241356766, 0.86,327.462921142578
0.0439990283333333, 228.415613875023, -0.000422629305667034, 0.87375,327.462921142578
0.0446657983333333, 228.42487791536, -8.19319185315795E-05, 0.8875,334.598419189453
0.0453325116666667, 228.435567488186, -0.000185179232598258, 0.9,341.915740966797
0.0459988666666667, 228.447457715254, -0.000219341516651735, 0.91375,338.729736328125
0.0466654483333333, 228.459096369853, -9.9208050805131E-05, 0.92625,339.518035888672
0.0473325433333333, 228.470424436107, -0.000117409636584271, 0.94125,339.518035888672
0.0481664383333333, 228.482096046688, -0.000345249692428571, 0.9575,336.275726318359
0.0488321616666667, 228.494222756013, -0.000639828896009278, 0.97,337.065368652344
0.0494989066666667, 228.505869000014, -0.00067382918820595, 0.98375,337.619659423828
0.05016565, 228.517444179622, -0.000610971845441542, 0.9975,345.392242431641
0.050832225, 228.528930944457, -0.000883155673952723, 1.01,340.622955322266
0.0514988966666667, 228.540694752339, -0.000743827672244497, 1.02375,340.622955322266
0.0521655483333333, 228.551357673946, -0.000473349258098632, 1.0375,334.440002441406
0.0528322166666667, 228.562530217356, -0.000288878023889063, 1.05125,340.035400390625
0.0534988116666667, 228.573607371623, -0.000409843947928255, 1.06375,333.902709960938
0.054165565, 228.584346261287, 7.42477366740431E-05, 1.0775,339.439758300781
0.05483252, 228.595218296009, -3.33943566168203E-05, 1.09125,339.439758300781
0.0554989433333333, 228.606445733367, -0.000133232341856017, 1.105,339.333526611328
0.0561656166666667, 228.616966914036, -0.00033530819178345, 1.11875,339.057800292969
0.056832235, 228.627857623214, -0.000126328188595083, 1.13125,339.213165283203
0.0574988566666667, 228.638618932689, -0.000189697005666018, 1.145,344.846252441406
0.0581658633333333, 228.649448564815, -0.000295359198319499, 1.1575,344.846252441406
0.0588322166666667, 228.659962092659, -0.000135672719200183, 1.17125,340.595886230469
0.0594988766666667, 228.670389112406, 4.48027156764675E-05, 1.185,409.534606933594
0.0601655283333333, 228.680871018673, -0.000210965937359919, 1.19875,337.804748535156
0.0608324166666667, 228.690762845923, -0.000274147263816685, 1.21125,343.700439453125
0.061498955, 228.700251999256, -5.23327112097431E-06, 1.225,343.700439453125
0.0621657016666667, 228.709787778036, 0.000128726500212812, 1.23875,345.958038330078
0.0628321666666667, 228.719909184771, 4.01664485170877E-05, 1.25125,344.629547119141
0.0634989666666667, 228.728970138698, 0.000275614122252465, 1.265,346.610809326172
0.064165725, 228.738827589836, 0.000184948176333248, 1.2775,344.234039306641
0.0648328066666667, 228.748150941026, 0.000180712389117062, 1.29125,344.234039306641
0.06549886, 228.757845225383, -0.000176751155846057, 1.305,343.704925537109
0.0661656316666667, 228.766515478083, -2.09584811364751E-05, 1.3175,345.578552246094
0.0668322916666667, 228.77574274492, -9.24133920256353E-05, 1.33125,343.476135253906
0.06749887, 228.784622045248, 0.000190238410681227, 1.34375,351.964172363281
0.0681658466666667, 228.793147990967, 0.000174606195893711, 1.3575,351.964172363281
0.0688337483333333, 228.801553786486, 0.00058938636191917, 1.37125,339.593811035156
0.0694989733333333, 228.809974716354, 0.000489663870859024, 1.385,345.397796630859
0.0701654983333333, 228.818483290848, 0.000498484927783624, 1.3975,343.360229492188
0.0708321633333333, 228.826207802529, 0.000324907646385278, 1.41,341.807495117188
0.0714988883333333, 228.83457328139, 0.000183187264850028, 1.42375,341.807495117188
0.0721658566666667, 228.842010078431, -5.66386888985903E-05, 1.4375,343.083740234375
0.0728322083333333, 228.849463758754, 0.000259162948698263, 1.45,340.372650146484
0.0734989483333333, 228.856176753499, 0.000341343820844226, 1.46375,342.249633789063
0.0741655683333333, 228.863957344956, 0.000369911385917118, 1.47625,343.304168701172
0.074832225, 228.870546233958, 0.000418076966601123, 1.49,343.304168701172
0.0754989016666667, 228.877497637835, 0.000630376303003998, 1.50375,342.205871582031
0.0761654783333333, 228.884692918145, 0.000466406039087592, 1.51625,414.406158447266
0.0768322, 228.891888131826, 0.000485216594216963, 1.53,340.179229736328
0.0774988566666667, 228.898668297499, 0.000499320385782509, 1.5425,345.642761230469
0.0781655733333333, 228.906126758049, 0.000191874828396468, 1.555,345.642761230469
0.0788323033333333, 228.9129298032, 0.000162113323286042, 1.56875,342.668701171875
0.0794989766666667, 228.9200190894, 4.77125695076319E-05, 1.5825,345.824798583984
0.0801657616666667, 228.926435127011, 0.000129209475998185, 1.59625,344.306182861328
0.0808323016666667, 228.933270251307, 8.20818432137752E-05, 1.60875,346.626373291016
0.0814988433333333, 228.939539623194, 0.000497130495771179, 1.62125,346.626373291016
0.0821659233333333, 228.946262404164, 0.00036842796034223, 1.635,354.022735595703
0.0828322333333333, 228.952993303629, 0.000478756418643156, 1.64875,345.382995605469
0.08349893, 228.960534802011, 6.76195696095796E-05, 1.6625,346.208038330078
0.0841655783333333, 228.968015506156, 0.000196347603689622, 1.67375,348.656860351563
0.0848323216666667, 228.977396329127, 0.000111921344350662, 1.68875,348.656860351563
0.0854990883333333, 228.986780046915, -6.19424226087067E-05, 1.70125,349.939605712891
0.0861654866666667, 228.995320397851, -0.000126080701004783, 1.715,350.481536865234
0.086832225, 229.003904923322, -8.03063053687795E-06, 1.72875,343.670074462891
0.0874990083333333, 229.012446271605, -0.000563785715499134, 1.74125,349.177520751953
0.088165975, 229.019555307218, -0.000856466014466506, 1.755,349.177520751953
0.0888324683333333, 229.026837325866, -0.000823418174414682, 1.76875,348.257568359375
0.0894988266666667, 229.034573587207, -0.0012443450317074, 1.7825,349.941162109375
0.09016554, 229.042269095888, -0.00134434650874906, 1.79625,347.032775878906
0.0908322533333333, 229.049016957323, -0.0010697028038127, 1.80875,346.147064208984
0.0914988066666667, 229.055783061125, -0.000502962270629372, 1.82125,346.147064208984
0.0921657416666667, 229.062736987634, -0.000429938438580609, 1.835,346.145782470703
0.092832185, 229.070163795259, -0.000524966165408394, 1.85,413.736541748047
0.0934988633333333, 229.07688109867, -0.000459365460442838, 1.8625,345.261779785156
0.0941655916666667, 229.084081770695, -0.00022375729483882, 1.875,346.6455078125
0.094832235, 229.091455197893, -0.00023371679457678, 1.88875,346.6455078125
0.09549892, 229.098496523572, -0.000247940580158349, 1.9025,350.120880126953
0.096165515, 229.104583830435, 0.000336190079574436, 1.915,341.673034667969
0.0968323766666667, 229.111519250526, 0.000382279764565521, 1.92875,346.747863769531
0.0974989383333333, 229.117752661234, 0.000283038749323837, 1.9425,342.796722412109
0.09816548, 229.124369111605, 1.26878287735027E-05, 1.955,342.796722412109
0.0988323166666667, 229.130962287341, -0.000197000138818218, 1.97,342.532104492188
0.0994989066666667, 229.138351932306, -0.000133241341359928, 1.9825,342.202545166016
0.100165595, 229.145693885631, -0.00022350530747531, 1.99625,346.37548828125
0.100832235, 229.153914338831, -0.000501741331952579, 2.01,348.669128417969
0.101498898333333, 229.161520781978, -0.000548780469218451, 2.02375,348.669128417969
0.102165556666667, 229.16988451722, -0.000458234517251494, 2.03625,351.926452636719
0.102832365, 229.177823525989, -0.000963332646713361, 2.05,347.256927490234
0.103498873333333, 229.186055015309, -0.00113584648153976, 2.0625,349.276092529297
0.104165526666667, 229.194113130907, -0.000878024431676506, 2.07625,356.071868896484
0.104832461666667, 229.202324228011, -0.000979650327101944, 2.09,356.071868896484
0.105498875, 229.210672588177, -0.000973854618230067, 2.10375,349.171081542969
0.106165576666667, 229.219144546116, -0.000697085520031725, 2.1175,346.372497558594
0.10683259, 229.227708622332, -0.000447673547742812, 2.13,347.502716064453
0.10749885, 229.236497095708, -0.000682477753739159, 2.1425,348.782379150391
0.108165565, 229.245286252112, -0.000584535673264492, 2.15625,348.782379150391
0.108832285, 229.253706606727, -0.000811826756670929, 2.17,425.961090087891
0.10951862, 229.262093571829, -0.00115206666677837, 2.18375,351.351318359375
0.11016571, 229.270417329353, -0.00115016776212253, 2.19625,346.176422119141
0.110832236666667, 229.278632166169, -0.00140457148371816, 2.20875,347.145080566406
0.11149897, 229.287128580074, -0.00176744225713271, 2.2225,347.145080566406
0.112165533333333, 229.295326847391, -0.00201867063821403, 2.23625,356.104675292969
0.112832268333333, 229.30433043838, -0.00190228098433684, 2.24875,347.503265380859
0.113498898333333, 229.312375552776, -0.00184891516485406, 2.26375,344.550048828125
0.114165618333333, 229.321303193099, -0.00164215805005641, 2.275,351.646575927734
0.114832175, 229.329590861712, -0.00117283612358223, 2.28875,351.646575927734
0.115498815, 229.339273177752, -0.0009703102962488, 2.3025,345.202606201172
0.116165653333333, 229.348183833328, -0.000685699591909963, 2.315,351.026885986328
0.116832245, 229.358288767638, -0.000557369037796784, 2.32875,347.680786132813
0.117498953333333, 229.368253807377, -0.000377894052624632, 2.34125,347.488006591797
0.118165566666667, 229.379200455202, -0.000417330071836398, 2.355,347.488006591797
0.11883219, 229.389402383695, -0.000146619169344265, 2.36875,347.492004394531
0.119498975, 229.400719367596, -0.00014628468615983, 2.38125,356.089111328125
0.120165631666667, 229.411627067002, -0.000410331423380567, 2.395,343.233123779297
0.120832488333333, 229.42236998097, -0.000258026073524928, 2.4075,348.520263671875
0.121498986666667, 229.433375315807, -0.000477997524568221, 2.42,348.520263671875
0.12216553, 229.444651733131, -0.000647621004559449, 2.43375,351.747619628906
0.122832238333333, 229.455585945077, -0.000759191400478813, 2.4475,344.382263183594
0.123499001666667, 229.467135993003, -0.00102635348121647, 2.46,351.887481689453
0.124165566666667, 229.478488622818, -0.00135491647784667, 2.47375,346.821807861328
0.12483216, 229.489679449053, -0.00134552244969375, 2.4875,346.821807861328
0.125498895, 229.500781159731, -0.00131951675596921, 2.5,419.112060546875
0.126165536666667, 229.511889659834, -0.00131824032006825, 2.5125,348.093902587891
0.12683234, 229.523768573968, -0.00117175617784185, 2.52625,352.885070800781
0.127498826666667, 229.535539357306, -0.00133618991852639, 2.54,330.508270263672
0.128165563333333, 229.547606865717, -0.0013360834238725, 2.55375,330.508270263672
0.1288323, 229.559718567129, -0.00134446800271074, 2.56625,330.267883300781
0.129498808333333, 229.572013663559, -0.00162730279621605, 2.58,332.499877929688
0.130165743333333, 229.583085611944, -0.00151723682468569, 2.595,338.639068603516
0.130832328333333, 229.594385308067, -0.00123632493456291, 2.6075,336.762573242188
0.131498848333333, 229.605453486937, -0.000984304593311654, 2.62,336.762573242188
0.13216553, 229.616539126787, -0.000866789995940728, 2.63375,332.792663574219
0.1328323, 229.627211980058, -0.000626701555315269, 2.64625,338.482574462891
0.133498873333333, 229.638548828961, -0.000591043846397949, 2.66125,341.731658935547
0.134165701666667, 229.649844295633, -0.000937013468724781, 2.6725,336.201171875
0.134832178333333, 229.660841548542, -0.000938573390359218, 2.6875,336.201171875
0.135498905, 229.671872711439, -0.00114745589839761, 2.7,333.117614746094
0.136165998333333, 229.682766736854, -0.00106386659702445, 2.71375,340.147705078125
0.136832223333333, 229.693090931684, -0.000709422400352676, 2.72625,334.846923828125
0.137498841666667, 229.703810003949, -0.000720980819759558, 2.74,335.742889404297
0.138165578333333, 229.714335289534, -0.000625689106173037, 2.75375,335.742889404297
0.138832181666667, 229.725075502231, -0.000630752851829854, 2.7675,327.665374755859
0.13949897, 229.736148807068, -0.000895254066187286, 2.78,332.82373046875
0.140165591666667, 229.747219563499, -0.00122498550411891, 2.79375,329.417236328125
0.14083238, 229.757928309337, -0.00135120566421413, 2.8075,339.663757324219
0.141499761666667, 229.768804363439, -0.00164328449341078, 2.82,339.663757324219
0.142165525, 229.779614152194, -0.00145453847392929, 2.83375,402.250396728516
0.142832285, 229.790193497227, -0.00133816681918744, 2.8475,336.126922607422
0.143498916666667, 229.800712824072, -0.0014423905841044, 2.86125,339.177734375
0.144165611666667, 229.811462964606, -0.000975942513296959, 2.87375,337.508850097656
0.144832231666667, 229.822542896051, -0.000883542654448764, 2.8875,337.508850097656
0.145498893333333, 229.833944519046, -0.00115616746079827, 2.90125,334.124359130859
0.146165718333333, 229.84502393545, -0.00145420849047555, 2.91375,330.481018066406
0.146832218333333, 229.856105092493, -0.00139958573413031, 2.9275,326.929382324219
0.14749905, 229.867119989249, -0.00156886273154188, 2.94,328.688934326172
0.148165745, 229.877173294005, -0.00135029820980138, 2.955,328.688934326172
0.148832206666667, 229.887341292987, -0.000920836781166342, 2.9675,331.818298339844
0.149498846666667, 229.897859874562, -0.000429443463357501, 2.98125,331.941101074219
0.150165578333333, 229.908695202808, -0.000422450814620538, 2.99375,333.065795898438
0.150832456666667, 229.919427501763, -0.000407313574928606, 3.00625,320.865356445313
0.151498878333333, 229.930901589278, -0.00046316626953957, 3.02,320.865356445313
0.152165526666667, 229.941715775377, -0.000629678905787088, 3.03375,329.585144042969
0.152832323333333, 229.952599308924, -0.000451442858384568, 3.04625,327.245269775391
0.153498966666667, 229.96362797561, -0.000389261981696062, 3.06,320.394714355469
0.15407408, 229.974739159056, -0.000199451015675715, 3.07125,320.394714355469
0.15474075, 229.985727142743, -0.00043643461221257, 3.085,325.148040771484
0.155407736666667, 229.996716646561, -0.000611244831682935, 3.09875,316.493194580078
0.15607428, 230.0079553458, -0.000835377073764758, 3.11125,319.257690429688
0.156740736666667, 230.018481652303, -0.00083833642510123, 3.12375,325.850799560547
0.157407301666667, 230.028885680992, -0.00122199615427312, 3.1375,325.850799560547
0.158074428333333, 230.039373650327, -0.000896101523623905, 3.15,322.755187988281
0.15874075, 230.049612762058, -0.000667643498819193, 3.16375,383.343048095703
0.159407408333333, 230.059926525169, -0.000836521516254477, 3.17625,323.095703125
0.160075448333333, 230.070106708062, -0.000971678227495858, 3.19,320.881744384766
