Time (min), Depth (µm), Load (N), Position (µm), Acoustic (aJ)
9.06E-06, 241.308528236082, 4.31614155288654E-05, 0,263.267333984375
0.000665931666666667, 241.308565630459, -0.000145643101025608, 0.00625000000000105,263.267333984375
0.00133116166666667, 241.30905549042, -0.000593504105461016, 0.0175000000000002,257.234161376953
0.00199778333333333, 241.31077462415, -0.000807472858064783, 0.0325000000000013,262.884338378906
0.00266430666666667, 241.314377246695, -0.000460303296002804, 0.0475000000000007,266.415008544922
0.00333113666666667, 241.320149896177, -0.000697985857502863, 0.0612500000000005,274.890228271484
0.00399876166666667, 241.328452396428, -0.000916971858043183, 0.0750000000000004,274.890228271484
0.00466460666666667, 241.337285854571, -0.00066917230478533, 0.0887500000000003,276.056854248047
0.00533203166666667, 241.346587782796, -0.000476406487201721, 0.1025,283.576202392578
0.00599794666666667, 241.355927552344, -0.000634284057193151, 0.11625,280.877044677734
0.00666452333333333, 241.364984398722, -0.000311216784490417, 0.12875,286.232208251953
0.00733198333333333, 241.373455245219, 0.000195009288271478, 0.1425,286.232208251953
0.00799885, 241.382549004432, 0.000323101354362031, 0.15625,284.659454345703
0.008664605, 241.391926090417, 0.000129941056575348, 0.168750000000001,291.563903808594
0.00933127, 241.401240523299, 7.38933717919608E-05, 0.1825,342.330657958984
0.00999805166666667, 241.410074806108, -3.78600149683634E-05, 0.195000000000001,290.960418701172
0.0106645916666667, 241.418556301074, -0.000293175690728696, 0.208750000000001,290.960418701172
0.0113316066666667, 241.426668204369, -0.000327444469457312, 0.221250000000001,301.397521972656
0.0119983433333333, 241.434731405909, -0.000165518602821358, 0.235000000000001,305.965637207031
0.01266468, 241.442949202844, -0.000221954768067698, 0.248750000000001,304.577026367188
0.0133312866666667, 241.45160157009, -0.000165265115533445, 0.261250000000001,321.172149658203
0.0139986616666667, 241.461063175714, 0.000238846086383788, 0.275000000000001,321.172149658203
0.0146655083333333, 241.470952472941, -7.68235578443247E-05, 0.288750000000001,313.042388916016
0.0153312783333333, 241.4804283804, -0.000406883479305276, 0.302500000000001,324.609710693359
0.0159994016666667, 241.490532272134, -0.000419305855338468, 0.316250000000001,314.450134277344
0.0166646683333333, 241.500305293446, -0.000465571031505988, 0.327500000000001,325.044830322266
0.0173312783333333, 241.51066384352, -0.000690738221574838, 0.341250000000001,325.044830322266
0.017999575, 241.520587144312, -0.000516140991433498, 0.355000000000001,321.561279296875
0.0186649883333333, 241.531025708475, -0.000299641865936353, 0.368750000000001,319.619750976563
0.019331375, 241.541162260313, -0.000131045834373898, 0.382500000000001,326.413696289063
0.0199986633333333, 241.551089852025, -5.72795395754901E-05, 0.396250000000001,322.683929443359
0.0206646583333333, 241.560957710715, 4.98765780811932E-05, 0.408750000000001,322.683929443359
0.0213324, 241.571177359321, 0.000179243580105802, 0.422500000000001,329.874725341797
0.0219986366666667, 241.581081533901, 0.000199180578653307, 0.436250000000001,326.230773925781
0.0226652333333333, 241.590688527815, 0.000362834358478117, 0.448750000000001,321.933074951172
0.02333177, 241.600944577408, 0.000257337157530248, 0.462500000000001,318.697631835938
0.02399801, 241.611294823207, 8.2171455933803E-05, 0.475,318.697631835938
0.0246647166666667, 241.621437432837, 6.65692396343528E-05, 0.488750000000001,319.246337890625
0.025331395, 241.631697757103, 3.23799569416169E-05, 0.503750000000001,327.194610595703
0.0259979483333333, 241.642493857655, -2.20613085083242E-05, 0.516250000000001,387.286224365234
0.0266645966666667, 241.652229691058, -2.11973519457772E-05, 0.528750000000001,323.199768066406
0.0273312866666667, 241.661551681911, 0.000171205483847227, 0.542500000000001,323.199768066406
0.0279994383333333, 241.671418951419, 0.000264290808253981, 0.556250000000001,319.082153320313
0.0286651166666667, 241.681378433482, 0.000688514499937662, 0.570000000000001,325.658050537109
0.02933126, 241.690801857074, 0.000593231785897561, 0.582500000000001,326.973449707031
0.02999835, 241.701255425513, 0.000618579012745306, 0.596250000000001,328.004333496094
0.0306645883333333, 241.711276033229, 0.000384644763030373, 0.60875,328.004333496094
0.031331485, 241.721363355647, 0.000481454400389293, 0.6225,317.243438720703
0.0319981516666667, 241.731449394743, 0.000219935036255636, 0.636250000000001,320.399200439453
0.03266496, 241.741960773807, 0.000129734066986445, 0.650000000000001,321.766235351563
0.0333314933333333, 241.752326630981, -0.000111813800317179, 0.6625,324.947723388672
0.0339981533333333, 241.76266192199, -9.53821256526944E-05, 0.67625,324.947723388672
0.0346651816666667, 241.773406636886, -0.000391810736362684, 0.68875,320.579650878906
0.035331285, 241.783803924822, -0.000614762537747857, 0.7025,316.330291748047
0.035998065, 241.793620866597, -0.000457781922719608, 0.71625,326.4814453125
0.03666465, 241.803651361267, 0.000103888865130549, 0.72875,318.741516113281
0.0373315533333333, 241.814207029883, 0.000134748315052937, 0.742500000000001,318.741516113281
0.0379986166666667, 241.824599207834, 1.40973752447007E-05, 0.756250000000001,323.517913818359
0.0386652133333333, 241.834533729126, 0.000350153995490074, 0.76875,318.414642333984
0.03933123, 241.845112492323, 0.000544601228606038, 0.7825,318.516082763672
0.03999853, 241.85552585472, 0.000385042243082253, 0.795000000000001,317.778961181641
0.0406663883333333, 241.865592241023, 0.000402849348679574, 0.80875,317.778961181641
0.04133184, 241.874959903559, 0.000615300177489686, 0.821250000000001,319.618072509766
0.041999465, 241.885059058474, 0.000545088704079605, 0.835000000000001,317.119171142578
0.0426648816666667, 241.894577553901, 0.000131229491786526, 0.8475,375.088073730469
0.043331435, 241.904184133261, 5.02545590308141E-05, 0.861250000000001,314.530242919922
0.0439982216666667, 241.91344712437, -0.000215779578343051, 0.875000000000001,314.530242919922
0.044665245, 241.922821661282, -0.000249932862871363, 0.8875,318.548706054688
0.0453313533333333, 241.932479088039, -0.000263015205748258, 0.901250000000001,320.20458984375
0.0459980716666667, 241.94223659276, -0.000354636603682383, 0.913750000000001,321.449737548828
0.0466647966666667, 241.951904371037, -0.000700550728763787, 0.9275,316.514923095703
0.0473312383333333, 241.96188091994, -0.000652715131469752, 0.940000000000001,316.514923095703
0.0479980483333333, 241.97198190542, -0.000951338131964282, 0.953750000000001,325.359985351563
0.04866492, 241.981811019224, -0.00115680981131455, 0.9675,320.622131347656
0.0493314766666667, 241.991046206374, -0.00110958918317463, 0.980000000000001,325.320556640625
0.049998225, 242.001052827789, -0.000767522364846462, 0.9925,328.169830322266
0.05066457, 242.010891231291, -0.000746436423993521, 1.00625,328.169830322266
0.05133138, 242.020989215469, -0.000685239497841077, 1.02,324.738555908203
0.0519985933333333, 242.03125520309, -0.000675867968575464, 1.0325,320.16162109375
0.0526646666666667, 242.042914187673, -0.000615040023911238, 1.04625,327.53564453125
0.0533314583333333, 242.053378280931, -0.000823790538602145, 1.06,319.750854492188
0.053998005, 242.064442017127, -0.000820360210896779, 1.0725,319.750854492188
0.05466456, 242.07449552144, -0.000423298654907596, 1.08625,316.726470947266
0.055331705, 242.084979615455, -0.000160219369118247, 1.1,318.963989257813
0.0559986233333333, 242.094442686888, -0.000437313950954604, 1.1125,316.504974365234
0.0566646433333333, 242.104160345518, -0.000302422726417616, 1.12625,314.867889404297
0.0573313216666667, 242.11347213273, -0.00029666151578576, 1.14,314.867889404297
0.0579997316666667, 242.123088413491, -0.000284684617364099, 1.15375,321.139923095703
0.0586647633333333, 242.13213568206, -0.000594530054156673, 1.1675,310.792236328125
0.0593320383333333, 242.141208212, -0.000179041923664098, 1.18,388.791473388672
0.0599997933333333, 242.150215400257, 4.20664703106592E-05, 1.1925,309.169708251953
0.0606662483333333, 242.159194427816, 0.000377070143433658, 1.20625,309.169708251953
0.06133324, 242.168687929369, -1.67890734232173E-05, 1.22125,315.279754638672
0.0619988483333333, 242.178325510678, 4.36758895141663E-05, 1.23375,312.110137939453
0.06266513, 242.187587376659, -0.000140088880131435, 1.24625,306.807800292969
0.0633321616666667, 242.197253246123, -0.00021295522013911, 1.26,313.826812744141
0.0639979533333333, 242.206897163298, -0.00022082232499446, 1.27375,313.826812744141
0.0646646166666667, 242.216591633135, 0.000129713067981037, 1.2875,317.707336425781
0.0653312883333333, 242.226470520303, 9.47483242017838E-05, 1.3,314.362487792969
0.0659982133333333, 242.236947916071, 0.000296845173113371, 1.31375,307.832885742188
0.0666652166666667, 242.246619202851, 0.000150223037735602, 1.3275,317.638092041016
0.0673316866666667, 242.256496922072, -0.000144192674042642, 1.34,317.638092041016
0.0679980266666667, 242.266180093936, -0.000297865955166593, 1.35375,315.762573242188
0.068665035, 242.275745093683, -0.0004088648798033, 1.3675,317.930938720703
0.06933184, 242.284901912318, -0.000627784883669876, 1.3825,311.162445068359
0.0699981516666667, 242.294451158269, -0.000620949726974, 1.39375,314.751403808594
0.0706651833333333, 242.303805230273, -0.000350468313000582, 1.4075,314.751403808594
0.0713313333333333, 242.313430285112, -0.000187952975967877, 1.42125,312.043884277344
0.071998785, 242.322961548606, 0.000266950174709802, 1.435,311.568695068359
0.0726652316666667, 242.333727628609, 0.000508496542046514, 1.4475,314.170227050781
0.0733331433333333, 242.344281596556, 0.000456572150170321, 1.46125,323.890106201172
0.0739992116666667, 242.355706427165, 0.000197706152752363, 1.475,323.890106201172
0.07466516, 242.366805016737, -5.43906846859712E-05, 1.4875,312.443878173828
0.075331445, 242.377984600848, -0.000347528460660099, 1.50125,312.194519042969
0.0759979933333333, 242.388337447725, -0.000362677699726003, 1.51375,380.015777587891
0.0766646783333333, 242.399751013218, -0.000575158527045434, 1.5275,318.502288818359
0.0773315383333333, 242.409953416479, -0.000391690742431678, 1.54125,318.502288818359
0.0779986283333333, 242.420766280461, -0.000366758994728652, 1.55375,321.417755126953
0.07866466, 242.431538894543, -0.000553307624619307, 1.5675,322.246643066406
0.07933181, 242.442588243442, -0.000859194760231552, 1.58125,316.430267333984
0.07999902, 242.453544770716, -0.000626455950436048, 1.59375,319.330413818359
0.0806654983333333, 242.464991591586, -0.0010832505061263, 1.6075,319.330413818359
0.0813314116666667, 242.476708969043, -0.00131517935657401, 1.62,314.6455078125
0.08199938, 242.487664738186, -0.00125640630866106, 1.63375,318.646484375
0.08266461, 242.49895887716, -0.00111944668798941, 1.6475,314.309417724609
0.0833319266666667, 242.509970082081, -0.00115539988212044, 1.66,313.598754882813
0.083998035, 242.521514566999, -0.00112096011203111, 1.6725,313.598754882813
0.0846646416666667, 242.532413414956, -0.000911873614210108, 1.68625,317.345428466797
0.08533126, 242.544209006739, -0.000623139617027839, 1.7,312.458251953125
0.0859980433333333, 242.555427954398, -0.00065964628334869, 1.7125,314.266235351563
0.086665315, 242.56699555076, -0.000705011504682969, 1.72625,313.171295166016
0.087331265, 242.577888438107, -0.000287213490205549, 1.73875,313.171295166016
0.08799791, 242.58912719308, -0.000296099043900744, 1.7525,305.201904296875
0.088665455, 242.600133901997, -0.00047387311448079, 1.76625,313.665740966797
0.089331305, 242.611282702078, -0.000768587311300299, 1.77875,313.990509033203
0.089998165, 242.622363222735, -0.000596028478763052, 1.79125,312.202911376953
0.090664655, 242.633595271903, -0.00099050266471028, 1.805,312.202911376953
0.09133127, 242.64454739724, -0.000920232694333488, 1.81875,309.618469238281
0.091998035, 242.655855873004, -0.0010326130496219, 1.83125,370.361663818359
0.092664595, 242.666936794855, -0.000821168670256406, 1.845,315.721618652344
0.0933313366666667, 242.677504939002, -0.000909892213754593, 1.8575,311.204681396484
0.0939987633333333, 242.688046927997, -0.000791398165599561, 1.87125,311.204681396484
0.0946647216666667, 242.698564775669, -0.000710631722399664, 1.88375,314.316711425781
0.0953312933333333, 242.708886617682, -0.000612847134029848, 1.8975,304.745635986328
0.0959979716666667, 242.719282589373, -0.00071693290590171, 1.91125,301.535400390625
0.0966649583333333, 242.72973878007, -0.000988579761349, 1.925,302.118530273438
0.0973318116666667, 242.740073704898, -0.000629973273778057, 1.93875,302.118530273438
0.0979993683333333, 242.749863121097, -0.000770217729424198, 1.95125,300.341766357422
0.0986651633333333, 242.760023059783, -0.000909632726747813, 1.96625,301.837219238281
0.0993314466666667, 242.769304847814, -0.000499970303678942, 1.97875,303.412994384766
0.09999798, 242.778807240057, 3.43133598162277E-05, 1.99125,308.446350097656
0.100664731666667, 242.787965031443, -3.35747302256165E-05, 2.005,308.446350097656
0.10133135, 242.797812915038, 2.68257358986647E-05, 2.01875,303.634765625
0.10199803, 242.806866369123, 4.73477051122186E-05, 2.03125,304.304565429688
0.102665071666667, 242.816396671605, -0.000188147966161555, 2.04625,299.299713134766
0.103331691666667, 242.825472430268, -0.000348896391928411, 2.0575,302.952484130859
0.103998415, 242.834932541116, -0.000239871368146457, 2.0725,302.952484130859
0.10466464, 242.843666079883, -0.000336358521652406, 2.085,303.421569824219
0.10533193, 242.85262776666, -2.3351243728921E-05, 2.09875,299.513000488281
0.105999128333333, 242.861609475965, 0.000209108580021306, 2.11125,301.163177490234
0.106664616666667, 242.870404791133, 0.000243317361731284, 2.125,302.977508544922
0.10733155, 242.879497189002, 0.00017870810694506, 2.13875,302.977508544922
0.107997958333333, 242.888872561568, 2.2394958361277E-05, 2.1525,302.177764892578
0.108664608333333, 242.897672706858, -5.59146082197468E-05, 2.165,361.986785888672
0.109331555, 242.906732259385, -0.000291206289732169, 2.17875,300.2919921875
0.10999814, 242.915550911015, -0.000164975630166125, 2.19125,302.593231201172
0.110664806666667, 242.924152969369, -0.000176400556301117, 2.205,302.593231201172
0.111331791666667, 242.932540450608, 9.18009722392838E-05, 2.21875,295.476135253906
0.111998088333333, 242.940997830529, 0.00015692020134387, 2.2325,299.485961914063
0.11266459, 242.949864310238, 0.000142793910869766, 2.245,303.218811035156
0.113332346666667, 242.958838275323, -0.000154729644824635, 2.25875,306.214630126953
0.113998038333333, 242.967765189358, -0.000432578688742101, 2.2725,306.214630126953
0.11466607, 242.976942932292, -0.000620307759265644, 2.28625,301.510040283203
0.115331583333333, 242.985866759073, -0.00087950973979244, 2.29875,306.477416992188
0.115999258333333, 242.994913503954, -0.00087414450928806, 2.3125,295.068359375
0.116664936666667, 243.004186325619, -0.000881789625267966, 2.32625,294.103240966797
0.117331388333333, 243.01352510297, -0.00071385506043111, 2.33875,294.103240966797
0.117998123333333, 243.022674846844, -0.000685218498835669, 2.3525,290.266082763672
0.118664923333333, 243.032550206986, -0.000550235778867574, 2.36625,291.444030761719
0.11933224, 243.042199830685, -0.000349605856298676, 2.37875,286.78466796875
0.119998041666667, 243.052127625477, -0.000321156785296151, 2.39125,289.144287109375
0.120665568333333, 243.062282165863, -0.000601428207571215, 2.405,289.144287109375
0.121331323333333, 243.072840275331, -0.000418711885232269, 2.4175,287.799255371094
0.121998901666667, 243.082919713204, -0.000298278434483759, 2.43125,288.621032714844
0.122665161666667, 243.093125657976, -0.000521107242025356, 2.44375,283.462341308594
0.123331298333333, 243.103084281059, -0.000480643774427326, 2.4575,277.076354980469
0.12399892, 243.112976409539, -0.000437273452931954, 2.47125,277.076354980469
0.124665193333333, 243.122633573655, -0.00053093324851268, 2.48375,282.928863525391
0.125331868333333, 243.132125970089, -0.000753193584599173, 2.4975,344.136291503906
0.125997915, 243.141236323827, -0.000552689655680148, 2.51,285.556549072266
0.126664575, 243.150275274616, -0.000580561255702403, 2.52375,284.148468017578
0.127331255, 243.158798312242, -0.000264290141618552, 2.53625,284.148468017578
0.127998626666667, 243.167647042424, -0.000128800447138394, 2.55,283.930694580078
0.128664658333333, 243.176398206181, 6.18144784683698E-05, 2.5625,290.327758789063
0.129331403333333, 243.185478856898, -0.000282707716554269, 2.57625,283.219055175781
0.129998566666667, 243.194893932887, -2.43201950847124E-05, 2.59,289.023803710938
0.130665186666667, 243.204442548097, 0.000254773786299999, 2.6025,289.023803710938
0.131331481666667, 243.213958653485, 0.000336336689506804, 2.61625,287.491485595703
0.131999828333333, 243.224156210614, 0.000227250168824316, 2.62875,288.315399169922
0.132664915, 243.234067127577, 0.000390567965519035, 2.6425,289.604461669922
0.133331485, 243.244199375022, 4.94820979206282E-05, 2.65625,288.005523681641
0.133998026666667, 243.254009191848, -0.000484062102694957, 2.66875,288.005523681641
0.13466467, 243.263244788541, -0.000579440811960629, 2.6825,295.753173828125
0.135331231666667, 243.272581301543, -0.000455703027199135, 2.695,291.686492919922
0.135997946666667, 243.281349771563, -0.000394735589522898, 2.70875,299.992370605469
0.136664618333333, 243.290517056216, -7.94679250773667E-05, 2.72125,296.536010742188
0.137332065, 243.299623446805, -1.74407960281141E-07, 2.735,296.536010742188
0.137998788333333, 243.309285747542, -2.15168359499416E-05, 2.7475,306.975402832031
0.13866588, 243.318508633211, 0.000108520632410448, 2.76125,284.302185058594
0.139331945, 243.328665360161, 8.90951081482165E-05, 2.77375,284.298126220703
0.13999845, 243.338633910284, 7.31389096045811E-05, 2.7875,278.373626708984
0.140665203333333, 243.349252906977, 0.000372394878303556, 2.8025,278.373626708984
0.14133129, 243.36012927856, 0.000462016876689328, 2.815,279.293792724609
0.141999023333333, 243.371981917954, 9.56542787113843E-05, 2.82875,336.745971679688
0.142665226666667, 243.382887173455, 0.000337578627082734, 2.84125,278.999084472656
0.14333186, 243.394121743731, 7.82176545266842E-05, 2.855,280.665557861328
0.14400017, 243.405203692848, 1.96665954679232E-05, 2.86875,280.665557861328
0.144664553333333, 243.416025561224, -0.000129923890750229, 2.8825,273.77197265625
0.145331605, 243.426391210821, 0.000233036878107265, 2.895,277.611480712891
0.145998721666667, 243.437364752029, 0.000316078707009477, 2.90875,275.717681884766
0.146665325, 243.447617646769, 0.00041396829013003, 2.9225,275.439514160156
0.147332335, 243.4584872133, 0.000593495772635043, 2.93625,275.439514160156
0.14799802, 243.469105701344, 0.000625841647917364, 2.94875,275.663452148438
0.148665255, 243.47982044765, 0.000424781246959714, 2.96375,273.235778808594
0.149332406666667, 243.490626581588, 9.6204750988634E-05, 2.97625,272.165496826172
0.149998543333333, 243.501377717435, 0.000138213140955815, 2.98875,272.451171875
0.150664611666667, 243.511716211954, 0.00012391585909974, 3.00125,272.451171875
0.151331273333333, 243.522492820362, -0.000173061724026858, 3.01625,273.661254882813
0.15199812, 243.533225759911, -0.000173856684066855, 3.02875,272.863891601563
0.152664695, 243.543493009144, -0.000106412571712138, 3.04375,271.091918945313
0.15333149, 243.553855803082, 6.28509263797996E-05, 3.05625,277.266052246094
0.153998875, 243.56437724117, -3.41806998333114E-05, 3.06875,277.266052246094
0.154664626666667, 243.57514148565, 0.000273854327885719, 3.0825,277.130828857422
0.155332915, 243.58576596639, 0.000298184605818021, 3.09625,283.07861328125
0.155997956666667, 243.597377006844, 0.000358385581975415, 3.10875,272.200744628906
