Time (min), Depth (µm), Load (N), Position (µm), Acoustic (aJ)
7.61E-06, 227.791673580447, -0.000343646109032168, 0,229.924362182617
0.000668275, 227.791954065993, -0.00024907135943793, 0.00499999999999999,234.332397460938
0.00133432833333333, 227.792757551511, -0.000381496707894642, 0.01625,239.734664916992
0.00199956666666667, 227.794033387385, -0.00030706144670611, 0.03125,247.617080688477
0.002668255, 227.795497031125, -0.00034215818383285, 0.04625,252.270355224609
0.00333431666666667, 227.797168952613, -0.000450494742186184, 0.06,252.270355224609
0.0040011, 227.799125509146, -0.000807530808651867, 0.075,252.098388671875
0.00466764833333333, 227.801770471587, -0.00088200356795048, 0.09,259.235382080078
0.00533438166666667, 227.804733831508, -0.00120152501872629, 0.10375,268.432067871094
0.00600089333333333, 227.808054483089, -0.00137681671401512, 0.11625,268.432067871094
0.00666689, 227.812582439819, -0.00115968312041038, 0.12875,270.998657226563
0.00733306333333333, 227.81858445926, -0.000744347982270698, 0.14375,275.302124023438
0.00799980333333333, 227.825721687016, -0.000759297731348461, 0.15625,273.999450683594
0.00866638833333333, 227.834467804419, -0.000611393160435874, 0.17,328.820831298828
0.009333175, 227.844509806703, -0.000854133467852628, 0.185,328.820831298828
0.0101666966666667, 227.855598345798, -0.00100885069659504, 0.2,281.406585693359
0.010833115, 227.866660848776, -0.00106929616049393, 0.2125,281.406585693359
0.01149961, 227.877723633408, -0.000852674041216972, 0.22625,283.449371337891
0.0121662466666667, 227.888846706939, -0.00078931872348692, 0.24,278.167236328125
0.0128330933333333, 227.899776883563, -0.00016521957131545, 0.25375,281.488983154297
0.0134997466666667, 227.910994643243, 0.000150114089846332, 0.26625,283.236511230469
0.0141664083333333, 227.922610605286, 0.000342936904536011, 0.28,283.236511230469
0.0148332233333333, 227.933983417891, 0.000531598928229667, 0.29375,284.962097167969
0.015499625, 227.945565002102, 0.000778423530519132, 0.3075,280.89208984375
0.0161671333333333, 227.957536437127, 0.000533752820076573, 0.32,280.061004638672
0.0168333483333333, 227.969160547727, 0.000530934461634007, 0.33375,286.529296875
0.0174996433333333, 227.980675579104, 0.000339953554409087, 0.3475,286.529296875
0.018166275, 227.992632269486, 0.000411541958612645, 0.36125,281.939208984375
0.0188330733333333, 228.004628601727, 5.8390697010277E-05, 0.37375,283.312927246094
0.019499715, 228.016164645881, -0.000183274164396801, 0.3875,287.568634033203
0.0201663, 228.027716409567, -0.000661258155766328, 0.40125,284.231597900391
0.0208329183333333, 228.039626476833, -0.000995876348275181, 0.41375,284.231597900391
0.0214996583333333, 228.051319368481, -0.00171212637175889, 0.4275,289.274230957031
0.0221662583333333, 228.062997077344, -0.00173151739775985, 0.44125,285.536376953125
0.022832915, 228.074744133093, -0.00153662468703235, 0.45375,283.200561523438
0.0234998183333333, 228.086217477015, -0.00150438380643701, 0.4675,283.200561523438
0.0241663183333333, 228.097887371132, -0.00133912360727875, 0.48,276.17236328125
0.0248329033333333, 228.1092719774, -0.00124248196151675, 0.49375,279.805328369141
0.0254995883333333, 228.12066198186, -0.00109612231303708, 0.50625,275.007843017578
0.0261662383333333, 228.132344009517, -0.0010660218249265, 0.52,273.392669677734
0.0268332716666667, 228.144224397988, -0.000714520480444021, 0.53375,273.392669677734
0.0274996733333333, 228.156073124407, -0.000504778515573783, 0.54625,273.392120361328
0.0281664133333333, 228.167989557181, -1.2855724323068E-05, 0.56,268.783386230469
0.028833065, 228.180144265108, -8.88149089816131E-05, 0.57375,273.690490722656
0.0294995883333333, 228.192464741798, -0.00018138425930863, 0.58625,264.131896972656
0.0301662366666667, 228.204476048975, -0.000348814849482229, 0.60125,264.131896972656
0.0308340116666667, 228.216406790945, -0.000335834501464756, 0.6125,262.908081054688
0.0314996416666667, 228.22835853559, -0.000399575299830207, 0.62625,265.910034179688
0.0321662666666667, 228.240132737543, -0.000303811109971644, 0.64,266.911285400391
0.0328333066666667, 228.251627407166, 0.000150148588086353, 0.6525,267.041076660156
0.03349966, 228.263355688144, 0.00019084304406374, 0.66625,265.470458984375
0.03416708, 228.275354747199, -0.000160266820064475, 0.67875,265.470458984375
0.0348331383333333, 228.286998607138, -0.000405018526446064, 0.6925,259.852233886719
0.0354998033333333, 228.298342677511, -0.000380157275189992, 0.705,269.768005371094
0.0361670533333333, 228.310059098733, -0.000744805459277454, 0.71875,270.449645996094
0.0368332566666667, 228.321837578899, -0.000756200386903127, 0.7325,272.810424804688
0.0374999883333333, 228.333275546011, -0.000485324492705381, 0.745,272.810424804688
0.0381662733333333, 228.345039895788, -0.000488417337356251, 0.75875,269.823455810547
0.0388331183333333, 228.35675167962, -0.000641927126720247, 0.77125,274.467010498047
0.0394997983333333, 228.368750992404, -0.00100667580578524, 0.785,266.965270996094
0.0401663583333333, 228.379927019972, -0.000960863606872516, 0.79875,271.231231689453
0.040833285, 228.391020001772, -0.000793665505087692, 0.81125,271.231231689453
0.0414996966666667, 228.402215521585, -0.000536732910565599, 0.82375,327.784698486328
0.0421670216666667, 228.412756131369, -0.000315389028417022, 0.83625,275.619995117188
0.042833155, 228.421871104365, 9.27074733197981E-05, 0.85,280.586334228516
0.0434996033333333, 228.431172945566, 2.93056579119914E-05, 0.865,290.914367675781
0.04416636, 228.440767006732, 8.70302584970328E-05, 0.87625,290.914367675781
0.0448329366666667, 228.451018895076, 5.30686337907938E-06, 0.89,287.553070068359
0.045499615, 228.461783628111, 6.73197485556742E-05, 0.90375,289.184234619141
0.04616699, 228.473661789322, 5.78402246905192E-05, 0.9175,293.549896240234
0.0468336833333333, 228.485441122719, 0.000414901789849803, 0.93125,299.425567626953
0.0474996583333333, 228.49739394261, 0.000272032466009117, 0.94375,299.425567626953
0.048166545, 228.508886052398, 0.000692360853379915, 0.9575,295.486877441406
0.0488338333333333, 228.520507989031, 0.000750646425734282, 0.97125,297.209167480469
0.0494996866666667, 228.531907464111, 0.000855428162699289, 0.985,293.318725585938
0.0501664766666667, 228.543604139884, 0.000739828969110135, 0.99875,292.769470214844
0.05083368, 228.555022540692, 0.000746956611128408, 1.01125,292.769470214844
0.051499855, 228.566423132004, 0.000566679166230479, 1.02375,289.741516113281
0.0521665183333333, 228.577689100376, 0.000568954551932795, 1.03875,286.742858886719
0.052833325, 228.588984075508, 0.000602306876659734, 1.05125,291.223358154297
0.0534995783333333, 228.60065129511, 0.000597538616195376, 1.065,287.942291259766
0.054167025, 228.611857227295, 0.000700412448936865, 1.0775,287.942291259766
0.054833395, 228.623523904497, 0.000672828834463798, 1.09125,287.928100585938
0.0554996133333333, 228.634849080102, 0.000576847155524254, 1.10375,291.860595703125
0.0561669883333333, 228.646223007567, 0.000590703459563263, 1.11875,294.477905273438
0.0568332166666667, 228.657608938047, 0.000622662354285781, 1.13125,294.645324707031
0.0574996433333333, 228.669004780312, 0.000435917234277045, 1.145,294.645324707031
0.0581667283333333, 228.680047521752, -0.000182443206128617, 1.15875,348.325866699219
0.0588333233333333, 228.691398669004, -0.0001925017009197, 1.17125,293.753997802734
0.0594996666666667, 228.702545198353, -0.000450362748859951, 1.185,292.068969726563
0.0601666016666667, 228.713378605347, -0.000620221717046253, 1.19875,292.320678710938
0.0608333466666667, 228.724156916896, -0.000622930580986126, 1.21125,292.320678710938
0.0614998316666667, 228.734442810574, -0.000100964298773411, 1.225,290.040679931641
0.062166585, 228.745012150446, -1.1469794004425E-05, 1.23875,295.116668701172
0.0628333283333333, 228.75508560796, 0.000164033390689024, 1.25125,294.978240966797
0.06349966, 228.765293674365, 8.96026292737019E-05, 1.26625,298.590850830078
0.0641666166666667, 228.775451383572, 0.000103770917652351, 1.2775,298.590850830078
0.06483335, 228.78536160498, 0.000216463257216639, 1.29125,293.600677490234
0.0654996566666667, 228.795213243765, 0.000180099083756605, 1.305,294.238677978516
0.0661664816666667, 228.805013367825, 3.63883021981667E-05, 1.31875,289.574584960938
0.0668331316666667, 228.814639173722, -5.18732644775465E-05, 1.3325,289.438232421875
0.0674997616666667, 228.824223196802, 0.000162801952605171, 1.345,289.438232421875
0.068166695, 228.833576182821, 0.000194307870094142, 1.35875,289.352172851563
0.0688333083333333, 228.842901924148, 0.000284229853424328, 1.37125,295.723083496094
0.06949996, 228.85193957834, 0.000701175910670664, 1.385,289.768463134766
0.070166995, 228.861012167045, 0.00087578514020723, 1.3975,289.199401855469
0.0708337033333333, 228.869336889971, 0.000781201391024064, 1.41,289.199401855469
0.0714996816666667, 228.877958223134, 0.000802659313235284, 1.42375,283.845184326172
0.0721664833333333, 228.886127811828, 0.000726109158276839, 1.4375,286.420104980469
0.0728336916666667, 228.895030078367, 0.000304924313944256, 1.45,285.839324951172
0.0734996416666667, 228.902953765386, 0.000568510574288177, 1.46375,290.180847167969
0.07416713, 228.911839895636, 0.000490481493634324, 1.47625,290.180847167969
0.074833655, 228.919953242237, 0.000528495584235499, 1.49,345.998229980469
0.0754996166666667, 228.928064473195, 0.000787936052784921, 1.50375,284.550476074219
0.07616708, 228.935560292125, 0.000932626285127466, 1.51625,281.546142578125
0.0768336766666667, 228.94357721454, 0.000893943228157422, 1.53,287.225341796875
0.077499645, 228.951087543724, 0.00123052482198644, 1.5425,287.225341796875
0.078166775, 228.958821844399, 0.000954616680565604, 1.55625,290.541442871094
0.078833175, 228.965869204463, 0.000897850531865532, 1.57,282.033142089844
0.07949962, 228.973405283401, 0.000778722015581651, 1.5825,294.346557617188
0.0801669783333333, 228.98054546237, 0.00069671063491451, 1.59625,290.526062011719
0.0808332716666667, 228.98815346046, 0.000656818638641645, 1.60875,290.526062011719
0.081499615, 228.995642148785, 0.000595996693632524, 1.6225,293.142181396484
0.08216663, 229.003776571683, 0.000119914606746393, 1.635,300.72119140625
0.0828338183333333, 229.011512358778, 0.000278602136021853, 1.64875,306.584564208984
0.0834999433333333, 229.019366381538, 0.000113578924940565, 1.6625,298.470886230469
0.0841670266666667, 229.027367912001, -7.04378320897999E-05, 1.67375,298.470886230469
0.084833105, 229.037927587364, -0.000307583420462206, 1.6875,296.455963134766
0.08549967, 229.047532427252, -0.000461015213757233, 1.70125,287.320343017578
0.0861670233333333, 229.057387989129, -0.00080523292401974, 1.715,282.669128417969
0.0868330716666667, 229.06693014968, -0.000752230086285064, 1.72875,290.354125976563
0.0874995783333333, 229.076024703232, -0.000793995488413901, 1.74125,290.354125976563
0.0881669883333333, 229.08251494972, -0.000603893537059322, 1.755,286.184967041016
0.0888332916666667, 229.089866174937, -0.000671000166380799, 1.76875,279.204193115234
0.0895000866666667, 229.096913496628, -0.000555541965728059, 1.7825,279.353912353516
0.0901663733333333, 229.10449788131, -0.00114022909752072, 1.795,275.785095214844
0.0908331266666667, 229.111533802508, -0.00133451133895233, 1.80875,275.785095214844
0.09149997, 229.118639324742, -0.00136793716001754, 1.8225,330.157989501953
0.0921666716666667, 229.125828212902, -0.00130554929367636, 1.835,281.589416503906
0.09283324, 229.132820533817, -0.00133824015165645, 1.85,275.521545410156
0.0934999066666667, 229.139365696526, -0.000849252712973009, 1.86375,277.083709716797
0.0941663783333333, 229.145877935041, -0.000617236866909909, 1.875,277.083709716797
0.094833155, 229.153201170729, -0.000354304573733333, 1.88875,282.616668701172
0.0954996433333333, 229.159473834046, 7.82287005471667E-05, 1.9025,279.193267822266
0.0961664433333333, 229.166314076713, 0.000131377031012721, 1.91625,287.333526611328
0.09683305, 229.173399934872, -0.000225705533088209, 1.93,286.248352050781
0.0974996633333333, 229.18067973821, -0.000574415517724875, 1.9425,286.248352050781
0.098167165, 229.187313587731, -0.000579960739178899, 1.95625,276.455078125
0.09883329, 229.194745202358, -0.00110438989766559, 1.97,281.249938964844
0.0995004, 229.201923040694, -0.0013489436140047, 1.9825,285.942687988281
0.100166513333333, 229.209546290337, -0.00120228398058061, 1.99625,276.018768310547
0.100833133333333, 229.216606077598, -0.00105929766263647, 2.01,276.018768310547
0.101499583333333, 229.223364523984, -0.00127386038543145, 2.02375,281.375122070313
0.10216659, 229.230012821989, -0.000636605394087325, 2.03625,279.893493652344
0.102833286666667, 229.236691974013, -0.000101264283696571, 2.05,279.706909179688
0.10349998, 229.243110295621, 0.000420827992123509, 2.06375,280.003845214844
0.104166421666667, 229.250032263786, 0.0006279825869943, 2.07625,280.003845214844
0.104833213333333, 229.257324712082, 0.000516680677606881, 2.09,283.829833984375
0.105499581666667, 229.264744266765, 0.000358813607086274, 2.1025,279.172637939453
0.106166781666667, 229.271479732435, 0.000320145549339008, 2.11625,274.975128173828
0.106833045, 229.278786068336, 8.4403890378084E-05, 2.13,340.041534423828
0.107499871666667, 229.28576113768, -2.31122091778893E-05, 2.14375,340.041534423828
0.108167036666667, 229.293164802962, 2.04186043136479E-05, 2.15625,284.303436279297
0.108833015, 229.300916843034, -0.00014065380516682, 2.17,286.867248535156
0.109499655, 229.309729090385, -0.000333182634652206, 2.18375,278.848907470703
0.110167123333333, 229.317780857958, -0.000478787821008262, 2.19625,282.090362548828
0.110833376666667, 229.326662204937, -0.000694335994242454, 2.21,282.090362548828
0.111499943333333, 229.3345454911, -0.000608955782791735, 2.22375,288.051635742188
0.112166601666667, 229.342699822155, -0.000617941831400694, 2.23625,288.083709716797
0.112833291666667, 229.350555661983, -0.000582060633726034, 2.25,295.457977294922
0.113499515, 229.358807235101, -0.00043606096714565, 2.26375,289.346405029297
0.114166601666667, 229.366545605438, -3.46106315873867E-05, 2.275,289.346405029297
0.114833156666667, 229.374800726917, 0.000177238727430749, 2.28875,285.504486083984
0.115499896666667, 229.383208328513, 0.000177241727258301, 2.3025,284.559875488281
0.11616714, 229.391612480249, 0.000249085118652921, 2.315,283.119506835938
0.116833525, 229.400390718129, 0.000120433580717445, 2.32875,280.659118652344
0.117499875, 229.409874466661, -0.0002566504787866, 2.34125,280.659118652344
0.11816697, 229.419648750546, -0.000662723582142106, 2.355,278.091552734375
0.11883321, 229.429566719674, -0.000338421871485458, 2.36875,284.871185302734
0.11949973, 229.439938169866, -0.000392686145855814, 2.38125,284.987030029297
0.120166265, 229.450188337364, -0.000152341218136144, 2.39375,276.616119384766
0.120833031666667, 229.460917252079, -0.000168961883254185, 2.4075,276.616119384766
0.121499596666667, 229.472021234081, 9.15330323420144E-05, 2.42125,280.772583007813
0.122167001666667, 229.482714647104, -2.30222136711856E-05, 2.43375,285.7158203125
0.1228331, 229.493673585237, 5.74817426943782E-05, 2.4475,289.109680175781
0.12349958, 229.505023297643, -0.000303388131204909, 2.46125,342.757293701172
0.124166483333333, 229.516069354718, -4.07813216663484E-05, 2.47375,342.757293701172
0.124833281666667, 229.527297708631, -2.90072435831793E-06, 2.4875,285.380249023438
0.125499871666667, 229.538985771316, -0.000177323963247626, 2.5,288.61181640625
0.126166848333333, 229.550808032024, -0.000381181723684941, 2.51375,292.864379882813
0.12683331, 229.562876493956, -0.000262365191719447, 2.52625,272.106262207031
0.127500208333333, 229.575007670114, -0.000517958353515636, 2.54,272.106262207031
0.128166246666667, 229.586461243832, -0.000530011748103117, 2.55375,273.384948730469
0.12883316, 229.59812374085, -0.00048089371525301, 2.56625,275.33984375
0.129499875, 229.608993157974, -0.000157448461558147, 2.58,274.966339111328
0.130166721666667, 229.619762529389, 0.000115102848453087, 2.59375,272.212249755859
0.13083318, 229.630650464534, 0.00027649174202515, 2.60625,272.212249755859
0.131499928333333, 229.642393666004, -8.21432440882009E-05, 2.62,269.433776855469
0.132166785, 229.653254665402, -0.000198942377369994, 2.63375,272.251556396484
0.132833281666667, 229.664223231411, -0.000270919262079013, 2.6475,274.472839355469
0.133499675, 229.675084758324, -0.000789386219978796, 2.66125,276.444915771484
0.134167118333333, 229.686283871617, -0.00100378845077761, 2.67375,276.444915771484
0.134833116666667, 229.69692687213, -0.000719756717407212, 2.6875,271.019836425781
0.13549979, 229.707518676672, -0.000865546394507378, 2.7,275.435638427734
0.13616659, 229.71888473983, -0.00124742571309379, 2.71375,277.991027832031
0.136833318333333, 229.729603149033, -0.00088186557479911, 2.72625,275.145172119141
0.137499888333333, 229.740213870387, -0.000748108293281018, 2.74,275.145172119141
0.138166428333333, 229.750690078472, -0.000738601770840367, 2.75375,273.591339111328
0.13883316, 229.761383522293, -0.000676390895642542, 2.7675,279.77783203125
0.139499625, 229.771523310187, -0.00039163019886338, 2.78125,280.32568359375
0.140167018333333, 229.782843965959, -0.000723986504947039, 2.79375,328.718841552734
0.140833636666667, 229.793311897186, -0.000923086504369564, 2.8075,328.718841552734
0.141499886666667, 229.804205761719, -0.000835730892118435, 2.82,278.946624755859
0.142166513333333, 229.815046999133, -0.00093553587902076, 2.83375,275.4091796875
0.14283329, 229.826187790635, -0.00103603833087687, 2.8475,275.082580566406
0.143499758333333, 229.836374202272, -0.00111163303384166, 2.86125,277.894836425781
0.144166505, 229.846573354224, -0.000778142784717853, 2.87375,277.894836425781
0.14483327, 229.85688630918, -0.000888576237748261, 2.8875,270.052062988281
0.145499753333333, 229.867266717914, -0.000600539705519777, 2.90125,265.524780273438
0.146167096666667, 229.876797143249, -0.000239287350855151, 2.91375,269.361297607422
0.146833296666667, 229.887012288181, 0.000146034294831848, 2.92875,272.587921142578
0.14750032, 229.897164970948, 0.00026139650032278, 2.94,272.587921142578
0.148167835, 229.90759081195, 0.000384979792870738, 2.95375,267.719451904297
0.148833156666667, 229.917642625476, 0.000296938715082303, 2.9675,265.66162109375
0.149500983333333, 229.928706100961, 8.17400242765786E-05, 2.98,263.041198730469
0.150166905, 229.939137838906, 9.96641239773539E-05, 2.99375,262.816711425781
0.150833495, 229.950249947237, -3.2690727989897E-05, 3.0075,262.816711425781
0.151499636666667, 229.960775275224, -1.71755073058357E-05, 3.02,264.505706787109
0.152166406666667, 229.972103816755, 0.000146353778793504, 3.03375,256.153228759766
0.15283394, 229.982838171739, 1.15465500018451E-05, 3.0475,266.978546142578
0.15350118, 229.993858754742, -1.75178203162732E-06, 3.06,260.363555908203
0.154166971666667, 230.004272276774, -0.000336677459064403, 3.07375,260.363555908203
0.154833923333333, 230.01472752863, -0.000355036536905885, 3.08625,255.954437255859
0.155499631666667, 230.024917194347, -0.000253523135831947, 3.1,259.873199462891
0.156166588333333, 230.03522476859, -0.00014303418555611, 3.1125,260.381072998047
0.156832978333333, 230.045594545905, -0.000408126370234696, 3.12625,309.619140625
0.157499631666667, 230.056251581503, -0.000229794327691621, 3.14,309.619140625
0.158166435, 230.066451480805, -0.000316900952406793, 3.1525,269.697387695313
0.158833053333333, 230.07694272157, -0.000706528881735677, 3.16625,266.258605957031
0.159499585, 230.087131431616, -0.00101402993630338, 3.17875,262.030700683594
0.160166396666667, 230.097189672492, -0.000943125497797745, 3.1925,263.347503662109
0.160833755, 230.107500944596, -0.000712440084871621, 3.205,263.347503662109
