Time (min), Depth (µm), Load (N), Position (µm), Acoustic (aJ)
8.265E-06, 227.81375263616, -0.000109311899377307, 0,241.956100463867
0.000666393333333333, 227.813789505776, -0.000320582287490768, 0.00499999999999999,246.074035644531
0.001332755, 227.814539021217, -0.000444972539516457, 0.01625,249.339813232422
0.00199946, 227.814915416332, -0.000407667913328057, 0.03125,266.693878173828
0.00266632333333333, 227.816669731847, -0.000450561258820684, 0.04625,266.693878173828
0.00333270833333333, 227.817552485754, -0.000624858504038865, 0.06,275.884155273438
0.00399945166666667, 227.819722317818, -0.000617690364061704, 0.075,280.047546386719
0.00466616, 227.821254964418, -0.000445770499384007, 0.08875,293.978118896484
0.00533272333333333, 227.823365737263, -0.00052164718813661, 0.1025,296.806030273438
0.00600024833333333, 227.82522951851, -0.000239520359055905, 0.115,296.806030273438
0.006666315, 227.82929498523, -0.000337352945070389, 0.12875,311.971588134766
0.00733269166666667, 227.834240756988, -0.000241305269457102, 0.1425,311.995239257813
0.007999575, 227.840825573887, -0.00037608249978195, 0.15625,309.447937011719
0.00866624166666667, 227.848816750055, -0.000507109918418522, 0.17,313.647613525391
0.00933300666666667, 227.858593732378, -0.000858543766281603, 0.18375,313.647613525391
0.01000025, 227.868902738672, -0.000600355734800188, 0.19625,310.645843505859
0.0106661716666667, 227.879739570502, -0.000481933682995258, 0.21,304.096374511719
0.0113327216666667, 227.89125087929, -0.000491528701039464, 0.22375,312.974548339844
0.0119995066666667, 227.902629606586, -0.000373010654072725, 0.23625,312.616363525391
0.0126675433333333, 227.913978099004, -6.6004574664363E-05, 0.25,312.616363525391
0.01333288, 227.925634627306, 5.08620552580852E-05, 0.26375,309.882476806641
0.0139994616666667, 227.936935183733, -6.82829602154854E-05, 0.27625,318.803009033203
0.0146662633333333, 227.947980523241, 0.000207898167510509, 0.29,313.157928466797
0.0153328416666667, 227.959239034487, 0.000487566620069193, 0.30375,373.886779785156
0.0159996666666667, 227.970666493679, 0.000582660343570721, 0.3175,373.886779785156
0.016666325, 227.98193230574, 0.000318979587989395, 0.33,312.342956542969
0.0173331066666667, 227.993572993575, 0.00050480675407205, 0.34375,316.060943603516
0.0179995083333333, 228.005450627242, 0.000761907340148562, 0.3575,310.593414306641
0.0186661816666667, 228.017794945778, 0.000540722450050493, 0.37,314.085693359375
0.0193329083333333, 228.029702708013, 0.000374433302624076, 0.38375,314.085693359375
0.0199996766666667, 228.042258204892, 0.000465696218562061, 0.39625,316.185668945313
0.0206662133333333, 228.054316427767, 0.000241392985034504, 0.41,313.056518554688
0.0213328033333333, 228.06671522607, 0.000189752078934289, 0.42375,311.229400634766
0.0219994633333333, 228.07874825077, 9.60667846387072E-05, 0.4375,307.457855224609
0.0226662583333333, 228.091202205749, 0.000356455205602275, 0.45,307.457855224609
0.0233330133333333, 228.102808586456, 0.000462018403266396, 0.46375,309.763244628906
0.0239994783333333, 228.115360476731, 0.000529239026863774, 0.4775,304.600952148438
0.0246662916666667, 228.127267485973, 0.000439594529611953, 0.49,300.541015625
0.0253327683333333, 228.139504258226, 0.000503041342751858, 0.50375,304.445709228516
0.0259994633333333, 228.151235555491, 0.00029953756451622, 0.5175,304.445709228516
0.0266665033333333, 228.163428765249, 0.00055724562012483, 0.53,295.813262939453
0.027332925, 228.17567468685, 0.000585906180531977, 0.54375,296.918243408203
0.02799956, 228.188450921062, 0.000575264215084265, 0.55625,291.176605224609
0.0286666433333333, 228.200633147606, 0.000571005928959522, 0.57,293.404327392578
0.02933309, 228.213305038734, 0.000906590072890345, 0.58375,293.404327392578
0.0299995033333333, 228.225559476813, 0.000735241679559067, 0.59625,286.717926025391
0.0306665766666667, 228.237942458848, 0.000668390037471161, 0.61,289.394989013672
0.0313331966666667, 228.24970393782, 0.000685136696302838, 0.6225,284.029296875
0.0319996083333333, 228.262173618805, 0.00103197177515913, 0.63625,352.145111083984
0.0326666, 228.274300617699, 0.000926812057223247, 0.65,352.145111083984
0.033332975, 228.287126334141, 0.000967082034509495, 0.6625,286.973327636719
0.033999625, 228.299350588886, 0.001070917318921, 0.675,288.718444824219
0.0346668116666667, 228.312326006304, 0.00101656754885965, 0.68875,287.587432861328
0.0353330983333333, 228.324763489127, 0.00091517114188917, 0.7025,289.3671875
0.03600026, 228.337416373218, 0.000936272081986143, 0.715,289.3671875
0.0366661266666667, 228.349428551365, 0.000902127797025505, 0.72875,280.459747314453
0.0373333983333333, 228.361704206233, 0.000879885414266365, 0.74125,286.022186279297
0.0379995116666667, 228.373426983802, 0.000905591123067742, 0.755,287.059967041016
0.0386661283333333, 228.385349379763, 0.000556798642546389, 0.76875,295.181457519531
0.0393327816666667, 228.397152880704, 0.000579736990398673, 0.78125,295.181457519531
0.0399998966666667, 228.409266725179, 0.000399159560598839, 0.79375,287.814666748047
0.0406663666666667, 228.420959103714, 0.000469750514882944, 0.8075,295.241912841797
0.041332765, 228.432032186814, 0.000352081425298482, 0.82125,291.124114990234
0.0419996283333333, 228.442487463237, 0.000630059462757137, 0.83375,293.043273925781
0.0426663783333333, 228.45186026427, 0.000407682132524683, 0.84625,293.043273925781
0.043333555, 228.461229226204, 0.000640428441899694, 0.86,311.424011230469
0.0439995433333333, 228.470806679087, 0.000483899304201842, 0.87375,319.22216796875
0.0446661683333333, 228.481365812146, 0.000589150517568831, 0.8875,323.534820556641
0.0453331333333333, 228.492430830576, 0.000579465504039175, 0.9,324.465545654297
0.045999995, 228.504160195976, 0.000870092406179675, 0.915,324.465545654297
0.0466662383333333, 228.516124856749, 0.000617542591486541, 0.92625,332.893920898438
0.0473327966666667, 228.527949046316, 0.000536344170015998, 0.94,326.618927001953
0.0480001433333333, 228.539886966595, 0.000350909984105743, 0.95375,325.517547607422
0.0486662133333333, 228.551386030956, 3.79537035907139E-05, 0.9675,393.750823974609
0.0493327566666667, 228.563531765384, -0.000372419683772826, 0.98125,393.750823974609
0.04999948, 228.575246439419, -0.000571920163074783, 0.99375,322.047088623047
0.0506661183333333, 228.586723621269, -0.000589356787259483, 1.0075,326.413696289063
0.051332965, 228.597956057441, -0.000539872772748711, 1.02125,317.735229492188
0.0519994833333333, 228.609764319733, -0.000476422959781254, 1.035,317.499725341797
0.0526668116666667, 228.620990897753, -0.00048745190578877, 1.0475,317.499725341797
0.0533330966666667, 228.632054250304, -0.000220456316681129, 1.06125,323.004699707031
0.053999485, 228.643623697922, -0.000240243322788308, 1.07375,326.782592773438
0.0546663833333333, 228.654832295121, -0.00038308264814093, 1.08875,325.664642333984
0.0553327966666667, 228.665985002315, -0.000266483004804769, 1.10125,320.205291748047
0.055999585, 228.6770102683, -2.47251480846896E-05, 1.11375,320.205291748047
0.05666618, 228.688276789317, 0.000153710389284719, 1.1275,319.955444335938
0.0573328016666667, 228.698807619661, 0.000273068394044806, 1.14125,323.373474121094
0.057999505, 228.709827268385, 0.000461436432534169, 1.155,319.976409912109
0.0586673683333333, 228.720563368417, 0.000523045837940017, 1.16875,319.688323974609
0.05933294, 228.731721663477, 0.000405999217067924, 1.18125,319.688323974609
0.0599996466666667, 228.743086104087, 0.000369630543792173, 1.195,327.520965576172
0.0606674833333333, 228.754531690067, 0.000179881074736122, 1.2075,323.938842773438
0.06133347, 228.765669687541, 0.000184671834087783, 1.22125,319.649047851563
0.062000205, 228.776979486558, -5.89549287788217E-05, 1.235,317.292144775391
0.0626664633333333, 228.787913630867, -0.000174428128675594, 1.24875,317.292144775391
0.06333274, 228.798859989911, -0.00050406207149975, 1.26125,324.409240722656
0.0639994633333333, 228.809766550659, -0.000407532920068001, 1.275,323.8427734375
0.0646663683333333, 228.820527788304, -0.000754381498243921, 1.28875,332.248748779297
0.06533285, 228.830887179708, -0.000598062350005033, 1.3025,388.705108642578
0.0659996033333333, 228.840815013036, -0.000760259703000485, 1.315,388.705108642578
0.06666647, 228.850495482107, -0.000722124118501392, 1.3275,329.239227294922
0.0673328133333333, 228.860321471519, -0.000919283215406037, 1.34125,333.281005859375
0.0679997383333333, 228.869957912121, -0.000881725101887215, 1.35375,328.532958984375
0.0686663833333333, 228.879224944746, -0.000845912900692597, 1.36875,316.344879150391
0.0693328716666667, 228.888917251617, -0.00102150308095893, 1.3825,316.344879150391
0.069999465, 228.89788999772, -0.000976412345832952, 1.39375,328.727294921875
0.070666205, 228.906955892625, -0.000909521705710561, 1.4075,326.345611572266
0.0713330666666667, 228.915456407605, -0.000846098891361109, 1.42125,322.853271484375
0.071999865, 228.92435225952, -0.00100060763056896, 1.43375,321.673492431641
0.0726663466666667, 228.932544818516, -0.000568665326588361, 1.44625,321.673492431641
0.07333317, 228.940738245667, -0.000487843386185545, 1.46,333.636505126953
0.0739994433333333, 228.948378380201, -5.03393615612301E-05, 1.47375,316.189880371094
0.0746662116666667, 228.956171959215, 0.00017974608149732, 1.48625,319.212677001953
0.0753330033333333, 228.963972004365, 0.000295972243614561, 1.5,316.028594970703
0.0759996683333333, 228.971516614114, 0.000403539340664007, 1.5125,316.028594970703
0.0766672233333333, 228.979473063485, 0.000287592164549535, 1.525,321.715209960938
0.07733292, 228.987666367433, -0.000114759625723865, 1.53875,325.716094970703
0.0780010916666667, 228.995815190002, -0.000336299997969269, 1.5525,325.721130371094
0.07866737, 229.00324639646, -0.000243096179492149, 1.56625,320.490783691406
0.07933315, 229.011035817085, -0.000256127524939333, 1.58,320.490783691406
0.0799994933333333, 229.018264651655, -5.77039915502014E-05, 1.5925,324.972717285156
0.0806663533333333, 229.025471391092, -5.81704681246309E-05, 1.605,328.638549804688
0.0813327966666667, 229.032775679887, 9.01720807562155E-05, 1.61875,397.242889404297
0.0819997166666667, 229.040204045643, -0.000235338569224508, 1.6325,337.344360351563
0.0826667016666667, 229.047714654186, -0.000538219855801272, 1.64625,337.344360351563
0.083332865, 229.055271973298, -0.00081635238551597, 1.6575,328.41796875
0.0839995633333333, 229.063696801851, -0.00078114015421018, 1.67,327.580108642578
0.0846661266666667, 229.07344122943, -0.000723543047241923, 1.68375,321.501953125
0.0853329066666667, 229.083059006309, -0.000644452019919278, 1.69875,315.13037109375
0.086000155, 229.092595428097, -0.000636745407038839, 1.7125,315.13037109375
0.0866661733333333, 229.102056568102, -0.000490387258462314, 1.725,315.153259277344
0.0873328816666667, 229.110464021185, -0.000435238028524003, 1.73875,317.089050292969
0.0879995083333333, 229.117630045078, -0.000806973356649596, 1.75125,306.563385009766
0.088666845, 229.124997578671, -0.000927751790074617, 1.765,316.951782226563
0.0893331616666667, 229.132189529616, -0.00100621284902037, 1.7775,316.951782226563
0.089999505, 229.139256902557, -0.000942055071607051, 1.79125,309.250091552734
0.0906663116666667, 229.146383453251, -0.00105566536509742, 1.805,312.674621582031
0.0913328533333333, 229.153463387746, -0.000720738188140241, 1.81875,305.445007324219
0.0920002666666667, 229.160048459978, -0.00067120467616667, 1.8325,304.139495849609
0.0926669283333333, 229.167005645691, -0.000544885521060833, 1.845,304.139495849609
0.0933327533333333, 229.173793655274, -0.000579784268145089, 1.85875,313.638031005859
0.0939997066666667, 229.180648162377, -0.000508149366285029, 1.8725,308.268432617188
0.0946662183333333, 229.187707751335, -0.000676529408733415, 1.885,316.069580078125
0.09533301, 229.194527366791, -0.000268873884834915, 1.9,308.090270996094
0.0960005033333333, 229.201024442543, -1.49771377726056E-05, 1.9125,308.090270996094
0.0966661466666667, 229.208068323072, 8.28134503160784E-05, 1.925,310.727844238281
0.0973328933333333, 229.214956897836, 0.00012261545108224, 1.93875,314.758270263672
0.0979994883333333, 229.221181075346, 0.000393327853498776, 1.9525,370.562652587891
0.09866613, 229.228165401841, 0.000227476684040619, 1.96625,306.622680664063
0.0993328516666667, 229.235097975085, 0.000270158540149879, 1.98,306.622680664063
0.0999997233333333, 229.242140383338, 0.000210578532801705, 1.9925,302.541809082031
0.100666125, 229.248992066579, 0.000248832611328654, 2.00625,312.977508544922
0.10133308, 229.256062167296, 0.000112834442369521, 2.02,310.864868164063
0.101999608333333, 229.263064153038, 1.86751718987476E-05, 2.03375,308.425354003906
0.10266678, 229.269655007663, -6.58335833036457E-05, 2.04625,308.425354003906
0.103332781666667, 229.276703653285, -0.000223355671147742, 2.06,307.135192871094
0.103999553333333, 229.283426094575, -0.000182121242300166, 2.0725,311.178894042969
0.104666235, 229.290361380348, -9.75374908351015E-05, 2.08625,308.826263427734
0.105333085, 229.296947339178, -0.000122235250309964, 2.1,311.273681640625
0.1060002, 229.304237991681, -4.32432180191879E-05, 2.1125,311.273681640625
0.106666135, 229.311019387321, 0.000201952466070782, 2.12625,309.356323242188
0.107333098333333, 229.318320174431, -1.95414085393749E-05, 2.14,316.31982421875
0.10799978, 229.32499296742, -0.000128869417072041, 2.1525,309.396362304688
0.108666208333333, 229.332587343225, -4.62190685028415E-05, 2.16625,314.033294677734
0.109333548333333, 229.340107353096, -0.000233996136671051, 2.18,314.033294677734
0.10999981, 229.347943811488, -0.000358131401505678, 2.1925,314.709320068359
0.110666255, 229.356213719761, -0.000266187519739836, 2.20625,317.763305664063
0.11133281, 229.364885423084, -0.000285157066919715, 2.21875,318.010833740234
0.111999476666667, 229.373268386601, -0.00016324769030335, 2.2325,323.30126953125
0.112666936666667, 229.38203680664, -0.000349511334472369, 2.24625,323.30126953125
0.11333277, 229.390520269631, -0.000569406289392349, 2.25875,322.965667724609
0.11399982, 229.398686270306, -0.000701510653941748, 2.2725,318.091339111328
0.114666483333333, 229.406697671268, -0.000818527276325776, 2.285,384.333465576172
0.115333055, 229.414805086542, -0.000834771460439853, 2.29875,318.523773193359
0.11599983, 229.422850585403, -0.000859635711502224, 2.3125,318.523773193359
0.11666634, 229.430899547889, -0.0004878403864005, 2.325,315.737152099609
0.117333131666667, 229.439098447003, -7.62910580922659E-05, 2.33875,313.583557128906
0.117999476666667, 229.447598405644, 0.000435361742138304, 2.35125,316.412811279297
0.118666316666667, 229.45636443341, 0.000450399986819621, 2.365,312.445617675781
0.119333071666667, 229.465327660149, 0.000692565823062404, 2.37875,312.445617675781
0.119999755, 229.474392149454, 0.000523503314925519, 2.39125,311.636474609375
0.120666483333333, 229.483828144609, 0.000454868262382074, 2.40375,313.725921630859
0.12133275, 229.493998599866, -0.00019415213797909, 2.4175,306.939514160156
0.121999486666667, 229.504521690474, -0.000471555704285027, 2.43125,314.213836669922
0.122666188333333, 229.514678329431, -0.000313823627024475, 2.44375,314.213836669922
0.123333768333333, 229.525224267844, -0.000378582874251025, 2.4575,319.591674804688
0.12399984, 229.535795277325, -0.000452415165723177, 2.47,312.989654541016
0.124667941666667, 229.546243620182, -0.000162005752663657, 2.48375,320.106689453125
0.125332746666667, 229.55643656381, -0.000123696176912533, 2.4975,311.316955566406
0.125999475, 229.566906328652, -0.000166805511561738, 2.51,311.316955566406
0.126666801666667, 229.578156475948, -0.000595062500667165, 2.5225,319.342407226563
0.127332815, 229.589051730821, -0.00082969571528154, 2.53625,307.317565917969
0.127999476666667, 229.59979988618, -0.000823888007014438, 2.55,293.542877197266
0.12866616, 229.610229416333, -0.000721234663181482, 2.56375,294.236938476563
0.12933281, 229.620897561539, -0.000716703390772838, 2.5775,294.236938476563
0.129999563333333, 229.631255411609, -0.00038507904790424, 2.59,292.242706298828
0.130667525, 229.641886898514, -0.000248852890435811, 2.60375,289.088287353516
0.131333115, 229.652811913793, -0.000348455387479934, 2.61625,346.119689941406
0.1319999, 229.663903646167, -0.000650583711899992, 2.63,294.179901123047
0.132666383333333, 229.675219524418, -0.000970051165397285, 2.64375,294.179901123047
0.133332991666667, 229.685921138396, -0.00105262651772507, 2.65625,293.288513183594
0.133999683333333, 229.696500026918, -0.00111533536797355, 2.67,290.750823974609
0.134667028333333, 229.706944774507, -0.00122262047915017, 2.68375,293.492706298828
0.135333121666667, 229.71732586189, -0.000797841815352267, 2.6975,293.492706298828
0.13599952, 229.727856575601, -0.00075836229835406, 2.71125,298.934661865234
0.136666776666667, 229.738327956789, -0.00054732589851127, 2.72375,298.310302734375
0.137333411666667, 229.748900799402, -0.000346214500081401, 2.73625,291.76220703125
0.13799958, 229.759277412141, -1.75825069499087E-05, 2.75,297.595550537109
0.13866612, 229.769815264771, -0.000192901200856741, 2.76375,300.364349365234
0.139332761666667, 229.779662946143, 0.000283899349946075, 2.77625,300.364349365234
0.139999646666667, 229.790397212884, 0.000263171891068021, 2.79,295.268310546875
0.14066656, 229.801145556259, -6.27307499396768E-06, 2.80375,295.893981933594
0.141332981666667, 229.811897577727, -7.70650192118715E-05, 2.8175,295.283599853516
0.141999621666667, 229.822350128821, 0.000223179399775121, 2.83125,303.243865966797
0.14266615, 229.833424102286, 0.000189486592123626, 2.84375,303.243865966797
0.143333711666667, 229.844096756994, 0.000194100360374448, 2.8575,294.817413330078
0.143999636666667, 229.854607084011, 0.000537988087246985, 2.87,295.463165283203
0.144666301666667, 229.865481649255, 0.000394992769756425, 2.88375,296.491973876953
0.145332861666667, 229.87644198031, 4.93711299974189E-05, 2.89875,290.780395507813
0.145999563333333, 229.887008650179, -0.000615453976500143, 2.91125,290.780395507813
0.146666125, 229.897115000916, -0.000545903969921932, 2.92375,291.363403320313
0.147332755, 229.907294326408, -0.000541644183894041, 2.9375,286.222900390625
0.147999621666667, 229.917473791226, -0.000502281661020542, 2.95,344.493927001953
0.148666191666667, 229.927931011858, -0.000346169502391812, 2.96375,282.190490722656
0.149332811666667, 229.93840095922, 0.000129687595791321, 2.9775,282.190490722656
0.14999959, 229.949357280362, -0.000192341729011817, 2.99,288.026824951172
0.150666156666667, 229.959880731837, -0.000140354340289434, 3.00375,288.208831787109
0.15133349, 229.970135666827, -0.000379989803660092, 3.0175,283.403869628906
0.151999655, 229.980418311028, -9.06348376686041E-05, 3.03,274.2216796875
0.152666218333333, 229.990229613161, 4.74347272527475E-05, 3.04375,274.2216796875
0.153332801666667, 229.999880375329, 0.000584820234945207, 3.05625,270.706420898438
0.153999456666667, 230.010285100413, 0.000423600832830712, 3.07,274.405944824219
0.154666668333333, 230.020535160054, 0.000743977240686411, 3.08375,281.803070068359
0.155332826666667, 230.030731220857, 0.000440501983960941, 3.09625,271.116271972656
0.155999465, 230.041334853169, 0.000396048716791367, 3.10875,271.116271972656
0.156666125, 230.051659784482, 0.000345276267069418, 3.1225,277.565979003906
0.157333091666667, 230.062194883061, 0.000450554479054411, 3.135,270.588592529297
0.158000308333333, 230.072841983852, 0.000286503219113958, 3.14875,277.848541259766
0.158666233333333, 230.083381116566, 0.000239131098566801, 3.1625,273.148406982422
0.159332966666667, 230.09414979825, -8.0981322530163E-05, 3.175,273.148406982422
0.159999496666667, 230.105117873597, -0.000466988433796976, 3.18875,276.625366210938
