Time (min), Depth (µm), Load (N), Position (µm), Acoustic (aJ)
8.14666666666667E-06, 227.724980678153, -3.91601920811198E-05, 0,313.623840332031
0.000664611666666667, 227.724802767999, 5.93308608101561E-05, 0.00499999999999999,317.922790527344
0.001331065, 227.725353584671, -0.000254586871459902, 0.01625,304.524444580078
0.00199775, 227.725004004498, -4.04845575285579E-06, 0.035,316.588043212891
0.00283112666666667, 227.724605712174, 0.00025081874254714, 0.05,327.325164794922
0.00349789833333333, 227.724437665503, 0.000232794147911347, 0.065,327.325164794922
0.00416439166666667, 227.724639161247, 0.000140322292713049, 0.07875,338.589080810547
0.00483103333333333, 227.725119946539, 0.000295356005525804, 0.0925,333.702056884766
0.00549798666666667, 227.726682858367, 0.000459650253177076, 0.10625,340.627166748047
0.00616452166666667, 227.729333563818, 0.000151754718448803, 0.12,338.262329101563
0.00683104833333333, 227.733621012158, 9.30491671765068E-05, 0.13375,338.262329101563
0.007498015, 227.739674434401, -5.38504542158647E-05, 0.14625,338.906433105469
0.00816439666666667, 227.747546231171, 0.000122345695636906, 0.16,337.586486816406
0.00883105666666667, 227.756918627486, -6.178655557251E-05, 0.1725,344.512969970703
0.00949820833333333, 227.76762585853, -0.000132848486225508, 0.18625,345.078430175781
0.010164485, 227.779122558272, -9.84072161692629E-05, 0.2,345.078430175781
0.010831065, 227.791105331489, 6.12747631768438E-05, 0.2125,343.188415527344
0.0114980216666667, 227.802774272303, -0.000253209940602662, 0.22625,343.802093505859
0.0121645166666667, 227.814587586164, -7.98351490412639E-05, 0.24,346.443206787109
0.0128311133333333, 227.826268146573, -0.000279238133235756, 0.25375,407.880554199219
0.0134984, 227.837939152401, -7.81942314677966E-05, 0.2675,407.880554199219
0.01416472, 227.849076514911, -3.02100732408317E-06, 0.28,343.675842285156
0.0148310883333333, 227.86076423397, -0.000234138398542108, 0.29375,347.799255371094
0.015498095, 227.872007772363, -0.000439482584318101, 0.3075,342.184967041016
0.01616459, 227.883757839167, -0.000464798312732122, 0.32125,346.212738037109
0.01683113, 227.895966297123, -0.000775350214024901, 0.33375,346.212738037109
0.017498, 227.908342219675, -0.000901376883829594, 0.34625,348.418731689453
0.018164615, 227.919733463447, -0.000467573173345739, 0.36,350.062713623047
0.0188311316666667, 227.932609835728, -0.000699424027703228, 0.37375,348.168365478516
0.0194979283333333, 227.944690223537, -0.000762123878362785, 0.3875,348.168365478516
0.02016497, 227.956918783265, -0.000883785767410104, 0.40125,345.878143310547
0.02083106, 227.969168402013, -0.00104480867940652, 0.41375,352.184448242188
0.0214979183333333, 227.981749074424, -0.0012787399292939, 0.4275,342.786407470703
0.022164635, 227.993693584503, -0.00135566056568622, 0.44125,348.561920166016
0.0228310583333333, 228.011501317287, -0.000723724307189973, 0.4575,345.249450683594
0.0236643933333333, 228.023726572221, -0.000651721923808608, 0.47125,350.369049072266
0.0243310916666667, 228.036141494831, -0.000673490330392556, 0.485,350.369049072266
0.02499772, 228.049176262876, -0.000865033709353714, 0.4975,345.997772216797
0.0256644983333333, 228.062166509618, -0.000811289908836304, 0.51,344.577972412109
0.0263313083333333, 228.075447412802, -0.00112107234878269, 0.52375,344.700653076172
0.0269977783333333, 228.088316799133, -0.0011102158941028, 0.5375,344.702331542969
0.02766442, 228.100680452203, -0.0011191509453033, 0.55125,344.702331542969
0.0283310883333333, 228.113088615532, -0.000785156721452474, 0.56375,343.054412841797
0.0289979883333333, 228.125238956743, -0.000707774108301443, 0.57625,346.887481689453
0.0296643816666667, 228.137159981783, -0.00069077546212751, 0.59125,409.903564453125
0.0304977366666667, 228.149142258054, -0.000802726838930319, 0.60625,341.323638916016
0.031164625, 228.161139126645, -0.000566779690347402, 0.62,336.035827636719
0.0318312016666667, 228.173254823729, -0.000888959007612121, 0.63375,336.035827636719
0.032497725, 228.185031958222, -0.00107719205286268, 0.64625,339.989685058594
0.0331644216666667, 228.196930742852, -0.00112602809990372, 0.66,343.626831054688
0.0338312683333333, 228.209224536855, -0.00130500361014332, 0.6725,346.352416992188
0.0344978983333333, 228.221047103065, -0.00151023230169775, 0.685,338.950073242188
0.0351646566666667, 228.233206267579, -0.00128076332769647, 0.7,338.950073242188
0.03583114, 228.245767503475, -0.00154385911267551, 0.7125,342.009216308594
0.0364977383333333, 228.258141609638, -0.0015898423029702, 0.725,345.411560058594
0.0371645966666667, 228.270179835708, -0.00145668799118974, 0.73875,344.310546875
0.037831065, 228.282535269343, -0.00140100628804576, 0.75125,339.338623046875
0.03849772, 228.29441775882, -0.00149433760009716, 0.765,339.338623046875
0.039164555, 228.306154150662, -0.00117440067017663, 0.77875,341.418365478516
0.039831075, 228.317712000559, -0.00117556611162925, 0.79125,346.688201904297
0.04049776, 228.329152331914, -0.000833550290730792, 0.805,348.428009033203
0.04116499, 228.340270866065, -0.00086212385552255, 0.8175,346.160919189453
0.0418311066666667, 228.351549549187, -0.000855623182032363, 0.83,346.160919189453
0.04249773, 228.361035898307, -0.000791609397425519, 0.84375,345.182067871094
0.0431644083333333, 228.370126836889, -0.000647937613901565, 0.8575,360.859069824219
0.04383273, 228.37980940227, -0.000927187587530486, 0.87125,356.961090087891
0.0444977633333333, 228.389922203785, -0.000912735813418367, 0.885,360.638763427734
0.0451643966666667, 228.399551167404, -0.000708908051490371, 0.8975,360.638763427734
0.0458310616666667, 228.411811856383, -0.000961690354487265, 0.91,430.283508300781
0.04649785, 228.423856745741, -0.000789651995802964, 0.92375,362.845916748047
0.0471645283333333, 228.435593853184, -0.000448959108419466, 0.9375,364.47021484375
0.0478313133333333, 228.44716291266, -7.30134917712884E-05, 0.95125,365.312866210938
0.0484979283333333, 228.459203831077, -9.28664945947188E-05, 0.965,365.312866210938
0.049164405, 228.470447985676, 0.000322123660889704, 0.9775,359.61279296875
0.0498310916666667, 228.482739230626, -0.000136941780750909, 0.99125,362.974761962891
0.0504980416666667, 228.494174740771, 6.39161303910463E-05, 1.005,357.980743408203
0.051164485, 228.506240823632, 8.08097818354966E-05, 1.01875,354.998779296875
0.051831065, 228.517757246579, 0.000193011646098665, 1.03125,354.998779296875
0.0524977233333333, 228.529601225912, 4.25347044094094E-05, 1.04375,357.553802490234
0.0531649816666667, 228.540956248892, 0.000320892222805851, 1.0575,354.057708740234
0.0538311516666667, 228.552832921443, 0.000173296636362843, 1.07125,361.5849609375
0.054497955, 228.564282516556, -0.000226367288976091, 1.085,358.544372558594
0.055164645, 228.575457530471, -0.000402180958084777, 1.09875,358.544372558594
0.0558311516666667, 228.587024208088, -0.000227532730492472, 1.11125,354.791748046875
0.0564977316666667, 228.598166672291, -0.000107946737180581, 1.125,355.694152832031
0.0571647166666667, 228.608731325037, -1.89682064488238E-05, 1.13875,350.279052734375
0.0578311183333333, 228.61890713595, 0.000527931323370066, 1.15125,357.586090087891
0.058497735, 228.629668412127, 0.000448826796727791, 1.165,357.586090087891
0.0591648116666667, 228.639304523062, 0.000584937460059676, 1.17875,359.338958740234
0.0598314033333333, 228.649461924862, 0.000408958799287886, 1.19125,359.891571044922
0.0604977333333333, 228.659701601215, 0.000405810457412842, 1.205,352.589263916016
0.0611652233333333, 228.670172943199, 2.95513565218752E-05, 1.21875,360.430328369141
0.0618311183333333, 228.679845030544, 0.000200022293928468, 1.2325,360.430328369141
0.0624980233333333, 228.689705345232, -8.46873377691239E-06, 1.245,437.508941650391
0.0631648333333333, 228.699152626352, 0.00013765542657145, 1.25875,359.848937988281
0.0638310516666667, 228.708980958652, -0.000143088471975656, 1.2725,361.806427001953
0.0644978183333333, 228.71887219083, -5.65578183376058E-05, 1.285,359.561737060547
0.065165065, 228.728658657061, 0.000105069563299592, 1.3,359.561737060547
0.0658312066666667, 228.738306134621, -0.000140516101198987, 1.31125,357.339111328125
0.0664977433333333, 228.747584669307, 0.000260530754631038, 1.325,365.404724121094
0.0671643983333333, 228.756716684997, 0.000168901857011134, 1.3375,360.626190185547
0.06783129, 228.765501155682, 5.13497615513801E-05, 1.35125,361.333526611328
0.0684977433333333, 228.77480107725, -0.00031231597190317, 1.365,361.333526611328
0.0691648133333333, 228.783206858659, -0.000440643526125034, 1.3775,365.673950195313
0.0698311166666667, 228.792328290344, -0.00127542059614315, 1.39125,357.43017578125
0.0704977283333333, 228.800850071478, -0.00124622006282331, 1.405,364.241394042969
0.07116453, 228.809387529578, -0.00129627254872542, 1.4175,354.394866943359
0.071831155, 228.817488139143, -0.00122515962066397, 1.43125,354.394866943359
0.07249773, 228.825981483666, -0.00112138433318609, 1.44375,359.147827148438
0.0731645983333333, 228.833801175792, -0.000688891556843223, 1.4575,354.414733886719
0.073831485, 228.841621139146, -0.000662861864285726, 1.47,358.630065917969
0.0744980083333333, 228.848768948736, -0.000583946328118262, 1.48375,355.852874755859
0.075165175, 228.85646088181, -0.000602740384142959, 1.4975,355.852874755859
0.075831455, 228.863684175707, -0.000162260508992483, 1.51,356.864379882813
0.0764983483333333, 228.871135959865, -0.000170676586285696, 1.52375,362.575836181641
0.07716457, 228.878407018014, -7.38129516482576E-05, 1.53625,361.532562255859
0.077831815, 228.885964132059, -0.000198462690638219, 1.55,368.388275146484
0.0784988916666667, 228.89299356857, 4.59770314462385E-05, 1.56375,368.388275146484
0.079164915, 228.90041972804, -1.99641564013656E-05, 1.57625,440.186553955078
0.07983126, 228.906871695426, -2.8131246179875E-05, 1.59,360.703582763672
0.0804978683333333, 228.913849924374, -2.69403060336555E-05, 1.6025,365.005798339844
0.0811649516666667, 228.920367189201, 0.000571022658905178, 1.615,365.005798339844
0.0818313033333333, 228.927267747091, 0.000450268224270608, 1.62875,361.518493652344
0.08249792, 228.93452648899, 0.000281159218455969, 1.6425,363.813262939453
0.0831645916666667, 228.942051923966, 0.000209489818355889, 1.655,363.666137695313
0.083831195, 228.949969917047, 2.53710664661021E-05, 1.6675,364.352874755859
0.0844982766666667, 228.959184910924, -0.000731025940481532, 1.68,364.352874755859
0.0851647333333333, 228.968887709815, -0.000817505596689872, 1.695,365.736968994141
0.0858315216666667, 228.978198345298, -0.00102039740566271, 1.70875,359.486968994141
0.086497875, 228.988245249413, -0.00149597551786433, 1.7225,357.798492431641
0.0871649766666667, 228.997345013078, -0.00157944632523089, 1.735,360.796997070313
0.087831465, 229.005842305065, -0.00147309116731182, 1.74875,357.727630615234
0.08849849, 229.013086333313, -0.00138908638679393, 1.7625,357.727630615234
0.089164655, 229.021223924031, -0.00149685897346537, 1.775,358.182067871094
0.0898315016666667, 229.028721120823, -0.00126178478103393, 1.78875,360.095428466797
0.09049831, 229.036503328077, -0.00123403167503953, 1.8025,354.610412597656
0.0911648033333333, 229.044271168871, -0.00105082487735696, 1.815,358.873687744141
0.0918314083333333, 229.052044564015, -0.00131519859816137, 1.82875,358.873687744141
0.0924978866666667, 229.059382587837, -0.000989041480720335, 1.8425,358.234710693359
0.093164815, 229.066402552644, -0.000841415895810517, 1.855,356.399200439453
0.09383149, 229.073946970461, -0.000990190423025772, 1.87,359.435211181641
0.0944979, 229.081032911427, -0.00125824345900774, 1.88375,362.466094970703
0.095165405, 229.088362280727, -0.00106556613698518, 1.89625,362.466094970703
0.0958312766666667, 229.095224007225, -0.0010702204032374, 1.90875,426.856964111328
0.0964978633333333, 229.103106729488, -0.00122792548185869, 1.9225,356.349548339844
0.097164955, 229.110293832588, -0.001048454996481, 1.935,360.220733642578
0.0978314583333333, 229.117883627676, -0.000899386483997692, 1.95,359.995666503906
0.09849815, 229.124909100976, -0.000840781427660414, 1.96375,359.995666503906
0.099165005, 229.132727110489, -0.000998063527536226, 1.97625,354.708068847656
0.0998314783333333, 229.139879397212, -0.000994640699452877, 1.99,351.60595703125
0.100497863333333, 229.147512504133, -0.00123770499058324, 2.0025,358.791198730469
0.10116484, 229.155263995357, -0.00115811748817685, 2.01625,361.548614501953
0.101831376666667, 229.1635171822, -0.00112716054314699, 2.03,361.548614501953
0.102497873333333, 229.171416067796, -0.00102080388534603, 2.04375,357.346954345703
0.103164566666667, 229.179967541026, -0.00118002688769721, 2.05625,361.091827392578
0.103831245, 229.188285695402, -0.00123027436383551, 2.07,357.332397460938
0.10449787, 229.196620716911, -0.00144400912816861, 2.08375,353.772491455078
0.105164751666667, 229.204918481232, -0.00156105874891076, 2.0975,353.772491455078
0.10583127, 229.213396265815, -0.00140692349090058, 2.10875,358.341796875
0.10649787, 229.221811480768, -0.00152832889285368, 2.12375,359.135772705078
0.107164836666667, 229.230137827002, -0.00119921542390373, 2.13625,356.774047851563
0.10783146, 229.239019380543, -0.00127035835045325, 2.15,364.429138183594
0.108498675, 229.248339114574, -0.00129065833081261, 2.16375,364.429138183594
0.109164611666667, 229.256749613627, -0.00151465857952569, 2.17625,360.133178710938
0.1098315, 229.265733078007, -0.00101434820960919, 2.19,364.205230712891
0.110497871666667, 229.274257023826, -0.00110408420224961, 2.2025,362.296356201172
0.11116505, 229.282396399339, -0.000860761924100629, 2.21625,360.01611328125
0.111831295, 229.290142479392, -0.000553359864586045, 2.22875,360.01611328125
0.11249894, 229.299047659079, -0.000626839673738414, 2.2425,438.713043212891
0.113164546666667, 229.307101194822, -0.000894615223642019, 2.25625,362.218902587891
0.113831195, 229.315769658392, -0.00105675107971568, 2.27,363.916351318359
0.114498306666667, 229.324186399584, -0.00136046032469057, 2.2825,367.174133300781
0.115164546666667, 229.333111257386, -0.00174640143926239, 2.295,367.174133300781
0.115831921666667, 229.341014915266, -0.00145523606419735, 2.30875,359.358215332031
0.116497936666667, 229.349867390151, -0.00129759098253094, 2.32125,361.189971923828
0.117164835, 229.35855375399, -0.000988215022161599, 2.335,356.048004150391
0.11783147, 229.367654193842, -0.000373929877060973, 2.34875,360.618499755859
0.118498286666667, 229.376554713331, -0.000275873802331658, 2.3625,360.618499755859
0.119164718333333, 229.385917603269, -0.00047098700198894, 2.375,365.910552978516
0.119831281666667, 229.394073016883, -0.000485755260213908, 2.38875,359.035461425781
0.12049788, 229.402216495694, -9.33089723999504E-05, 2.40125,358.171142578125
0.121165156666667, 229.410278848804, -0.000352069975109681, 2.41375,361.606201171875
0.121831196666667, 229.418681904867, -8.36914555109498E-05, 2.4275,361.606201171875
0.122497928333333, 229.426914331329, -0.000149607144643698, 2.44125,359.013336181641
0.123164606666667, 229.435447326739, -0.000287634711639251, 2.455,356.625915527344
0.1238313, 229.444715460856, -0.000823925274326045, 2.4675,355.494018554688
0.124498315, 229.453879578574, -0.00102508317034865, 2.48125,360.246215820313
0.125164838333333, 229.46303111107, -0.00142759395263005, 2.49375,360.246215820313
0.12583139, 229.472508474162, -0.00149355763936496, 2.50625,363.407135009766
0.126497993333333, 229.482903460333, -0.00140418312854823, 2.51875,364.199645996094
0.12716508, 229.493560115858, -0.00128455813720186, 2.53375,352.051696777344
0.127831386666667, 229.504439660479, -0.00123517161786231, 2.5475,416.035736083984
0.128497858333333, 229.515776162658, -0.00125312721597556, 2.56,416.035736083984
0.129164711666667, 229.527667025171, -0.0011316273188063, 2.57375,345.746490478516
0.129831301666667, 229.538467733104, -0.00103204432075816, 2.58625,341.986053466797
0.130498291666667, 229.549127536139, -0.000834006267983177, 2.6,348.887084960938
0.131165018333333, 229.559629531031, -0.000575011277002776, 2.61375,350.106079101563
0.13183121, 229.56983358005, -0.00051237892296262, 2.6275,350.106079101563
0.132498191666667, 229.580295740268, -0.000485971249391739, 2.64,350.070098876953
0.133164973333333, 229.591028450667, -0.000455206294685502, 2.65375,344.786071777344
0.133831478333333, 229.602276290529, -0.000952228829778711, 2.66625,350.255401611328
0.134497865, 229.61286407204, -0.00104772603305099, 2.68,344.591918945313
0.135164556666667, 229.623515274669, -0.00106140084617344, 2.695,344.591918945313
0.135831193333333, 229.633746400775, -0.00138039432345303, 2.7075,350.664611816406
0.136500785, 229.643867107505, -0.00169865883734512, 2.72,347.875518798828
0.137167298333333, 229.653343432811, -0.00132261272574067, 2.735,355.699005126953
0.137834, 229.663744983574, -0.00130492111440741, 2.7475,355.242309570313
0.138500583333333, 229.673700242033, -0.00104503666812835, 2.76125,355.242309570313
0.13916726, 229.684132434342, -0.000761495410144091, 2.77375,350.924407958984
0.139834598333333, 229.694747665346, -0.000468504626782737, 2.7875,352.499481201172
0.140500716666667, 229.705272293915, -0.000588431102997929, 2.80125,354.544189453125
0.141167263333333, 229.71601464415, -0.000822605340638637, 2.815,354.170562744141
0.141834131666667, 229.72656639617, -0.000919167490386004, 2.82875,354.170562744141
0.142500641666667, 229.736454797101, -0.000724124787175676, 2.84125,351.150360107422
0.143167465, 229.74684613409, -0.000850095959756194, 2.85375,355.457885742188
0.14383395, 229.75715014976, -0.00108668507611123, 2.8675,354.436492919922
0.144500638333333, 229.767063334234, -0.000803152817630877, 2.88125,413.417297363281
0.145167468333333, 229.777011942222, -0.000879866464391785, 2.895,413.417297363281
0.145834346666667, 229.787271051387, -0.000988931986132627, 2.9075,352.672393798828
0.146500733333333, 229.797101105504, -0.000597313656738046, 2.92125,347.999237060547
0.147167451666667, 229.807311914941, -0.000340012080727735, 2.935,352.556427001953
0.147834386666667, 229.817637349526, -0.00043419085025826, 2.94875,344.065673828125
0.148500721666667, 229.828334085909, -0.00046992955511461, 2.96125,344.065673828125
0.149167523333333, 229.838785387804, -0.000870254947179143, 2.97375,349.889862060547
0.149835203333333, 229.849310787684, -0.000920632916740528, 2.9875,341.198303222656
0.15050065, 229.859580037687, -0.00102562614304639, 3.00125,339.631805419922
0.151167263333333, 229.869888006065, -0.000788572050020078, 3.01375,341.461364746094
0.15183418, 229.88044125854, -0.000842501841206, 3.0275,341.461364746094
0.152500635, 229.890981449644, -0.000544187825202303, 3.04,346.325500488281
0.153167701666667, 229.901529347507, -0.000718584065431099, 3.05375,344.333160400391
0.153833943333333, 229.911849119156, -0.000916376130582697, 3.06625,339.838104248047
0.154500603333333, 229.922283751613, -0.00114985290324837, 3.08,338.814483642578
0.155167736666667, 229.932568090275, -0.000782161371994087, 3.09375,338.814483642578
0.155833931666667, 229.942598534423, -0.000592890378907691, 3.10625,341.478912353516
0.156500576666667, 229.953100903135, -0.000655489734589722, 3.12,339.360961914063
0.157167345, 229.963616791276, -0.000516190231445158, 3.1325,337.974182128906
0.157834385, 229.973666444068, -0.000364819334662782, 3.14625,342.281921386719
0.158500588333333, 229.983539461818, -0.000601040969496511, 3.16,342.281921386719
0.159167253333333, 229.994283924182, -0.000756113680365005, 3.1725,344.013671875
0.15983393, 230.004592700089, -0.000651963411765057, 3.185,347.629486083984
0.160500683333333, 230.015036308513, -0.000368489650357685, 3.19875,342.414215087891
0.16116727, 230.024954036324, -0.000605494245899947, 3.2125,412.908721923828
