Time (min), Depth (µm), Load (N), Position (µm), Acoustic (aJ)
8.22E-06, 228.015975184783, -0.000155073856635519, 0,159.444320678711
0.000666566666666667, 228.016380153439, -0.000135229853379762, 0.00499999999999999,154.614730834961
0.00133180833333333, 228.017185653642, 4.08748010631555E-05, 0.01625,154.614730834961
0.001998385, 228.017646711228, 0.000231498726237592, 0.03125,162.499649047852
0.00266528333333333, 228.018415533068, 2.63495306552772E-05, 0.04625,162.202453613281
0.00333195666666667, 228.018811333252, -0.000225465320973991, 0.06,171.765411376953
0.003998465, 228.018983421507, -0.000350991015985487, 0.075,184.721618652344
0.00466496833333333, 228.019207093255, -0.000469122082371169, 0.08875,184.721618652344
0.00533176, 228.020303099429, -0.000719063528080702, 0.1025,194.363357543945
0.00599838166666667, 228.023496614826, -0.00102653158429028, 0.1175,193.372772216797
0.00683201333333333, 228.028260701863, -0.00112646256486374, 0.13375,197.611572265625
0.00749849, 228.035220458867, -0.00123262723234109, 0.145,189.872955322266
0.00816505333333333, 228.043771287549, -0.00151521003848289, 0.15875,199.283020019531
0.00883174666666667, 228.053138569903, -0.00153752591755905, 0.1725,236.97998046875
0.00949842, 228.062353111299, -0.00125050933407356, 0.18625,236.97998046875
0.0101651633333333, 228.072075961036, -0.00123415415557489, 0.2,201.535339355469
0.0108317783333333, 228.081604104874, -0.00105618809460747, 0.2125,201.033203125
0.0114985033333333, 228.091516579525, -0.000663284329765497, 0.22625,196.841949462891
0.0121649683333333, 228.102361868847, -0.000643323332385032, 0.24,196.841949462891
0.012831855, 228.113474791852, -0.000635868706804341, 0.25375,199.285949707031
0.0134998133333333, 228.124777687049, -0.000611575927003374, 0.2675,200.622024536133
0.0141650766666667, 228.136198807096, -0.000405889758378422, 0.28,197.404098510742
0.01483175, 228.147511188629, -0.000449797052958939, 0.29375,199.852554321289
0.0154984133333333, 228.158344500459, -0.00033835415065636, 0.3075,199.852554321289
0.016165065, 228.16936084166, 7.48047843167079E-06, 0.32,202.340148925781
0.0168324233333333, 228.1805054423, 0.000283582110121784, 0.33375,204.278305053711
0.0174984733333333, 228.192304872848, -2.30429884031341E-05, 0.34625,200.42707824707
0.0181650666666667, 228.203958443396, -0.000202375480735723, 0.36,196.699813842773
0.018831755, 228.216101382303, -0.000159741622186113, 0.37375,196.699813842773
0.0194983866666667, 228.228152893649, -0.000325115815620272, 0.3875,198.200546264648
0.0201652283333333, 228.240146181823, -0.000367310196234711, 0.40125,203.390167236328
0.0208318816666667, 228.251771073883, -8.54233551435435E-05, 0.41375,198.786697387695
0.0214983983333333, 228.26386127013, 9.49065870872449E-05, 0.4275,203.347137451172
0.02216496, 228.275787780571, -0.000243831898416235, 0.44125,203.347137451172
0.0228317633333333, 228.287950438995, -0.000447671659739457, 0.45375,205.65998840332
0.023498485, 228.299716744124, -0.000556792678725728, 0.4675,195.680877685547
0.0241665466666667, 228.312150225969, -0.000881529367565591, 0.48,194.110565185547
0.0248318166666667, 228.324565708099, -0.00128613554464217, 0.49375,234.966903686523
0.0254986316666667, 228.33659733326, -0.000900507914313144, 0.5075,194.324417114258
0.02616508, 228.348155033548, -0.000716635150068, 0.52,194.324417114258
0.0268320116666667, 228.360814480669, -0.000889916946295142, 0.53375,184.926071166992
0.0274985766666667, 228.372590199067, -0.000755609192414784, 0.54625,186.441207885742
0.028165065, 228.38466902477, -0.000380179549846344, 0.56,185.289932250977
0.0288317966666667, 228.396573785044, -0.000623458330230138, 0.57375,188.493057250977
0.02949847, 228.409352188894, -0.000622957355415688, 0.58625,188.493057250977
0.0301657183333333, 228.421090824618, -0.00012885067387251, 0.6,179.958099365234
0.0308317016666667, 228.4331300518, 4.31263749687546E-06, 0.6125,184.882232666016
0.0314983816666667, 228.44517961852, -0.000104115416287566, 0.62625,184.332809448242
0.0321651166666667, 228.457367655356, -0.000200190090540111, 0.64,184.332809448242
0.03283172, 228.468881718368, -0.000230881548929335, 0.6525,188.440994262695
0.033498615, 228.481215868044, -0.000617481130420451, 0.66625,180.840347290039
0.03416507, 228.49291298184, -0.000794193254352959, 0.67875,178.284591674805
0.0348319583333333, 228.504460163892, -0.00056594521900721, 0.6925,178.909851074219
0.0354986433333333, 228.515747327382, -0.000235705306617868, 0.705,178.909851074219
0.0361650633333333, 228.527963471553, -0.000209575119104099, 0.71875,175.64436340332
0.0368318283333333, 228.539412784189, -0.000165963309694786, 0.73125,182.569702148438
0.0374988016666667, 228.551589582664, -0.000226864750676025, 0.745,180.523880004883
0.0381651416666667, 228.562822420052, -0.000337302703522152, 0.75875,184.962677001953
0.0388318283333333, 228.574696335243, -0.000716915635973917, 0.77125,184.962677001953
0.03949854, 228.58537390391, -0.000824151249623973, 0.785,181.328231811523
0.0401650583333333, 228.596318731477, -0.000486206224257341, 0.79875,187.262573242188
0.0408317916666667, 228.60681018587, -6.54263595986545E-05, 0.81125,188.435073852539
0.041498525, 228.618090291913, -0.00028277294248991, 0.82375,232.8896484375
0.0421654966666667, 228.62848098683, -0.000231355525147035, 0.83625,200.158279418945
0.04283173, 228.637534280847, -1.94504819747521E-06, 0.85,200.158279418945
0.0434983983333333, 228.64673743386, -0.000239500116038241, 0.865,198.580596923828
0.0441653083333333, 228.65627475937, -0.00032615226357421, 0.8775,207.880889892578
0.04483267, 228.665866144412, -0.000170778067836899, 0.89,209.329483032227
0.0454984916666667, 228.67606455318, -8.57218400997918E-05, 0.90375,209.329483032227
0.0461656383333333, 228.687999359346, -3.03836196866697E-05, 0.9175,211.968246459961
0.046831835, 228.699802584561, -5.12070737477867E-05, 0.93125,216.822021484375
0.0474984966666667, 228.711377363726, -9.66307921550466E-05, 0.94375,208.600860595703
0.04816657, 228.72256440519, -4.2909490567448E-05, 0.9575,209.42724609375
0.0488318716666667, 228.733437434245, 3.09319880824822E-06, 0.97125,209.42724609375
0.04949839, 228.744220392538, -0.000227266730479861, 0.985,213.257400512695
0.050165035, 228.755115076289, -0.000167517231610356, 0.99875,206.421859741211
0.0508318366666667, 228.76604011636, -0.000357394194283192, 1.01125,210.574691772461
0.051498375, 228.77667429813, -0.000486963686123494, 1.02375,206.7216796875
0.0521650066666667, 228.787659019731, -0.000308649642694512, 1.0375,206.7216796875
0.0528322166666667, 228.798950341966, -0.000294230866919265, 1.05125,205.609283447266
0.0534985133333333, 228.80966018609, -0.000239590111481183, 1.065,212.77880859375
0.0541650683333333, 228.820714881595, -0.000311259511602517, 1.0775,212.206878662109
0.0548317333333333, 228.831724866162, -0.000248027187694787, 1.09125,205.482666015625
0.0554984016666667, 228.842601764178, -0.000320176563688926, 1.105,205.482666015625
0.05616501, 228.853184173057, -0.000226032292462184, 1.1175,206.475616455078
0.0568318433333333, 228.863639044804, -0.00019258397248842, 1.13125,204.416137695313
0.0574987016666667, 228.873107362678, 0.000232797661004609, 1.145,211.70671081543
0.0581656883333333, 228.882761252771, 0.000394744526624717, 1.1575,250.610733032227
0.058831745, 228.89243911658, 0.000406313445502422, 1.17125,205.444000244141
0.0594983883333333, 228.901952184431, 0.000520357217209094, 1.185,205.444000244141
0.0601654366666667, 228.911507121466, 0.000234296085717258, 1.19875,204.929962158203
0.0608318233333333, 228.921737958831, -3.52268764136991E-05, 1.21125,212.578979492188
0.061499095, 228.931425421661, -0.000120875574353855, 1.225,205.044830322266
0.0621650583333333, 228.940977876291, -0.000381514482714022, 1.2375,205.044830322266
0.0628318816666667, 228.950106101079, -0.000625343735417574, 1.25125,211.704513549805
0.0634984466666667, 228.959406398798, -0.000648376578528518, 1.265,203.885726928711
0.0641650566666667, 228.968037909519, -0.000683221328313002, 1.27875,207.099899291992
0.06483237, 228.97658349189, -0.000506456707026381, 1.29125,208.306747436523
0.0654983733333333, 228.984638790253, -0.000340515542104028, 1.305,208.306747436523
0.0661650683333333, 228.992949426266, -0.000499420560460469, 1.31875,210.521560668945
0.06683186, 229.000565302995, -0.000356684729912926, 1.33125,213.794586181641
0.0674985033333333, 229.007956884066, -0.000258045184463219, 1.34375,216.57341003418
0.068165215, 229.015715662991, -0.000523816835024006, 1.3575,205.910247802734
0.0688319483333333, 229.023476015288, -0.000654160288026423, 1.37125,205.910247802734
0.0694984066666667, 229.030769508546, -0.000576750676236132, 1.38375,207.738327026367
0.0701650366666667, 229.038417279322, -0.000838709518304961, 1.3975,209.647613525391
0.0708318966666667, 229.045822961855, -0.00111478715120462, 1.41,205.554595947266
0.0714990833333333, 229.053195050165, -0.00105232578856769, 1.42375,210.11994934082
0.0721650266666667, 229.060047543286, -0.00112215928090063, 1.4375,210.11994934082
0.0728334083333333, 229.067039992075, -0.00103747203467299, 1.45,203.891937255859
0.0734984983333333, 229.073196300946, -0.000794010263490745, 1.46375,201.588729858398
0.0741653383333333, 229.079812563833, -0.000444391324516926, 1.4775,208.822357177734
0.0748318933333333, 229.086128248435, -0.000308693140459699, 1.49,240.370498657227
0.0754984933333333, 229.092911635144, -9.42684108160877E-05, 1.50375,200.628875732422
0.07616502, 229.099204565745, -0.000130445093683206, 1.51625,200.628875732422
0.07683174, 229.106214577903, -0.000134853372248274, 1.53,201.204971313477
0.0774984983333333, 229.112909890178, -0.000143965414549614, 1.5425,208.221328735352
0.0781651033333333, 229.119869548059, -0.00035130450014326, 1.55625,206.424957275391
0.078832535, 229.126593260477, -0.000439405574907825, 1.57,206.424957275391
0.07949842, 229.133556503841, -0.000532433902208509, 1.5825,205.507263183594
0.080165055, 229.140554117967, -0.000596603679038309, 1.59625,206.66943359375
0.0808317283333333, 229.147787917482, -0.000592402390062144, 1.60875,209.411407470703
0.081498385, 229.154477646773, -0.000374784320768883, 1.62125,210.282989501953
0.082165175, 229.161559268752, -0.000307181216406165, 1.635,210.282989501953
0.0828317466666667, 229.168345222541, -0.000371271497242592, 1.64875,209.545776367188
0.08349841, 229.175425908648, -0.00049055150593371, 1.6625,209.425659179688
0.084165125, 229.182313656149, -0.000646165689596796, 1.67375,210.4658203125
0.08483244, 229.192458517235, -0.00111548161635211, 1.6875,209.147705078125
0.0854984183333333, 229.201600734901, -0.00112767450390909, 1.70125,209.147705078125
0.0861654733333333, 229.210827431613, -0.00114266925076146, 1.715,210.03044128418
0.08683184, 229.219172292024, -0.0010855281208543, 1.72875,204.903396606445
0.0874984133333333, 229.227467224287, -0.0012200563636432, 1.74125,208.854446411133
0.08816507, 229.232638828822, -0.000973620241859191, 1.755,200.036056518555
0.0888319233333333, 229.238268358392, -0.000829858462871041, 1.76875,200.036056518555
0.0894985133333333, 229.24422302982, -0.000498825090302342, 1.7825,206.740051269531
0.0901652283333333, 229.250495637672, -0.00064742562628682, 1.79625,206.508972167969
0.0908321266666667, 229.257031110136, -0.000637493125188118, 1.80875,209.915618896484
0.0914985316666667, 229.263154584004, -0.000486207724117982, 1.8225,208.712326049805
0.092165665, 229.269643853134, -0.000703818293746719, 1.835,207.060134887695
0.0928317433333333, 229.275788267774, -0.00100675057781696, 1.85,207.060134887695
0.0934983883333333, 229.281616126344, -0.00102759203097091, 1.8625,212.503662109375
0.094165015, 229.287158644156, -0.000914967188026025, 1.875,206.119445800781
0.0948318833333333, 229.292974427772, -0.000990768880537211, 1.89,205.276489257813
0.095499675, 229.298791922116, -0.000823105802102361, 1.90375,205.276489257813
0.0961651166666667, 229.304491339488, -0.000523972827204453, 1.915,204.376358032227
0.0968318533333333, 229.310982355669, -0.000276014281896092, 1.93,207.455108642578
0.0974983866666667, 229.317695949618, -0.000408933105523985, 1.9425,202.73747253418
0.0981651016666667, 229.324623626035, -0.00057899906329919, 1.95625,205.895065307617
0.0988323, 229.331758170592, -0.000936963583119268, 1.96875,205.895065307617
0.0994984083333333, 229.339606616648, -0.00101270677862124, 1.9825,204.579681396484
0.100165116666667, 229.347400380561, -0.00103982541648678, 1.99625,199.84326171875
0.100832343333333, 229.355320028961, -0.00103280876889561, 2.01,203.755355834961
0.101498425, 229.363573493216, -0.000989376950457193, 2.0225,207.411819458008
0.10216506, 229.371800553989, -0.000824920710906607, 2.03625,207.411819458008
0.102832575, 229.380773989526, -0.000712466859364944, 2.05,199.544509887695
0.103499915, 229.389416465439, -0.000741707890643677, 2.0625,203.432373046875
0.104165655, 229.398608042823, -0.000824158749203481, 2.07625,198.894653320313
0.1048331, 229.408144828401, -0.000687880094338431, 2.09,204.968338012695
0.105499961666667, 229.418385291788, -0.00080733559418473, 2.10375,204.968338012695
0.106165583333333, 229.428425023569, -0.000883546766164276, 2.1175,205.629684448242
0.106833255, 229.439532789482, -0.000976699587190431, 2.13,213.447525024414
0.107499948333333, 229.450263596711, -0.000740036974497128, 2.14375,245.834945678711
0.108165066666667, 229.461064857107, -0.000714139275308372, 2.15625,209.174865722656
0.108831761666667, 229.471677209748, -0.000300338560109528, 2.17,208.601989746094
0.109499145, 229.482619609111, -0.000504517304432903, 2.18375,208.601989746094
0.110165073333333, 229.493331552879, -0.000443323378129265, 2.1975,214.151870727539
0.110832388333333, 229.504633753036, -0.000650387977493352, 2.20875,215.064590454102
0.11149846, 229.515448362925, -0.000624427281479659, 2.2225,212.418930053711
0.11216527, 229.526428277495, -0.000989925922852547, 2.23625,212.418930053711
0.112832815, 229.536903178883, -0.00104463567483443, 2.25,208.519561767578
0.113498381666667, 229.547457960598, -0.00122792796829301, 2.26375,211.308670043945
0.114165401666667, 229.55755094608, -0.0012948846051104, 2.275,210.046752929688
0.114831993333333, 229.568444421232, -0.00149920734219774, 2.28875,206.233352661133
0.115498413333333, 229.57910834672, -0.0016924276369393, 2.3025,206.233352661133
0.116165115, 229.589367427513, -0.00172284160925016, 2.315,207.011688232422
0.11683242, 229.599708843054, -0.0016758564692628, 2.33,209.216903686523
0.117498395, 229.610189616169, -0.00164295262201745, 2.34125,206.531051635742
0.11816502, 229.620322140515, -0.00147575302030823, 2.355,199.669403076172
0.118831833333333, 229.630478300384, -0.00144852638788564, 2.3675,199.669403076172
0.119499058333333, 229.6406949974, -0.00133682099872748, 2.38125,202.728424072266
0.120165003333333, 229.651459260037, -0.00169361257745167, 2.39375,198.660079956055
0.120831915, 229.662615160894, -0.0020204071628491, 2.4075,205.064804077148
0.121498391666667, 229.673204568667, -0.00217772526091059, 2.42125,203.734756469727
0.122164998333333, 229.684346379627, -0.00201430696923835, 2.43375,203.734756469727
0.122832035, 229.695348729162, -0.00202909622638371, 2.44875,200.116027832031
0.123498481666667, 229.705778141621, -0.00169502400648516, 2.46125,205.040222167969
0.124165096666667, 229.716186302175, -0.00132362766135972, 2.47375,239.274948120117
0.124831748333333, 229.726976408456, -0.0010994969192023, 2.4875,204.715072631836
0.125498511666667, 229.737511424069, -0.00117387668318792, 2.5,201.699523925781
0.126165221666667, 229.748658461414, -0.00134832092101887, 2.51375,201.699523925781
0.126831733333333, 229.760372508977, -0.00140519656420038, 2.52625,210.443222045898
0.127498478333333, 229.771952748515, -0.00154707893761369, 2.54,207.525741577148
0.128165395, 229.783577529346, -0.00176095169503439, 2.55375,201.078063964844
0.128831871666667, 229.79512131349, -0.00207740429994978, 2.56625,201.078063964844
0.129498865, 229.806592778786, -0.00198682834951602, 2.58,202.418716430664
0.13016508, 229.816566220055, -0.0018985022860272, 2.59375,199.52018737793
0.130831718333333, 229.826664039746, -0.00166951328787747, 2.60625,198.219772338867
0.131498393333333, 229.83723500497, -0.00178659740688089, 2.62,196.342102050781
0.132166505, 229.84747379772, -0.00143144524578451, 2.63375,196.342102050781
0.132831725, 229.857820470645, -0.00117267974325907, 2.6475,196.875762939453
0.133498683333333, 229.8685521657, -0.00116578308966266, 2.66,199.73991394043
0.134165458333333, 229.879713526251, -0.00125043583767153, 2.67375,194.52995300293
0.13483187, 229.89017413135, -0.00115436266332213, 2.6875,197.326309204102
0.135498425, 229.90071466363, -0.00106875296343771, 2.70125,197.326309204102
0.1361666, 229.910805871534, -0.00142788292471041, 2.71375,203.432022094727
0.136832016666667, 229.92134378564, -0.00115020787202372, 2.72625,201.216705322266
0.137498385, 229.931158149386, -0.00131835392620143, 2.74,195.485092163086
0.13816507, 229.941181963632, -0.00140993932597114, 2.75375,197.577194213867
0.138831891666667, 229.95095798099, -0.00152856986728937, 2.7675,197.577194213867
0.13949848, 229.9612657841, -0.00124973087309572, 2.78125,203.849227905273
0.140165863333333, 229.971298939125, -0.00175786185025358, 2.795,195.289611816406
0.140831866666667, 229.981350152225, -0.00163739690107135, 2.8075,233.891525268555
0.141498423333333, 229.991050667562, -0.00156349411315225, 2.82125,200.761215209961
0.14216502, 230.001081473842, -0.00173356307073375, 2.835,199.847686767578
0.142831725, 230.010358650964, -0.00156629447245946, 2.8475,199.847686767578
0.143498443333333, 230.020031763457, -0.00124732799381913, 2.86125,193.486068725586
0.144165081666667, 230.02959652684, -0.00115263625007893, 2.87375,195.465118408203
0.144831863333333, 230.039158563395, -0.00115696353272622, 2.8875,193.38020324707
0.145498696666667, 230.048596604518, -0.000771439397202275, 2.9,193.38020324707
0.14616556, 230.058719828513, -0.00105292725838092, 2.915,195.714691162109
0.14683241, 230.06851288005, -0.00105882646205788, 2.92875,198.212615966797
0.147498468333333, 230.07798899978, -0.00107137483178345, 2.94,196.633880615234
0.148165425, 230.0876166765, -0.000798895518164828, 2.95375,197.87483215332
0.148832456666667, 230.096990625041, -0.000790128458518745, 2.9675,197.87483215332
0.149498458333333, 230.105885246649, -0.00058302336119577, 2.98,192.209594726563
0.150165363333333, 230.11471267023, -0.00064723513590886, 2.995,189.1103515625
0.150831938333333, 230.123812999942, -0.000647499122625088, 3.0075,189.983413696289
0.151498516666667, 230.13250283393, -0.000543702836205562, 3.02,186.199401855469
0.152165155, 230.141961928971, -0.000695216225848757, 3.03375,186.199401855469
0.152831728333333, 230.151463317774, -0.000735352709841861, 3.0475,183.216644287109
0.153499233333333, 230.161027879781, -0.000712045380543867, 3.06,186.763320922852
0.154165061666667, 230.170412828657, -0.000487493159565369, 3.07375,181.046310424805
0.154831738333333, 230.180713764876, -0.000697487111777863, 3.08625,184.91584777832
0.155498615, 230.19045410771, -0.00103040288977021, 3.1,184.91584777832
0.156165005, 230.199822187469, -0.00108908894202526, 3.1125,191.581939697266
0.15683172, 230.209325996038, -0.000997614536682655, 3.125,179.723403930664
0.157498628333333, 230.218795709964, -0.00134934836944764, 3.13875,184.766250610352
0.158165075, 230.227927322771, -0.00147607700400058, 3.1525,181.260345458984
0.158831766666667, 230.237425988258, -0.00120550109474725, 3.165,188.781799316406
0.159498805, 230.246686394903, -0.000815213198489648, 3.17875,188.781799316406
0.160165065, 230.25637062619, -0.000970189914153825, 3.1925,177.040267944336
0.160831771666667, 230.265987770025, -0.000821245895481002, 3.205,181.161575317383
