Time (min), Depth (µm), Load (N), Position (µm), Acoustic (aJ)
9.12166666666667E-06, 241.159871513728, -0.000636592064566849, 0,221.820053100586
0.00066726, 241.159376016126, -0.0005035127489853, 0.00625000000000105,221.820053100586
0.00133303, 241.160072607597, -0.000505585644871922, 0.0187500000000014,222.086715698242
0.00199957, 241.162163523081, -0.000583178247481918, 0.0325000000000013,231.670852661133
0.00266635666666667, 241.166914019401, -0.000189271033022884, 0.0475000000000007,230.049072265625
0.00333290166666667, 241.173576196694, -0.000192219884867279, 0.0612500000000005,250.846633911133
0.00399956666666667, 241.182502991328, -7.10818285250303E-06, 0.0750000000000004,250.846633911133
0.00466638166666667, 241.192818381164, -0.000492818286140965, 0.0887500000000003,242.851959228516
0.00533294333333333, 241.203157257474, -0.000603236739948595, 0.1025,247.693328857422
0.00600030666666667, 241.213196180359, -0.000755234605259058, 0.11625,252.21891784668
0.00666667666666667, 241.223174242203, -0.000944453101012593, 0.13,255.326049804688
0.00733294333333333, 241.233547563654, -0.0011443630597404, 0.1425,255.326049804688
0.007999605, 241.243797025805, -0.00100545203705879, 0.15625,260.3388671875
0.00866615, 241.254922277772, -0.00103885085948474, 0.17,261.535400390625
0.00933302166666667, 241.266002796389, -0.00105532603195692, 0.1825,254.437927246094
0.00999953833333333, 241.276274099515, -0.000780862317970211, 0.195000000000001,266.368499755859
0.0106663483333333, 241.285318693207, -0.000599984903247217, 0.208750000000001,266.368499755859
0.011334225, 241.29443121944, -0.000395152191799005, 0.2225,274.280639648438
0.0119997366666667, 241.303133491164, -0.000153613324041801, 0.235000000000001,277.002136230469
0.01266623, 241.31212291194, -0.000212992341498685, 0.248750000000001,281.333618164063
0.0133328783333333, 241.322072913241, -0.000115791223828006, 0.262500000000001,285.948577880859
0.0139997083333333, 241.33391043099, -0.000341058908895637, 0.275000000000001,285.948577880859
0.0146662716666667, 241.345064955943, -0.000358783518629525, 0.288750000000001,302.409881591797
0.0153328766666667, 241.356598841175, -0.000725807583375575, 0.302500000000001,362.147216796875
0.0160014866666667, 241.368174546354, -0.000937175466596502, 0.316250000000001,299.475891113281
0.01666637, 241.379495865825, -0.00122237414136518, 0.328750000000001,307.696441650391
0.0173328116666667, 241.39010644883, -0.00121446503862654, 0.342500000000001,307.696441650391
0.0179995633333333, 241.400644606359, -0.00108926632721997, 0.355000000000001,299.461975097656
0.018666255, 241.410874895697, -0.000637979494916166, 0.368750000000001,302.683807373047
0.0193328766666667, 241.420909815575, -0.00027158989827771, 0.382500000000001,302.214447021484
0.019999555, 241.431395710298, -0.000188368078425852, 0.396250000000001,302.245697021484
0.0206663083333333, 241.441472208446, 0.000230466383962997, 0.408750000000001,302.245697021484
0.02133296, 241.452393317343, 8.49091951453367E-05, 0.422500000000001,302.511352539063
0.0219997016666667, 241.463577048963, -0.000312575339610582, 0.436250000000001,298.769500732422
0.022666245, 241.474616824127, -9.45252920254199E-05, 0.448750000000001,304.96484375
0.023333, 241.485351636293, -1.8278121817687E-05, 0.462500000000001,300.528045654297
0.0239996466666667, 241.496917552574, -0.000529782429447318, 0.476250000000001,300.528045654297
0.0246662016666667, 241.507616599272, -0.000200563965725373, 0.488750000000001,304.515625
0.02533303, 241.518207549449, -6.47487876071996E-05, 0.502500000000001,302.819915771484
0.0260000066666667, 241.529214228262, -0.000371886860384303, 0.516250000000001,301.428558349609
0.026666345, 241.540507751067, -0.000614988649646005, 0.528750000000001,301.248474121094
0.02733293, 241.551279551642, -0.000741718784165859, 0.542500000000001,301.248474121094
0.0280005733333333, 241.562585336425, -0.000913635648994749, 0.556250000000001,297.168334960938
0.028666335, 241.573223942661, -0.000980431793879735, 0.570000000000001,299.465362548828
0.02933294, 241.583714119719, -0.000782656227939081, 0.583750000000001,297.850646972656
0.0299999883333333, 241.594213028205, -0.00083164076747479, 0.596250000000001,298.255554199219
0.0306665966666667, 241.604908100435, -0.00063310473973416, 0.610000000000001,298.255554199219
0.031332985, 241.615699181949, -0.000892791195949479, 0.6225,302.891662597656
0.0319997166666667, 241.62664281555, -0.000913485656490661, 0.636250000000001,360.003448486328
0.0326665383333333, 241.636983562708, -0.000988390394123683, 0.651250000000001,301.591003417969
0.033333545, 241.64764514392, -0.000751331801324158, 0.6625,304.404754638672
0.0339998916666667, 241.657776635445, -0.000911454758508585, 0.67625,304.404754638672
0.0346666966666667, 241.668164539477, -0.000735653088880141, 0.690000000000001,299.407806396484
0.03533296, 241.678536445738, -0.000632317279316179, 0.7025,299.002349853516
0.0359995566666667, 241.689570537661, -0.000689564903834714, 0.717500000000001,292.451232910156
0.03666635, 241.700051815309, -0.000852723708521433, 0.72875,298.780303955078
0.0373329, 241.710708525222, -0.000527274555505005, 0.742500000000001,298.780303955078
0.038000095, 241.721302404549, -0.000816493028333289, 0.756250000000001,289.443695068359
0.03866634, 241.73228069539, -0.000779404391237703, 0.770000000000001,293.818450927734
0.0393329, 241.74282059807, -0.000893070181888485, 0.7825,299.960357666016
0.039999595, 241.753413407877, -0.00110038976844363, 0.795000000000001,287.883911132813
0.0406664366666667, 241.764058972843, -0.00129614343594863, 0.80875,287.883911132813
0.0413329583333333, 241.773957631046, -0.00109376460118547, 0.821250000000001,292.824279785156
0.04199985, 241.783683260164, -0.00111900833322813, 0.835000000000001,287.916595458984
0.0426667116666667, 241.793446667275, -0.00123279111806739, 0.8475,294.702117919922
0.0433328733333333, 241.803419413965, -0.00107304764182075, 0.861250000000001,296.275085449219
0.0439995583333333, 241.81316917067, -0.00104608349621124, 0.875000000000001,296.275085449219
0.0446662133333333, 241.823570361638, -0.000877764950748404, 0.8875,290.963989257813
0.0453329866666667, 241.833494848548, -0.000872119234295599, 0.901250000000001,291.643798828125
0.0460006266666667, 241.843915906033, -0.000858421922285844, 0.913750000000001,301.792114257813
0.046666365, 241.854162328596, -0.000798856914202956, 0.9275,295.445129394531
0.04733289, 241.864856815088, -0.00067217927705847, 0.94125,295.445129394531
0.04799958, 241.875027528913, -0.00077719200233907, 0.953750000000001,293.647094726563
0.0486662716666667, 241.88580885713, -0.000779665378105124, 0.9675,359.827117919922
0.0493329383333333, 241.896354553617, -0.000655584110570268, 0.98125,301.358581542969
0.0499994366666667, 241.90700502119, -0.000764196655077564, 0.9925,302.736572265625
0.0506662083333333, 241.917139836374, -0.000875093584833595, 1.00625,302.736572265625
0.0513336666666667, 241.927683069763, -0.00109089974512891, 1.02,308.143218994141
0.05200024, 241.938268072137, -0.00096832740179878, 1.0325,303.513824462891
0.0526663716666667, 241.952195192659, -0.000879635356713062, 1.04625,303.736267089844
0.0533328083333333, 241.965324813251, -0.000757841474275747, 1.06,298.971893310547
0.0539996783333333, 241.978290808845, -0.000634700659533021, 1.0725,298.971893310547
0.0546670316666667, 241.990873144579, -8.53307538181379E-05, 1.0875,294.580932617188
0.0553329966666667, 242.00345033947, -9.91604182424595E-06, 1.1,292.507843017578
0.0559994966666667, 242.012256513156, -6.922606275858E-05, 1.1125,297.573852539063
0.056666195, 242.021423789061, -4.59580909447245E-06, 1.12625,292.998016357422
0.0573328366666667, 242.031275183505, -3.51657736070325E-05, 1.14,292.998016357422
0.0579995566666667, 242.041222008805, -0.000538391997073567, 1.1525,298.451599121094
0.058666575, 242.05116246053, -0.000757985467124731, 1.16625,298.638824462891
0.0593329116666667, 242.061251367138, -0.000874036138044282, 1.18,290.286010742188
0.059999925, 242.071757587176, -0.00109808288439261, 1.19375,291.145721435547
0.0606662616666667, 242.082143829118, -0.00119235614913929, 1.2075,291.145721435547
0.061333635, 242.092206465072, -0.00107213418775289, 1.22125,292.759552001953
0.0619997033333333, 242.101546158256, -0.000931601746536308, 1.23375,293.781280517578
0.0626661783333333, 242.111225151547, -0.0009023052180334, 1.2475,292.305755615234
0.0633330316666667, 242.120809661775, -0.000646779552835358, 1.26125,293.034271240234
0.063999615, 242.130417761992, -0.000401064894816845, 1.27375,293.034271240234
0.0646662466666667, 242.140357500617, -0.000318000567069838, 1.2875,297.145751953125
0.0653328316666667, 242.150360161499, -0.000534715681681051, 1.3,352.036315917969
0.0659996383333333, 242.160312412703, -0.000242876840431432, 1.315,293.159057617188
0.0666665666666667, 242.17036985133, -0.000308200059318623, 1.3275,291.140411376953
0.0673328883333333, 242.180266735289, -0.000430632909636741, 1.34,291.140411376953
0.067999825, 242.190549745902, -0.000688642450092915, 1.355,292.645843505859
0.0686664316666667, 242.200835069524, -0.000490955379692053, 1.3675,291.268035888672
0.069333735, 242.211245285202, -0.000393997249838464, 1.38125,286.160766601563
0.069999675, 242.221309133177, -0.000284127768468697, 1.39375,292.6181640625
0.0706663083333333, 242.231317985153, -4.50682761751603E-05, 1.4075,292.6181640625
0.0713328683333333, 242.241564367957, 0.000113628252710482, 1.42125,292.771179199219
0.0719995766666667, 242.251795525637, 0.000422141756377913, 1.435,292.412536621094
0.0726663366666667, 242.262037656966, 0.000148441504082497, 1.4475,291.577331542969
0.07333286, 242.273297278361, 6.08534035488632E-05, 1.46125,292.834655761719
0.0739994583333333, 242.283850828224, -0.000255069727988416, 1.475,292.834655761719
0.0746662116666667, 242.294796053648, -0.000154889759942769, 1.4875,297.939056396484
0.07533278, 242.305945678002, -0.000576860564768929, 1.50125,296.389404296875
0.0759996283333333, 242.317147172552, -0.000361418886188622, 1.51375,294.521575927734
0.0766667733333333, 242.327287655285, -7.43888034260115E-05, 1.5275,301.598907470703
0.07733281, 242.338959639584, 0.00022690256302825, 1.54125,301.598907470703
0.0779995433333333, 242.35010297945, 0.000323379217105885, 1.55375,297.980224609375
0.078666285, 242.361235473239, 0.000488961900074605, 1.56875,299.482513427734
0.079332915, 242.372254783741, 6.38607524874935E-05, 1.5825,306.149749755859
0.0799996766666667, 242.383683302357, -0.000401582368778477, 1.59375,301.432861328125
0.0806666683333333, 242.393842347638, -0.000443875744424785, 1.6075,301.432861328125
0.0813328716666667, 242.403738499597, -0.000664787648260207, 1.62125,362.360534667969
0.0819997066666667, 242.413680547759, -0.000680533857323624, 1.63375,305.572418212891
0.0826662416666667, 242.423294936775, -0.000582074302866071, 1.6475,295.035400390625
0.083332905, 242.432784071289, -0.000671877792104637, 1.66,301.847747802734
0.0840007316666667, 242.442592470057, -0.000684498158201566, 1.67375,301.847747802734
0.0846665383333333, 242.452037282963, -0.000489552950098704, 1.6875,299.149658203125
0.0853329383333333, 242.461863528637, -0.000851265781640146, 1.7,290.209777832031
0.08599967, 242.471360820002, -0.000772926216528549, 1.71375,286.275085449219
0.0866662233333333, 242.481184855788, -0.0004794389581047, 1.72625,288.003967285156
0.0873329466666667, 242.490497952093, -0.000639918897339611, 1.73875,288.003967285156
0.0879995333333333, 242.499822786623, -0.000867047988910496, 1.7525,283.282775878906
0.0886664783333333, 242.508926793367, -0.000650728854405505, 1.76625,284.972564697266
0.08933287, 242.51818562633, -0.000582438784559825, 1.77875,287.691040039063
0.0899996483333333, 242.527024717736, -0.000493307261560189, 1.79125,285.969757080078
0.09066625, 242.536584293041, -0.00053354874030403, 1.80625,285.969757080078
0.0913328283333333, 242.546016663303, -0.000579911411557762, 1.81875,287.080688476563
0.0919995233333333, 242.555984687928, -0.000814327137069903, 1.8325,290.540008544922
0.0926663483333333, 242.565773109596, -0.00124080371561111, 1.845,299.04052734375
0.0933330366666667, 242.575324175834, -0.00154815627759913, 1.85875,288.951538085938
0.0939995733333333, 242.584355064298, -0.00155854475578018, 1.87125,288.951538085938
0.0946662733333333, 242.594424897769, -0.00153926472420632, 1.88375,292.674987792969
0.0953328916666667, 242.603259680261, -0.0011386063488605, 1.89875,292.186859130859
0.0959995416666667, 242.612479723468, -0.000914891085826547, 1.91125,275.593933105469
0.0966668033333333, 242.620981336798, -0.000873296675058427, 1.92625,275.593933105469
0.0973330266666667, 242.630313259802, -0.00102131374030126, 1.9375,283.074645996094
0.0979996716666667, 242.638166774658, -0.000861595762790727, 1.9525,337.044189453125
0.098666255, 242.646623389544, -0.0012394222849594, 1.965,283.338226318359
0.0993327933333333, 242.654613483018, -0.00121260513198392, 1.97875,277.338592529297
0.099999545, 242.663410482384, -0.00130019923225768, 1.99125,281.329864501953
0.10066618, 242.671065590729, -0.00102282566443981, 2.005,281.329864501953
0.101332911666667, 242.679577252668, -0.00129572195714881, 2.01875,290.671661376953
0.10199974, 242.687455519585, -0.00126541597937373, 2.03125,282.998931884766
0.10266613, 242.695554467807, -0.001357170870601, 2.04625,282.773315429688
0.103332815, 242.702848045385, -0.00132036121950818, 2.05875,282.122192382813
0.10399963, 242.710854987335, -0.00135696388099084, 2.07125,282.122192382813
0.104666388333333, 242.71810192686, -0.00108928732609785, 2.085,283.050170898438
0.105333021666667, 242.725743057703, -0.00110859435633222, 2.09875,281.797485351563
0.105999595, 242.733012717488, -0.000776706026726144, 2.11125,289.533782958984
0.10666631, 242.740800894557, -0.000578436985593056, 2.125,287.486755371094
0.107332956666667, 242.748395222619, -0.000483158771326165, 2.13875,287.486755371094
0.107999543333333, 242.756498789717, -0.000416335627801921, 2.1525,293.151153564453
0.10866618, 242.764351294234, -0.000294705237145816, 2.16625,281.728515625
0.109333073333333, 242.772653438929, -0.00075420565694839, 2.17875,288.997955322266
0.109999965, 242.781056594432, -0.000843208186428091, 2.1925,282.974517822266
0.110666246666667, 242.78922029002, -0.00139176063319442, 2.20625,282.974517822266
0.111332928333333, 242.797168765127, -0.00162543989567578, 2.21875,279.776641845703
0.11199974, 242.804959820135, -0.0019439008997072, 2.2325,280.693328857422
0.112666221666667, 242.812533334805, -0.00186881017140567, 2.24625,275.743316650391
0.113332885, 242.819811627344, -0.00181561084357417, 2.25875,279.831115722656
0.113999616666667, 242.827095604669, -0.00140831380169306, 2.2725,279.831115722656
0.11466621, 242.834362744257, -0.0014030940638983, 2.28625,328.458190917969
0.115332955, 242.841692849129, -0.000801634774580363, 2.29875,271.473968505859
0.116000003333333, 242.84877192008, -0.000745768580649769, 2.3125,272.639587402344
0.116666158333333, 242.856443961776, -0.000978501390705152, 2.32625,268.963836669922
0.117332868333333, 242.863918645079, -0.00113958579962335, 2.33875,268.963836669922
0.118000403333333, 242.871729927325, -0.00121661293064831, 2.35125,265.559356689453
0.118666118333333, 242.878860117969, -0.00153413948162772, 2.36625,262.814514160156
0.119332781666667, 242.886554357199, -0.00165575187316973, 2.37875,262.042755126953
0.119999481666667, 242.893891811275, -0.00154064615485802, 2.39125,263.92041015625
0.120667823333333, 242.901541186407, -0.0015122210826247, 2.40625,263.92041015625
0.121333845, 242.90914051342, -0.00104428958630613, 2.4175,258.787689208984
0.121999783333333, 242.917841411795, -0.00112808587728945, 2.4325,254.182403564453
0.122666961666667, 242.926441911285, -0.000930836784941867, 2.44375,261.00390625
0.123332885, 242.935060612414, -0.000836424027161927, 2.4575,258.108947753906
0.123999516666667, 242.944160860846, -0.000471030380518521, 2.47125,258.108947753906
0.124666245, 242.953064292998, -0.000619470424528087, 2.485,255.27473449707
0.125332785, 242.962421977736, -0.000280892430935755, 2.4975,253.180648803711
0.125999728333333, 242.971487586488, -8.57987302532084E-05, 2.51125,250.93830871582
0.126666298333333, 242.981260165449, -0.000145387737169057, 2.52375,254.835266113281
0.127332805, 242.990633888711, -0.000376344636454679, 2.5375,254.835266113281
0.127999863333333, 243.000657773128, -0.000543047763143919, 2.55,257.197174072266
0.128666448333333, 243.010133807026, -0.00058223329487407, 2.56375,256.395141601563
0.129332881666667, 243.019806012165, -0.000739254407903716, 2.57625,251.430450439453
0.129999693333333, 243.029215413202, -0.000710353859549539, 2.59,253.680587768555
0.130666411666667, 243.038997257834, -0.000642659259755715, 2.6025,253.680587768555
0.131339415, 243.04864743062, -0.000546746577317467, 2.61625,313.595794677734
0.131999595, 243.058267980385, -0.00055987091816267, 2.63,255.455520629883
0.132666691666667, 243.068271265641, -0.000646449569402879, 2.6425,260.948669433594
0.133332871666667, 243.078306343908, -0.000916052027569717, 2.655,272.032470703125
0.133999586666667, 243.08809689764, -0.00113014827374776, 2.66875,272.032470703125
0.134666205, 243.097512905808, -0.0013917426341866, 2.68125,273.297485351563
0.135332943333333, 243.10762080771, -0.001462150597651, 2.695,268.006195068359
0.135999603333333, 243.117030621544, -0.00115343610400726, 2.70875,271.063873291016
0.136666456666667, 243.126804419114, -0.00105073326264774, 2.72125,272.455810546875
0.137332816666667, 243.136331128906, -0.000757409496005101, 2.735,272.455810546875
0.137999656666667, 243.144081259674, -0.000781244798756804, 2.74875,279.530120849609
0.138668675, 243.151135716427, -0.000933557648234459, 2.7625,269.968597412109
0.139334866666667, 243.158947352526, -0.000992576683792053, 2.775,267.232971191406
0.140001426666667, 243.166328966699, -0.000980073311841086, 2.7875,264.753570556641
0.140668278333333, 243.173765709825, -0.00098013030896841, 2.8025,264.753570556641
0.141334743333333, 243.183612727928, -0.000896193025091182, 2.815,257.761566162109
0.142001531666667, 243.19344092772, -0.000754351149658014, 2.82875,268.667205810547
0.142668516666667, 243.2029835959, -0.00105441257786781, 2.8425,263.604461669922
0.143334975, 243.212604766464, -0.000918627398237701, 2.855,256.758392333984
0.144001586666667, 243.222255431626, -0.000978591386296872, 2.86875,256.758392333984
0.144668301666667, 243.231542926447, -0.000743688185247402, 2.8825,255.293609619141
0.145334915, 243.240698257475, -0.000683422712319414, 2.89625,261.622467041016
0.146001885, 243.250531619625, -0.000519504945735868, 2.90875,258.262023925781
0.146668266666667, 243.259711455595, -0.000234466762899595, 2.9225,256.666900634766
0.147334828333333, 243.269198089254, -0.000143400337100945, 2.93625,256.666900634766
0.148001665, 243.278695443957, -0.000138506082944205, 2.94875,305.817291259766
0.148668363333333, 243.288329021462, -0.000228479063725355, 2.96375,248.328796386719
0.149334758333333, 243.29763756028, 9.41652301681357E-05, 2.97625,258.362243652344
0.150001365, 243.307368655239, -8.25318944990852E-05, 2.98875,252.487197875977
0.150669705, 243.316755655962, -6.84461020263778E-05, 3.0025,252.487197875977
0.15133629, 243.326544895149, -0.000159748015977593, 3.01625,253.127456665039
0.152001465, 243.335974397306, -6.07934863606941E-05, 3.03,254.960983276367
0.152669095, 243.345622890052, -8.12194603699312E-05, 3.04375,254.951293945313
0.15333489, 243.355005793512, -0.000106049213213535, 3.05625,254.915679931641
0.154001771666667, 243.365256351142, -0.000427022591002985, 3.07,254.915679931641
0.15466822, 243.37470104391, -0.000159082049393768, 3.0825,257.195129394531
0.155334835, 243.384526741777, -0.000153782815584386, 3.09625,258.068908691406
