Time (min), Depth (µm), Load (N), Position (µm), Acoustic (aJ)
7.90833333333333E-06, 228.019217540858, -0.00123242452041985, 0,153.309616088867
0.000668268333333333, 228.019408447953, -0.000950507680798114, 0.00499999999999999,151.81396484375
0.00133597166666667, 228.020485234965, -0.000692825123925613, 0.01625,157.201202392578
0.00200186833333333, 228.02283602532, -0.000793750554527204, 0.03,161.394287109375
0.00266829, 228.027114761313, -0.00094241858706732, 0.04625,169.848236083984
0.00333476, 228.032402575681, -0.00124514238158174, 0.06,169.848236083984
0.00400124833333333, 228.039466998523, -0.00155649224280583, 0.07375,175.655242919922
0.004667975, 228.046318444829, -0.00171804012844966, 0.08875,181.311782836914
0.00533316833333333, 228.053071527586, -0.0016618214522843, 0.1025,186.730575561523
0.00600045833333333, 228.058591516483, -0.00158209145701709, 0.115,192.499725341797
0.00666646166666667, 228.06378809448, -0.00148626877008554, 0.12875,192.499725341797
0.00733297333333333, 228.068964605364, -0.00131775373439835, 0.1425,197.254135131836
0.00800051, 228.074801012231, -0.00129675478913955, 0.155,201.473358154297
0.008667335, 228.080323843861, -0.00124522337747826, 0.16875,199.091552734375
0.00933396, 228.087428224697, -0.00145800868951532, 0.1825,233.946441650391
0.00999963, 228.095017705603, -0.00166729017750874, 0.195,233.946441650391
0.0106671066666667, 228.103696618717, -0.00188824557919437, 0.20875,203.338226318359
0.0113337783333333, 228.113151680382, -0.00189715963143197, 0.2225,195.867599487305
0.01199971, 228.12384816927, -0.00202001396059242, 0.23625,199.880676269531
0.0126663466666667, 228.13524404125, -0.00181180791854491, 0.25,195.76676940918
0.01333307, 228.147334117308, -0.00184120794183164, 0.26375,195.76676940918
0.0139998266666667, 228.159460221036, -0.00197232385600801, 0.27625,201.350158691406
0.0146665466666667, 228.171269537339, -0.00203808505288471, 0.29,200.428695678711
0.0153331166666667, 228.183059336701, -0.00192703213099074, 0.30375,206.061996459961
0.0160006583333333, 228.19453534863, -0.00179467277925028, 0.3175,198.3798828125
0.0166673133333333, 228.206541120791, -0.00155801016657823, 0.33,198.3798828125
0.0173331033333333, 228.218218693013, -0.00151645175397454, 0.34375,195.813385009766
0.0179997, 228.230683888392, -0.00174925206064932, 0.35625,196.436996459961
0.0186685533333333, 228.242640292617, -0.00228577361171547, 0.37,205.643508911133
0.0193338916666667, 228.255221174643, -0.00260176123998084, 0.38375,198.960784912109
0.0199997216666667, 228.266965994689, -0.00264952484090351, 0.39625,198.960784912109
0.0206664583333333, 228.279119137013, -0.00280131721654948, 0.41,197.901153564453
0.0213337866666667, 228.291294082843, -0.00261299717568353, 0.42375,195.948486328125
0.02199992, 228.304069436506, -0.00249180026328623, 0.4375,199.738952636719
0.022667255, 228.316271023593, -0.00247267472396842, 0.45,195.203414916992
0.0233329516666667, 228.329226247707, -0.00268936583974667, 0.46375,195.203414916992
0.02399966, 228.342144051705, -0.00232780300064555, 0.47625,196.196411132813
0.0246662916666667, 228.35491055249, -0.00215781353903617, 0.49,194.48503112793
0.0253330866666667, 228.367607331019, -0.00192505223039587, 0.50375,230.97346496582
0.0259998516666667, 228.380852813582, -0.00170289238924439, 0.51625,195.71076965332
0.0266682216666667, 228.393454428559, -0.00167979804923292, 0.53,195.71076965332
0.0273346383333333, 228.405659767094, -0.0015233754062102, 0.54375,184.072814941406
0.02800118, 228.417923651818, -0.00168940206682354, 0.55625,192.206161499023
0.0286679, 228.430522673471, -0.0015877086747787, 0.57,183.576751708984
0.0293347083333333, 228.442249179323, -0.00140718374235424, 0.58375,182.317535400391
0.030001275, 228.45497308894, -0.00135195051664934, 0.59625,182.317535400391
0.030668115, 228.467142221487, -0.00161740718304294, 0.61,182.363372802734
0.03133455, 228.479658647181, -0.00146069055477343, 0.6225,184.650909423828
0.0320011766666667, 228.491290350317, -0.00144510783746996, 0.635,179.04443359375
0.0326664766666667, 228.503802757635, -0.00164779415673579, 0.64875,182.195755004883
0.0333337566666667, 228.515542385626, -0.00150221446905208, 0.6625,182.195755004883
0.0339997166666667, 228.527730267199, -0.00140834018426044, 0.675,180.614852905273
0.0346663183333333, 228.539686370088, -0.00156305441311154, 0.68875,183.356796264648
0.0353330066666667, 228.551833899302, -0.00149635726321591, 0.7025,180.915573120117
0.0360015233333333, 228.562984480207, -0.00155272143211215, 0.715,178.394821166992
0.036666325, 228.574694172352, -0.00166052551723856, 0.72875,178.394821166992
0.0373330433333333, 228.586270624962, -0.00195959849511783, 0.74125,178.576507568359
0.0379998116666667, 228.597764043898, -0.00204378176668221, 0.755,186.7255859375
0.0386663316666667, 228.608763049922, -0.00211952496218418, 0.7675,180.040802001953
0.03933462, 228.619994720933, -0.00188758261241684, 0.78,180.319732666016
0.039999655, 228.630733502111, -0.0017602855064513, 0.79375,180.319732666016
0.040667405, 228.641870392175, -0.00184613969405596, 0.8075,189.675994873047
0.0413330516666667, 228.651589293446, -0.00147960160488032, 0.82,193.64631652832
0.04199966, 228.662057708144, -0.00174158294583645, 0.8325,224.810470581055
0.0426682516666667, 228.669905840272, -0.001735757238434, 0.84625,196.146148681641
0.0433344816666667, 228.678431990649, -0.00170489628852345, 0.86,196.146148681641
0.0440013083333333, 228.686481201369, -0.00133322695709285, 0.87375,205.109115600586
0.0446678816666667, 228.69547362775, -0.00142899864657343, 0.8875,207.950637817383
0.0453355866666667, 228.704395932829, -0.00130273798854058, 0.9,210.662902832031
0.0460016233333333, 228.715469462261, -0.00122051961828453, 0.91375,206.432769775391
0.04666799, 228.725529403276, -0.00126631231815876, 0.92625,206.432769775391
0.047334515, 228.735728959566, -0.00135349993881296, 0.94,214.382415771484
0.048001585, 228.745738718366, -0.00153950859581217, 0.95375,211.924377441406
0.04866823, 228.755046835078, -0.00130986263066754, 0.9675,212.155181884766
0.0493346016666667, 228.76452029826, -0.00152893412694135, 0.98125,205.592147827148
0.050001295, 228.773489369066, -0.00159856662938299, 0.99375,205.592147827148
0.0506677933333333, 228.78251105941, -0.00140128603858043, 1.0075,217.556701660156
0.0513345683333333, 228.79101975778, -0.00136320895115432, 1.02,207.483627319336
0.0520011816666667, 228.799834339944, -0.00121962116343946, 1.03375,200.071502685547
0.0526678883333333, 228.808273285593, -0.00115675032139793, 1.0475,211.217315673828
0.05333377, 228.817424080292, -0.0011504566375179, 1.06,211.217315673828
0.05400045, 228.825859145501, -0.000855298463011264, 1.07375,210.397888183594
0.0546664433333333, 228.834973094646, -0.000584317574126545, 1.0875,205.775650024414
0.0553345183333333, 228.844268767371, -0.000585138032902652, 1.10125,204.589096069336
0.0560016283333333, 228.853858244822, -0.000424673092848012, 1.11375,208.400772094727
0.05666799, 228.862852736168, -0.00055061276705857, 1.1275,208.400772094727
0.05733487, 228.872291382721, -0.00103196858906048, 1.14,209.932388305664
0.0580013116666667, 228.881759604657, -0.00139267947088801, 1.155,213.450134277344
0.0586678433333333, 228.890469107325, -0.0017811719573161, 1.1675,240.963745117188
0.0593345483333333, 228.899166546684, -0.00205802505128102, 1.18125,240.963745117188
0.06000118, 228.907754714591, -0.00176932405241437, 1.195,207.559066772461
0.0606664183333333, 228.916205112543, -0.00133959113741984, 1.20875,209.941619873047
0.0613330416666667, 228.924610295855, -0.00159791716198886, 1.22125,208.365432739258
0.0620006433333333, 228.932959019189, -0.00157371737752215, 1.235,210.605194091797
0.06266725, 228.940927328987, -0.00139758422451557, 1.24875,213.672180175781
0.0633340516666667, 228.949452774634, -0.00187572420804429, 1.26125,213.672180175781
0.0640004733333333, 228.957344763687, -0.00223629259707476, 1.275,220.197784423828
0.0646665866666667, 228.965206605777, -0.00185592820241194, 1.28875,212.116622924805
0.0653329716666667, 228.972712113456, -0.00153586077906833, 1.30125,217.349075317383
0.0659998066666667, 228.980810724906, -0.00181868507310282, 1.315,211.338821411133
0.0666665366666667, 228.987929907751, -0.00160981606438406, 1.3275,211.338821411133
0.0673329866666667, 228.994963367747, -0.0014525789622616, 1.34125,213.978820800781
0.068000795, 229.002082509646, -0.00134226550320471, 1.355,212.605651855469
0.06866742, 229.009377994053, -0.00174344135253341, 1.3675,211.579666137695
0.0693339316666667, 229.015870839176, -0.0013302736054965, 1.38125,204.727127075195
0.0700006016666667, 229.022534575875, -0.00126714927614581, 1.39375,204.727127075195
0.0706663516666667, 229.029547018193, -0.00126315947653176, 1.4075,208.255889892578
0.0713348433333333, 229.036021334441, -0.00143686275160123, 1.42,206.629425048828
0.0720013216666667, 229.042536020798, -0.00104606038120955, 1.43375,206.856140136719
0.0726678366666667, 229.048974438918, -0.00100251456847398, 1.44625,208.48405456543
0.0733339166666667, 229.055618463492, -0.00107027966471475, 1.46,208.48405456543
0.0740012483333333, 229.062015917744, -0.00122653731603185, 1.47375,202.78874206543
0.0746682316666667, 229.067929964811, -0.000955379435982535, 1.48625,203.559005737305
0.07533468, 229.073963050741, -0.00109609036822436, 1.5,249.387817382813
0.0760012383333333, 229.079573585504, -0.00109231805767003, 1.5125,209.068252563477
0.0766684933333333, 229.085207463448, -0.00106086313761077, 1.52625,209.068252563477
0.0773330133333333, 229.090322588742, -0.000930915664757088, 1.53875,202.250793457031
0.0779997566666667, 229.096017286253, -0.00121335447813492, 1.5525,211.589416503906
0.0786673583333333, 229.101591612483, -0.00127691978534519, 1.565,213.401443481445
0.0793330283333333, 229.106744036225, -0.00142850217151094, 1.57875,214.748718261719
0.0799997516666667, 229.112177687789, -0.00143925363144009, 1.59125,214.748718261719
0.0806685266666667, 229.118072018066, -0.00160581576521417, 1.605,210.549514770508
0.0813346333333333, 229.123276043353, -0.00157134149684231, 1.61875,214.170104980469
0.0820012433333333, 229.12858768297, -0.00179609920750656, 1.6325,216.369171142578
0.0826682266666667, 229.134565276854, -0.00220807601431223, 1.645,218.021377563477
0.08333481, 229.139790785089, -0.00249004835115815, 1.6575,218.021377563477
0.084001515, 229.145363538939, -0.00233346971593373, 1.67,213.297439575195
0.0846680383333333, 229.154387016462, -0.00251205224589466, 1.68375,209.49609375
0.0853348283333333, 229.162942790919, -0.00233990139285886, 1.69875,215.10498046875
0.0860012216666667, 229.170906409613, -0.00226013689937288, 1.7125,204.654678344727
0.086668175, 229.179030051195, -0.00236543011062316, 1.725,204.654678344727
0.0873348766666667, 229.186399712527, -0.00238252625192581, 1.73875,209.293609619141
0.0880026866666667, 229.190418377724, -0.00232156331402279, 1.75125,206.213287353516
0.088668195, 229.195227820804, -0.00261330765999249, 1.765,209.292556762695
0.0893348683333333, 229.200555677714, -0.00265360163609045, 1.77875,204.654663085938
0.090001255, 229.206181860328, -0.00238369169339969, 1.79125,204.654663085938
0.0906679533333333, 229.212496633684, -0.00223507315830111, 1.805,206.179061889648
0.0913330033333333, 229.218926516903, -0.00214537616367393, 1.81875,210.142440795898
0.0919998166666667, 229.225298007333, -0.00174318486535418, 1.8325,247.532791137695
0.0926664516666667, 229.231604815909, -0.00114214255506285, 1.845,206.052780151367
0.0933330816666667, 229.237869321173, -0.000902208606672186, 1.8575,206.052780151367
0.09400057, 229.244292001227, -0.00080991974227234, 1.87125,199.986282348633
0.0946663783333333, 229.251034392159, -0.000722019657399066, 1.885,208.142486572266
0.0953345966666667, 229.257691611373, -0.000944984958061359, 1.89875,206.991775512695
0.0960015083333333, 229.264939166353, -0.00139072806883554, 1.91125,206.215484619141
0.0966684016666667, 229.271861711484, -0.0016079381586061, 1.925,206.215484619141
0.0973346766666667, 229.278372739259, -0.00165527128109752, 1.93875,208.498764038086
0.098001305, 229.284862152791, -0.00179123945156859, 1.9525,204.394165039063
0.0986678566666667, 229.290808440438, -0.00147154100971319, 1.96625,212.111114501953
0.0993345216666667, 229.296832602229, -0.00123879020052246, 1.98,206.385848999023
0.100001491666667, 229.302883269297, -0.0010943669547237, 1.9925,206.385848999023
0.100667958333333, 229.309233176213, -0.00148845566005678, 2.005,205.033660888672
0.101335011666667, 229.315710537574, -0.00152879013411362, 2.01875,207.299011230469
0.10200152, 229.322300333608, -0.00176828610451478, 2.0325,212.517318725586
0.10266816, 229.32827157403, -0.00182134743930118, 2.0475,204.048431396484
0.103334625, 229.334675328375, -0.00179305586033974, 2.05875,204.048431396484
0.104001596666667, 229.34051957897, -0.00143688225057596, 2.0725,206.644241333008
0.10466793, 229.346679026449, -0.00142442987603345, 2.08625,210.415054321289
0.105334585, 229.352600637826, -0.00141914564140434, 2.1,208.981872558594
0.106001543333333, 229.358885803707, -0.00121550387014486, 2.1125,209.741592407227
0.106668236666667, 229.364801178686, -0.001244998388669, 2.125,209.741592407227
0.107334791666667, 229.371028563502, -0.00128976963987582, 2.13875,213.729431152344
0.108001296666667, 229.377155686227, -0.00135192201802192, 2.1525,247.359832763672
0.10866639, 229.383482268395, -0.00127870319573697, 2.16625,204.833724975586
0.109333093333333, 229.389859240837, -0.00144373240647336, 2.17875,214.88916015625
0.109999696666667, 229.397198964377, -0.00182271687047264, 2.1925,214.88916015625
0.110666505, 229.404067286473, -0.00222035139771139, 2.205,213.557235717773
0.111333105, 229.410708859401, -0.00214525616967916, 2.21875,214.228729248047
0.111999703333333, 229.417492136754, -0.0020338477656166, 2.2325,211.002426147461
0.112667998333333, 229.424351647038, -0.00211772955233341, 2.245,222.774032592773
0.11333471, 229.430956474236, -0.00186628818196557, 2.25875,222.774032592773
0.114001675, 229.438519325078, -0.00169997053593299, 2.27125,212.825302124023
0.114668385, 229.446538293178, -0.0016467127110285, 2.285,210.020843505859
0.115334723333333, 229.455305927259, -0.00177272588149231, 2.29875,208.86003112793
0.116001455, 229.464289701899, -0.0016111599967769, 2.31125,211.07975769043
0.116669653333333, 229.474128536613, -0.00149463984947662, 2.325,211.07975769043
0.11733463, 229.484088837569, -0.0012522550242072, 2.33875,213.382476806641
0.118001473333333, 229.494547381039, -0.00114273052549269, 2.35125,208.959716796875
0.11866801, 229.505336531321, -0.00106929721395432, 2.365,203.858901977539
0.119334693333333, 229.516043575157, -0.00105564189987036, 2.37875,210.887771606445
0.120002296666667, 229.526543321411, -0.00118399195297953, 2.39,210.887771606445
0.120668185, 229.537741160704, -0.00136501186054209, 2.40375,204.925064086914
0.121334645, 229.548687038372, -0.0017134488589161, 2.4175,206.660003662109
0.122001723333333, 229.559880684425, -0.00171631071518762, 2.43125,209.804794311523
0.12266949, 229.571644974933, -0.00191831156889489, 2.44375,206.013763427734
0.123336378333333, 229.582828738788, -0.00208526368305633, 2.4575,206.013763427734
0.12400427, 229.594332381708, -0.00189413428329423, 2.47,203.028335571289
0.12466964, 229.605985011794, -0.00176866108570061, 2.48375,249.299301147461
0.125334678333333, 229.617314999304, -0.00172195643161917, 2.49625,208.564010620117
0.126001941666667, 229.628785626016, -0.00157184997132128, 2.51,210.868041992188
0.126668803333333, 229.64046494887, -0.00167409533563153, 2.5225,210.868041992188
0.127335243333333, 229.651632230645, -0.00195634215864325, 2.53625,214.808334350586
0.128002476666667, 229.662658373119, -0.00206961646898227, 2.55,206.994812011719
0.128668173333333, 229.673990251788, -0.00232862945903425, 2.56375,196.141082763672
0.129337856666667, 229.684711455619, -0.00238906742331113, 2.57625,205.058029174805
0.130003006666667, 229.695763945925, -0.00233153631305912, 2.59,205.058029174805
0.130669461666667, 229.706572259032, -0.00232540312113275, 2.60375,207.339584350586
0.131336351666667, 229.71730855439, -0.00234362270596222, 2.61625,199.623260498047
0.132003186666667, 229.72785172974, -0.00234016387969319, 2.63,198.997863769531
0.132669756666667, 229.738468586756, -0.00238051785274602, 2.64375,202.419464111328
0.133336123333333, 229.748680865319, -0.00224114785313325, 2.6575,202.419464111328
0.134002126666667, 229.759209085528, -0.00216122736746683, 2.67,195.668640136719
0.13466871, 229.769739069921, -0.00200354478766907, 2.68375,199.53971862793
0.135334745, 229.78023520433, -0.00226173881889061, 2.6975,199.423767089844
0.136001308333333, 229.790969416878, -0.00230117783788742, 2.71125,203.3916015625
0.136669383333333, 229.801933265071, -0.00259440260951944, 2.72375,203.3916015625
0.137335523333333, 229.812493372145, -0.00267172072589988, 2.73625,198.552185058594
0.138001968333333, 229.823360167636, -0.0026195293474374, 2.75,197.855178833008
0.138669366666667, 229.833867957452, -0.00253930287712895, 2.76375,200.180969238281
0.139335041666667, 229.84441137848, -0.00253124528185313, 2.77625,206.558013916016
0.140002133333333, 229.854562544344, -0.00237312322414146, 2.79,206.558013916016
0.140668803333333, 229.864707196092, -0.00215256230272267, 2.80375,199.440292358398
0.14133621, 229.874768242965, -0.00216238080954547, 2.8175,240.037200927734
0.142003203333333, 229.885301132698, -0.00218412371743582, 2.83,198.662734985352
0.14266805, 229.895213259097, -0.00216441620734327, 2.84375,200.574279785156
0.14333466, 229.905867822995, -0.00208403974455198, 2.85625,200.574279785156
0.144001256666667, 229.915984963155, -0.00223418370295995, 2.87,204.081008911133
0.144668115, 229.926639235536, -0.00218441770266137, 2.88375,203.07975769043
0.14533482, 229.936623060648, -0.00224765302637539, 2.8975,193.84797668457
0.14600205, 229.946348573717, -0.00206309329660478, 2.91,203.765869140625
0.146668225, 229.956116879562, -0.00218371273800055, 2.92375,203.765869140625
0.147334638333333, 229.966325471041, -0.00229760501732124, 2.9375,196.277145385742
0.148001451666667, 229.976139984232, -0.00242826345444834, 2.95125,192.348556518555
0.148668991666667, 229.986111764253, -0.0021361456272172, 2.96375,192.976379394531
0.149334741666667, 229.996662808702, -0.00234310223202426, 2.9775,195.965728759766
0.15000211, 230.0069170738, -0.00197234185490956, 2.99,195.965728759766
0.150669445, 230.016713037597, -0.00170823512073395, 3.00375,187.694137573242
0.151334666666667, 230.026328380238, -0.00128508687505994, 3.0175,192.065719604492
0.152001288333333, 230.036284506227, -0.00137309795436031, 3.03125,189.760147094727
0.152670131666667, 230.045662127315, -0.00107831326107259, 3.04375,185.499237060547
0.153337605, 230.054752014308, -0.00135387791976258, 3.05625,185.499237060547
0.154002835, 230.064447377651, -0.00147832516887309, 3.07,187.648025512695
0.154669465, 230.073506246288, -0.00188137142427272, 3.08375,186.709289550781
0.155336426666667, 230.082648466811, -0.00162582775998184, 3.09625,186.088272094727
0.156004175, 230.091954397951, -0.00193403077927654, 3.10875,182.04606628418
0.156669545, 230.101817509068, -0.00195619516594546, 3.12125,182.04606628418
0.157336123333333, 230.110957075242, -0.00170664370066579, 3.135,188.923797607422
0.158003126666667, 230.12133972197, -0.00148162500313411, 3.14875,215.222320556641
0.158670041666667, 230.130718437937, -0.00154459784007757, 3.1625,181.283309936523
0.159336253333333, 230.14131851071, -0.00140775071375742, 3.175,186.892196655273
0.160002068333333, 230.15060848439, -0.00133777622850932, 3.18875,186.892196655273
0.160667986666667, 230.161471106155, -0.00140432938564098, 3.20125,179.586944580078
