Time (min), Depth (µm), Load (N), Position (µm), Acoustic (aJ)
7.40333333333333E-06, 227.886585455846, -0.000480984145300169, 0,259.451843261719
0.000665665, 227.886773306607, -0.000236772411810023, 0.00499999999999999,260.944793701172
0.00133215333333333, 227.886735017312, -0.000167661883124474, 0.01625,264.752349853516
0.00199898833333333, 227.887003673049, -5.70634383671995E-05, 0.03125,264.752349853516
0.00266553333333333, 227.887201559442, 7.68483353856821E-05, 0.04625,277.136810302734
0.00333215833333333, 227.887803506274, 0.000198501224865328, 0.06,293.299865722656
0.00399906166666667, 227.888565373735, -7.85091027968733E-06, 0.075,308.453552246094
0.00466549, 227.890103940894, -8.81808753932191E-05, 0.08875,312.187957763672
0.00533244333333333, 227.892061996732, -0.00020028824435522, 0.1025,312.187957763672
0.00599918333333333, 227.89561473775, -9.39780841894992E-05, 0.115,388.796356201172
0.00666551666666667, 227.90052410183, -7.55845080654878E-05, 0.12875,322.940979003906
0.00733254833333333, 227.906428490343, -0.000142409151514135, 0.1425,320.015563964844
0.00799927833333333, 227.913818191788, -0.000108431358183513, 0.15625,327.820892333984
0.00866558166666667, 227.923165172522, -0.000206542930094494, 0.17,327.820892333984
0.00933223833333333, 227.933256513774, -0.000395209453603868, 0.18375,326.636260986328
0.00999894166666667, 227.943626380981, -0.000122893631723946, 0.19625,327.591827392578
0.0106657566666667, 227.954842456409, 9.76222919839997E-05, 0.21,328.301666259766
0.0113321633333333, 227.966525081454, 4.14471136050811E-05, 0.2225,333.372344970703
0.0119988066666667, 227.978155425458, -5.67409545354826E-05, 0.23625,333.372344970703
0.0126654883333333, 227.990080239888, -0.000170462242431693, 0.25,325.920257568359
0.0133323683333333, 228.001927855108, -0.000347078371202392, 0.26375,331.912261962891
0.0139988116666667, 228.014054883135, -0.000957832693683888, 0.27625,338.048522949219
0.0146654983333333, 228.026026945802, -0.0014099189858434, 0.29,331.786224365234
0.01533228, 228.037954286784, -0.00146039745036106, 0.30375,331.786224365234
0.0159997683333333, 228.04950464373, -0.00177614209083059, 0.3175,330.263458251953
0.0166655683333333, 228.061313589535, -0.00197610604683692, 0.33,330.614715576172
0.017332315, 228.07292521581, -0.00170946893970416, 0.34375,333.618286132813
0.0179989766666667, 228.084701665064, -0.00145098842292161, 0.3575,338.504821777344
0.0186656966666667, 228.09667861378, -0.00163494518297584, 0.37,338.504821777344
0.0193331983333333, 228.109101361228, -0.00144909551800588, 0.38375,335.587371826172
0.0199990383333333, 228.121063389682, -0.001434570247598, 0.3975,330.069122314453
0.0206655783333333, 228.133731319525, -0.00145471573572258, 0.41,332.773712158203
0.0213321566666667, 228.146001585755, -0.00145788957633373, 0.42375,328.318542480469
0.02199881, 228.158077180374, -0.00115830212425662, 0.4375,328.318542480469
0.0226657683333333, 228.169769224809, -0.000912996945685213, 0.45,396.908172607422
0.023332115, 228.182959774509, -0.00115754766215426, 0.46375,332.132537841797
0.0239988116666667, 228.195430476907, -0.00122720116353755, 0.4775,330.711547851563
0.024665755, 228.208648805461, -0.00134377980793206, 0.49,318.125030517578
0.025332525, 228.221069188564, -0.00121502327524585, 0.50375,318.125030517578
0.0259991016666667, 228.233510323638, -0.00101053254658284, 0.5175,325.177398681641
0.0266657083333333, 228.245329549432, -0.000655905359133867, 0.53,322.658264160156
0.0273323566666667, 228.257206195736, -0.000389658232494739, 0.54375,316.802276611328
0.02799895, 228.268640308325, -0.000204626026430827, 0.55625,314.720184326172
0.0286655033333333, 228.281038973118, -0.000191177701914521, 0.57,314.720184326172
0.0293352266666667, 228.293592631844, -0.000673299985414021, 0.58375,309.099212646484
0.0299989683333333, 228.306022889905, -0.000585564892267614, 0.59625,312.165649414063
0.0306655416666667, 228.31821460166, -0.000368404300002362, 0.61,306.004821777344
0.0313322766666667, 228.3304393977, -9.06272524562523E-05, 0.62375,305.798614501953
0.0319988116666667, 228.342550152057, -1.31681431819084E-05, 0.63625,305.798614501953
0.032665505, 228.354181059831, 0.000377397239132807, 0.65,302.538696289063
0.033332365, 228.365831782263, 0.000369995110948737, 0.6625,312.186645507813
0.033998755, 228.377475023172, 0.000439096640045358, 0.67625,303.690521240234
0.03466553, 228.388875047898, 0.000324994371265704, 0.68875,305.790954589844
0.0353324133333333, 228.400374602925, 0.000142228551421451, 0.7025,305.790954589844
0.0359988233333333, 228.41171512011, -1.87733616333173E-05, 0.715,305.0654296875
0.036665735, 228.423517021384, -3.7301930974876E-05, 0.72875,312.728912353516
0.0373323433333333, 228.435324634081, -0.00051337201846578, 0.74125,298.426605224609
0.0379991216666667, 228.447120335311, -0.000708405722108435, 0.755,304.803863525391
0.0386655366666667, 228.458203249946, -0.000494378472474195, 0.76875,304.803863525391
0.0393322033333333, 228.469753466848, -0.000483926997468205, 0.78125,374.578552246094
0.0399988666666667, 228.480754429266, -0.0002488738039359, 0.79375,311.708251953125
0.0406655633333333, 228.492119942423, -1.06225128282112E-06, 0.8075,311.033905029297
0.0413323883333333, 228.503255152773, -0.000182679128842892, 0.82125,320.434417724609
0.0419991966666667, 228.514204670959, 7.43254620930664E-05, 0.83375,320.434417724609
0.0426655716666667, 228.523326415478, 0.000225393374124731, 0.8475,321.021087646484
0.0433321166666667, 228.53282973055, 8.10526242319072E-05, 0.86125,352.160339355469
0.0439988666666667, 228.542445898129, 0.000218811704716768, 0.875,351.188781738281
0.0446656566666667, 228.55219447152, 0.00033363393733751, 0.8875,353.767639160156
0.0453321516666667, 228.562507804756, 8.4056973321731E-05, 0.90125,353.767639160156
0.0459990633333333, 228.574877241296, -3.87403587113954E-05, 0.915,347.207702636719
0.04666549, 228.587039353493, -0.00025951726932927, 0.9275,348.001403808594
0.0473322066666667, 228.598644956761, -0.000185530485601075, 0.94125,354.442474365234
0.0479991883333333, 228.610426031545, -0.000203829566508935, 0.95375,351.865173339844
0.0486655216666667, 228.621938366936, -0.000231681667535202, 0.9675,351.865173339844
0.0493321566666667, 228.633365073305, -0.000115521502134213, 0.98125,352.464874267578
0.0499990083333333, 228.644499789364, -3.8441873733893E-05, 0.99375,353.069854736328
0.0506656866666667, 228.655858432852, -9.51255265705324E-05, 1.0075,347.841583251953
0.05133235, 228.6673117264, 0.00012595286891616, 1.02125,344.238616943359
0.051998935, 228.678845382418, 0.000279308166045366, 1.03375,344.238616943359
0.0526655533333333, 228.69044060978, 0.000283057977669879, 1.04875,343.614959716797
0.0533321483333333, 228.702149481665, 0.000282059027826023, 1.06,346.914001464844
0.053999135, 228.713428554725, 0.000397071750867233, 1.07375,345.110504150391
0.0546656266666667, 228.724850985249, 0.000559792577585692, 1.08875,341.231964111328
0.055332155, 228.736294895602, 0.000829428034089403, 1.10125,341.231964111328
0.0559989683333333, 228.747462071054, 0.000928456060044569, 1.115,414.000885009766
0.056665465, 228.758563419358, 0.00122659458485058, 1.12875,341.068908691406
0.05733215, 228.770034590511, 0.0012377630238701, 1.14125,346.266906738281
0.0579989733333333, 228.781315311646, 0.00130261376648525, 1.155,346.605102539063
0.0586655666666667, 228.792124901424, 0.00120978192928139, 1.16875,346.605102539063
0.0593321383333333, 228.802778232572, 0.00114111387840108, 1.18125,342.042724609375
0.0599988316666667, 228.81313636897, 0.0013280374894138, 1.195,345.351226806641
0.060665685, 228.823374193561, 0.00126773151852692, 1.20875,348.678100585938
0.061332355, 228.833251296192, 0.00113775104729386, 1.22125,350.573547363281
0.0619988583333333, 228.843334099491, 0.000963068321461532, 1.235,350.573547363281
0.0626654733333333, 228.853318031541, 0.00122511565911266, 1.24875,361.906127929688
0.0633321583333333, 228.863261457521, 0.000860689463900643, 1.26125,357.615539550781
0.063999015, 228.872852001826, 0.00111436572201191, 1.275,352.518646240234
0.06466552, 228.882896256039, 0.00122152933929061, 1.2875,355.266296386719
0.065332175, 228.89252178678, 0.00121321075712612, 1.30125,355.266296386719
0.0659988483333333, 228.90173280053, 0.00114021992339297, 1.315,363.433502197266
0.0666655733333333, 228.911389337827, 0.00117344475452438, 1.3275,354.759246826172
0.0673324683333333, 228.920627810538, 0.000899626008137346, 1.34125,356.059814453125
0.06799904, 228.929207856739, 0.000822157899295328, 1.35375,360.64013671875
0.0686655283333333, 228.938135084967, 0.000631479976842374, 1.3675,360.64013671875
0.0693321666666667, 228.947407805979, 0.000543732884258232, 1.38125,351.574035644531
0.0699991483333333, 228.956135346186, 0.000659078590601982, 1.39375,352.296447753906
0.0706655033333333, 228.964555760912, 0.000540986522272039, 1.4075,344.645050048828
0.071332315, 228.972551539806, 0.000693338369784179, 1.42125,341.709350585938
0.0719989916666667, 228.980334455913, 0.000970255960455935, 1.43375,341.709350585938
0.07266546, 228.987840288046, 0.00092768959854698, 1.4475,416.719635009766
0.07333214, 228.995160569118, 0.000817013157678228, 1.46,343.936126708984
0.0739988133333333, 229.002884462583, 0.000969886978988972, 1.47375,346.733001708984
0.0746657116666667, 229.010981234364, 0.000509173120174129, 1.48625,349.455291748047
0.0753321816666667, 229.018807333782, 0.000188139745387295, 1.5,349.455291748047
0.0759987966666667, 229.026183779297, 4.05126605530728E-05, 1.51375,349.501129150391
0.0766655216666667, 229.033710506396, -0.000117037925854685, 1.52625,350.265441894531
0.0773321916666667, 229.040791438367, -0.000102503655900387, 1.53875,351.126739501953
0.0779989533333333, 229.047638274139, 0.000121589588146952, 1.5525,346.457122802734
0.07866553, 229.054444272921, 0.000297076273608202, 1.56625,346.457122802734
0.0793321783333333, 229.061268616087, 0.000469612607279401, 1.57875,353.2197265625
0.0799988166666667, 229.06812624252, 0.000379269145106884, 1.5925,359.813781738281
0.0806654566666667, 229.074741161168, 0.000378553681017751, 1.605,358.319061279297
0.081332155, 229.081068729813, 0.000311849031478856, 1.61875,358.022216796875
0.0819990283333333, 229.087490711038, 0.000439195634992211, 1.6325,358.022216796875
0.082665465, 229.094177657751, 0.000175123399099127, 1.64625,358.902679443359
0.0833323666666667, 229.100931103712, 0.000354914868362875, 1.65875,364.820404052734
0.0839989583333333, 229.108084701176, 0.000331639037519858, 1.67,352.972137451172
0.0846656183333333, 229.116787847054, 0.00036364892969334, 1.68375,351.002899169922
0.085333725, 229.125819537129, 0.000132764026800329, 1.69875,351.002899169922
0.0859989533333333, 229.134723161149, 1.92257296813164E-05, 1.7125,346.011169433594
0.086665485, 229.143105527091, -0.000117487903324441, 1.725,345.811157226563
0.0873321516666667, 229.152428213324, -0.000425879913093955, 1.73875,338.766235351563
0.0879990083333333, 229.160175732189, -0.000389787225993419, 1.75125,406.978332519531
0.0886655466666667, 229.167769604698, -0.000559499201545693, 1.76625,406.978332519531
0.0893321783333333, 229.174967396462, -0.000341044174350397, 1.77875,338.137573242188
0.089998875, 229.182300423079, -0.000289545761068492, 1.79125,342.677459716797
0.0906654916666667, 229.189010410206, -0.000306944887143111, 1.805,340.066955566406
0.091332615, 229.196452955147, -0.000655870860957608, 1.81875,342.152709960938
0.0919988833333333, 229.203323053207, -0.00060318150750823, 1.8325,342.152709960938
0.09266551, 229.210821936535, -0.000761833038576757, 1.84625,337.158081054688
0.0933322566666667, 229.217847854609, -0.000746670300191224, 1.85875,339.223175048828
0.093998875, 229.224839922683, -0.000757022780207854, 1.87125,343.237396240234
0.0946654533333333, 229.231070397638, -0.000639089703843402, 1.885,340.26416015625
0.0953323716666667, 229.237581609675, -0.000460777160275061, 1.89875,340.26416015625
0.0959991516666667, 229.243860481929, -0.000386709380586581, 1.9125,343.851593017578
0.096665475, 229.250844069017, -0.000448338285030926, 1.92625,338.203521728516
0.0973333033333333, 229.257595791021, -0.000464504473012271, 1.93875,340.517700195313
0.09799898, 229.264292695665, -0.000266176934806202, 1.9525,344.8310546875
0.0986655833333333, 229.270983476129, -0.000463369030026464, 1.96625,344.8310546875
0.0993321566666667, 229.277996836204, -0.000527361815776679, 1.98,341.269897460938
0.0999988116666667, 229.284410335149, -0.000452539574049599, 1.9925,338.638549804688
0.100665578333333, 229.291024398441, -0.000242539622118238, 2.00625,343.791534423828
0.101332163333333, 229.298128397125, -0.000182896617881364, 2.01875,332.597991943359
0.101998855, 229.305348529591, -0.000148353352965697, 2.03375,332.597991943359
0.102665585, 229.312963807625, -1.17777130050392E-05, 2.0475,337.331878662109
0.103332186666667, 229.321059670208, -2.01157941867741E-05, 2.06,344.341339111328
0.103999888333333, 229.328949612343, -6.85933592104194E-05, 2.07375,338.41943359375
0.10466556, 229.337523073721, -3.2830655584871E-05, 2.0875,411.515808105469
0.105332403333333, 229.346004605432, 3.50634341970945E-05, 2.10125,411.515808105469
0.105998918333333, 229.354198989589, -0.000180756225439104, 2.11375,340.277984619141
0.106665545, 229.362092500006, -0.00011116122110754, 2.12625,341.300018310547
0.107332153333333, 229.370712115838, -0.000134267560471735, 2.14,341.574920654297
0.107998846666667, 229.378867126494, -0.000480841652396843, 2.15375,346.1962890625
0.108665648333333, 229.387490332014, -0.000654342437650623, 2.16625,346.1962890625
0.109332151666667, 229.39552091943, -0.000400933166125643, 2.18,347.504028320313
0.10999887, 229.404124495981, -0.000377633336470919, 2.1925,345.668701171875
0.11066563, 229.411807951583, -0.000387312350324216, 2.205,355.22021484375
0.111332163333333, 229.4195427593, 0.000235181882459465, 2.22,353.678863525391
0.111998956666667, 229.426981694559, 0.000277350764359049, 2.23375,353.678863525391
0.112665755, 229.435372999892, 0.000136458341243176, 2.24625,350.138519287109
0.113332343333333, 229.442982948411, -7.20056878441999E-05, 2.25875,357.087097167969
0.113998825, 229.451916379157, -0.000295927940467059, 2.2725,356.289520263672
0.114665503333333, 229.460293482439, -0.00091425988230906, 2.28625,348.074584960938
0.11533248, 229.468644937422, -0.000849554632403535, 2.29875,348.074584960938
0.115999035, 229.476532546982, -0.000834843371305891, 2.3125,340.966644287109
0.116665538333333, 229.485350574477, -0.000911252533349175, 2.325,351.819519042969
0.117332478333333, 229.492768675784, -0.000606775326909788, 2.33875,347.126586914063
0.11799898, 229.500858679687, -0.000435056452165889, 2.35125,345.587829589844
0.1186656, 229.50920885669, -0.000585294905853773, 2.365,345.587829589844
0.11933323, 229.517458405396, -0.000508194278554316, 2.37875,341.759155273438
0.119998931666667, 229.525847384187, -0.000140823731186097, 2.39125,335.707397460938
0.120665571666667, 229.535420642096, 4.7604562708225E-06, 2.40375,351.862518310547
0.121332133333333, 229.545075666374, -0.000112377660032378, 2.41875,407.622009277344
0.121998876666667, 229.555226952057, 0.000294752890239966, 2.43125,407.622009277344
0.122665706666667, 229.565973487268, 0.000148300246383528, 2.44375,344.588592529297
0.123332145, 229.576903291408, -9.75539046044888E-05, 2.4575,339.788879394531
0.123999148333333, 229.587722805838, -0.000310685699221205, 2.47125,347.178375244141
0.124665585, 229.598463326795, -0.00021772936831313, 2.48375,350.927337646484
0.125332131666667, 229.609476350233, -0.000403847519815033, 2.4975,350.927337646484
0.125998996666667, 229.620417932694, -0.000515536409804763, 2.51,345.2783203125
0.126665568333333, 229.631489629266, -0.000487414322343402, 2.5225,351.232177734375
0.127333185, 229.642803825829, -0.000502082085590844, 2.53625,314.8017578125
0.127998881666667, 229.654043672367, -0.000566371856394158, 2.55,323.64453125
0.128665495, 229.665327471792, -0.000403981013086923, 2.56375,323.64453125
0.129332178333333, 229.676562360675, -0.000139893777907298, 2.5775,318.445434570313
0.129998988333333, 229.687767852554, -4.80443914001151E-05, 2.59,323.537658691406
0.130665581666667, 229.699115480328, 1.61868823302177E-05, 2.60375,325.080963134766
0.131332268333333, 229.710579431257, -0.000138140366003587, 2.61625,315.099884033203
0.131999163333333, 229.721668582711, -0.000152043167677842, 2.63,315.099884033203
0.132665491666667, 229.733138659967, -0.000335147970522248, 2.64375,316.919128417969
0.133332273333333, 229.744404477099, -0.000384370998144345, 2.65625,315.331176757813
0.133999011666667, 229.755084701694, -0.000170883721380295, 2.67,322.824951171875
0.134665461666667, 229.766363438662, -0.000164306551724288, 2.68375,330.465850830078
0.13533218, 229.77714229382, -0.000287661855699189, 2.6975,330.465850830078
0.13599883, 229.787584003661, 0.000115333402270734, 2.71125,319.240386962891
0.136665516666667, 229.797965253875, 0.000245327372844683, 2.72375,318.650207519531
0.137332353333333, 229.808643959678, 0.000210167638893006, 2.7375,323.040557861328
0.137998835, 229.818919765837, 0.00033613281181842, 2.75,384.490417480469
0.138665455, 229.829115544792, 0.000556182258951936, 2.76375,384.490417480469
0.13933214, 229.839793661502, 0.000477953688309942, 2.7775,315.760803222656
0.139998956666667, 229.850159105434, 0.000265634852868571, 2.79,320.385009765625
0.14066547, 229.861113227994, -0.000259274281490926, 2.80375,327.720703125
0.141332448333333, 229.871555782273, -0.000118656344604612, 2.81875,324.033416748047
0.141998828333333, 229.882552150339, -0.000529905687989686, 2.83125,324.033416748047
0.142665486666667, 229.893033640672, -0.000687474273511537, 2.84375,328.748168945313
0.143332388333333, 229.904223749998, -0.000584273457165122, 2.8575,321.992858886719
0.14399941, 229.914412655804, -0.000140945225105269, 2.87125,326.893493652344
0.144665526666667, 229.92547134365, -0.000203298593163911, 2.88375,318.736511230469
0.145332181666667, 229.935742359867, 0.000235472867836205, 2.8975,318.736511230469
0.14599882, 229.946941899083, 0.000107713785026938, 2.91125,314.252075195313
0.146666093333333, 229.957339416944, 8.97071894839835E-05, 2.925,314.711486816406
0.14733231, 229.96859397326, -0.000108885835405225, 2.9375,318.354949951172
0.147998986666667, 229.979773651579, -9.27076480286529E-05, 2.95,314.082489013672
0.148665511666667, 229.991279889134, -0.000142028170694454, 2.965,314.082489013672
0.149332141666667, 230.001871247222, 3.15431110275336E-05, 2.97875,306.478485107422
0.149999125, 230.013008897395, 0.000172170047481522, 2.99,303.852081298828
0.150665508333333, 230.023601905402, 0.000491472509251948, 3.00375,306.481109619141
0.151332141666667, 230.033911470452, 0.000345030364887586, 3.0175,305.505187988281
0.151998818333333, 230.044705392024, 9.81217668315386E-05, 3.03125,305.505187988281
0.152665606666667, 230.055425500241, 7.4475454512138E-05, 3.04375,303.704284667969
0.153332306666667, 230.066428351527, -0.000179301298576657, 3.05625,294.586547851563
0.153998818333333, 230.077004504617, -0.000117913881961237, 3.07,301.743133544922
0.154665516666667, 230.087970393813, 0.000399803113673155, 3.08375,353.934295654297
0.155332495, 230.098646535793, 0.000726363710906192, 3.09625,353.934295654297
0.15599882, 230.109701274366, 0.000707257670605617, 3.10875,295.021057128906
0.156665458333333, 230.12052953256, 0.00098875753117949, 3.1225,294.541564941406
0.157332206666667, 230.131783451586, 0.000786501690259903, 3.135,301.960113525391
0.157998896666667, 230.142221968063, 0.000559623086149378, 3.14875,297.357513427734
0.158665495, 230.152923310229, 0.000521934479186219, 3.1625,297.357513427734
0.159332213333333, 230.163092639687, 0.000853494325305478, 3.175,291.880035400391
