Time (min), Depth (µm), Load (N), Position (µm), Acoustic (aJ)
7.19166666666667E-06, 227.859293837678, 0.00142885083557082, 0,235.938888549805
0.000666711666666667, 227.859517919576, 0.00117696848734341, 0.00499999999999999,245.943695068359
0.00133442833333333, 227.859620568291, 0.00123390562744671, 0.01625,245.943695068359
0.002001015, 227.859895215488, 0.00101723401062193, 0.03125,249.388687133789
0.00266766, 227.860472640929, 0.000860059905303157, 0.04625,259.318389892578
0.00333440166666667, 227.861274750921, 0.000914429174402996, 0.06,264.386901855469
0.004000065, 227.862487393811, 0.0010593728940122, 0.075,264.386901855469
0.00466786833333333, 227.864472997815, 0.00121520906652948, 0.08875,266.770263671875
0.00533435833333333, 227.866649844719, 0.00145080973255399, 0.1025,269.702606201172
0.00600113, 227.870077205259, 0.00145265164001874, 0.115,274.243835449219
0.00666768666666667, 227.875066402323, 0.00116042731813372, 0.12875,279.417144775391
0.00733453, 227.881545636719, 0.000994741140402434, 0.1425,279.417144775391
0.008001025, 227.889867791322, 0.000603206806753182, 0.15625,281.510314941406
0.00866768833333333, 227.899382166816, 0.00033560824797167, 0.17,287.484100341797
0.00933419166666667, 227.910287285567, 0.000469659514715308, 0.18375,341.517822265625
0.010000985, 227.921823327788, 0.00035301937342026, 0.19625,279.883819580078
0.0106676483333333, 227.933297067581, 0.000191003511277602, 0.21,279.883819580078
0.0113344133333333, 227.944911079856, 1.74247299548528E-05, 0.2225,287.020629882813
0.012001055, 227.957054261741, -7.52946128549985E-05, 0.23625,280.914367675781
0.012667875, 227.968471468855, -0.000269168874763902, 0.25125,285.424957275391
0.0133343233333333, 227.980094972019, -0.000199231887647142, 0.26375,280.742645263672
0.0140010233333333, 227.997969373489, 0.000186016261744098, 0.28,280.160705566406
0.0148342866666667, 228.009493240147, 0.000159142111598788, 0.29375,283.454406738281
0.0154999966666667, 228.021467005403, 6.4407816369269E-06, 0.30625,283.454406738281
0.01616668, 228.033067871543, 4.59622965184247E-05, 0.32,281.839385986328
0.0168342516666667, 228.04466023868, 1.81341943251184E-05, 0.33375,287.30517578125
0.0174997316666667, 228.056753150716, -0.000431081242080227, 0.34625,279.581420898438
0.0181674983333333, 228.068223632569, 1.92150862350942E-06, 0.36,283.294555664063
0.0188343233333333, 228.079938540727, 0.000249787058618868, 0.37375,283.294555664063
0.01950109, 228.092256338409, 1.46483693955783E-05, 0.3875,277.655487060547
0.0201676633333333, 228.104470836056, -0.00014196626399326, 0.40125,286.837036132813
0.02083424, 228.116774619297, -5.40616793467758E-05, 0.415,280.233795166016
0.0215000216666667, 228.129257673279, -0.000682653105849896, 0.4275,288.529937744141
0.0221664133333333, 228.140969379845, -0.000705192473747152, 0.44,288.529937744141
0.02283425, 228.153157011181, -0.000684925491703406, 0.45375,288.868682861328
0.0235008766666667, 228.165046113234, -0.000643151089985641, 0.46875,277.865173339844
0.024167695, 228.176388407523, -0.000258892890870584, 0.48,280.759613037109
0.02483441, 228.188684185352, 0.000135426802884362, 0.49375,280.759613037109
0.0254998833333333, 228.200960708389, 0.000137934676932946, 0.5075,343.358245849609
0.026167575, 228.213333241929, 0.00022633573662067, 0.52125,272.012603759766
0.0268342383333333, 228.225427781199, 0.000366179712387379, 0.53375,277.838073730469
0.0275008716666667, 228.237926716808, 8.45643576132009E-05, 0.54625,272.558990478516
0.0281678633333333, 228.250097807536, -6.5008129512112E-05, 0.56,272.558990478516
0.0288343583333333, 228.262208660557, -0.00051533051027584, 0.57375,267.748992919922
0.029500875, 228.274122997283, -0.000404357084375243, 0.58625,272.917633056641
0.03016765, 228.286015344941, -0.00014337019344725, 0.6,273.241363525391
0.0308342433333333, 228.297845983646, -8.24192549394485E-05, 0.6125,272.202941894531
0.0315008266666667, 228.309525447053, -0.000105335103883176, 0.62625,272.44921875
0.0321677533333333, 228.321362664415, 0.00011150150464721, 0.64,272.44921875
0.0328342133333333, 228.332848258331, 0.000219799064966059, 0.6525,271.016784667969
0.033500795, 228.344707806026, -2.5527112568248E-05, 0.66625,262.986175537109
0.0341676316666667, 228.356465911454, -7.94719029982026E-05, 0.67875,273.038543701172
0.0348342183333333, 228.36825316404, -0.000227031491255532, 0.6925,272.293762207031
0.03550096, 228.379414780383, -0.000125203106014401, 0.705,272.293762207031
0.0361677, 228.391307617405, -0.000494745544279858, 0.71875,273.085693359375
0.03683411, 228.403198803028, -0.000791142656577379, 0.73125,270.255523681641
0.037500925, 228.414678663567, -0.00105571286743611, 0.745,275.161010742188
0.038167565, 228.426238505982, -0.00102182656949408, 0.75875,272.093414306641
0.03883447, 228.438325627868, -0.00145932759429085, 0.77125,272.093414306641
0.0395013816666667, 228.449318240062, -0.00131313443741993, 0.785,273.334686279297
0.0401675366666667, 228.460632574361, -0.00138498682831846, 0.79875,276.700897216797
0.0408352266666667, 228.471510023428, -0.00105721429201882, 0.81,275.452545166016
0.041499905, 228.482186920744, -0.000897799299280253, 0.82375,332.325866699219
0.04216755, 228.491909227746, -0.000841838610133508, 0.83625,332.325866699219
0.04283367, 228.500882023024, -0.000714111025736709, 0.85,283.906219482422
0.04349965, 228.510560833044, -0.000358021411760769, 0.865,294.562591552734
0.0441662833333333, 228.520480298247, -0.000687457364521187, 0.8775,288.521331787109
0.0448330783333333, 228.530611627578, -0.000906330870710008, 0.89,301.163696289063
0.0455000166666667, 228.541880462531, -0.000703089579287448, 0.90375,301.163696289063
0.0461675516666667, 228.554035615209, -0.000975918375398301, 0.9175,296.419158935547
0.0468329733333333, 228.565237482726, -0.00114675979423877, 0.93125,294.052185058594
0.0474996416666667, 228.576967826614, -0.000779537739450234, 0.94375,295.398162841797
0.048166635, 228.588385426645, -0.000685045485719429, 0.9575,297.791625976563
0.0488343733333333, 228.600035736287, -0.000854049496868348, 0.97125,297.791625976563
0.0495012016666667, 228.611830556135, -0.00090329502333524, 0.985,297.016723632813
0.0501666383333333, 228.623288444946, -0.000924701948095495, 0.99875,295.63427734375
0.0508332316666667, 228.634447869472, -0.00120591982279654, 1.01,294.972564697266
0.05149966, 228.645839835039, -0.00132833467406433, 1.025,290.399017333984
0.052166635, 228.657285914609, -0.00128376591267319, 1.03875,290.399017333984
0.0528335816666667, 228.668245432051, -0.00136444536019394, 1.05125,296.9599609375
0.0534999616666667, 228.679274978574, -0.00138016907037005, 1.06375,303.557373046875
0.054166175, 228.690396066048, -0.00117770773978597, 1.0775,289.399353027344
0.05483336, 228.701407025205, -0.00101652433585715, 1.09,290.301910400391
0.0554999533333333, 228.711960000557, -0.000756419400648305, 1.10375,290.301910400391
0.05616728, 228.723173878064, -0.000572182154709407, 1.11875,289.998779296875
0.0568335066666667, 228.734123486785, -0.000306460001653927, 1.13125,295.501220703125
0.0575003016666667, 228.745246647369, -0.000215663562290372, 1.145,298.686920166016
0.0581663033333333, 228.755632750613, -0.00019000135129669, 1.1575,348.445068359375
0.0588333483333333, 228.766356194254, -0.000310071820275849, 1.17125,348.445068359375
0.0595010083333333, 228.776774776971, -0.000191504275782549, 1.185,292.535980224609
0.0601675833333333, 228.787557200954, -0.000478378366385967, 1.19875,292.539916992188
0.06083297, 228.797512532122, -0.000555024516548729, 1.21125,295.067413330078
0.0614993633333333, 228.807956792756, -0.000668520815741942, 1.225,296.188934326172
0.0621665766666667, 228.817739393798, -0.000558162358910443, 1.23875,296.188934326172
0.06283426, 228.827563302666, -0.000627673367475423, 1.25125,301.043701171875
0.0635008666666667, 228.836613475389, -0.000811370640565386, 1.265,303.06396484375
0.064167495, 228.845814818844, -0.000765003469538444, 1.27875,301.55126953125
0.064833395, 228.854857747822, -0.000898655756327054, 1.29125,302.238616943359
0.0655009366666667, 228.863569826502, -0.00090836476868967, 1.305,302.238616943359
0.0661682516666667, 228.87184513223, -0.000749908227772312, 1.31875,298.744445800781
0.066834265, 228.880402093107, -0.000324669087076338, 1.33125,295.680206298828
0.0675009133333333, 228.888985938252, -0.000399413332755703, 1.34375,295.451080322266
0.0681662916666667, 228.896906825931, -4.17262989927359E-05, 1.3575,297.713134765625
0.0688329766666667, 228.905031226073, 4.21599874972891E-05, 1.37125,297.713134765625
0.0694994016666667, 228.91338367957, -0.000185123596287131, 1.385,298.126190185547
0.07016633, 228.921740292924, -0.000400223292060987, 1.3975,290.544860839844
0.0708329683333333, 228.92942980531, -0.000280418309722458, 1.41,294.435607910156
0.07149988, 228.937323678409, -9.80724687536259E-05, 1.42375,293.842681884766
0.072166285, 228.945149911694, -0.000120085363079067, 1.4375,293.842681884766
0.072833215, 228.952798816494, 0.000224367835399768, 1.45,291.219940185547
0.0734997066666667, 228.960255549335, 0.00058712461449591, 1.465,292.705047607422
0.074166685, 228.967850894713, 0.00050112793405169, 1.47625,293.294647216797
0.0748332816666667, 228.975702011716, 0.000296689702764044, 1.49,353.670806884766
0.07549988, 228.982771441317, 0.000393442342995641, 1.50375,353.670806884766
0.0761664533333333, 228.989964894596, 0.000368203110747439, 1.51625,291.069183349609
0.0768330483333333, 228.997257841382, 0.000109863586858787, 1.53,296.487182617188
0.0774996366666667, 229.00433844719, 7.44188672067289E-05, 1.5425,299.412139892578
0.0781662916666667, 229.011204253333, 0.000110732043194543, 1.55625,300.89794921875
0.078833185, 229.018222731238, 9.22934693384343E-05, 1.56875,300.89794921875
0.0795010233333333, 229.025126797594, 0.000278450618853568, 1.5825,292.134826660156
0.0801667266666667, 229.032011872694, 0.000217075201697136, 1.59625,304.413848876953
0.08083301, 229.038753213949, 0.000321888437032103, 1.60875,294.667053222656
0.0814996816666667, 229.046033157349, 0.000186905717106517, 1.62125,297.332153320313
0.0821665616666667, 229.052969965416, 1.068556844204E-05, 1.635,297.332153320313
0.0828332166666667, 229.059808657969, -0.000376743471392856, 1.64875,299.957183837891
0.0835009283333333, 229.066957545062, -0.000215539068543648, 1.6625,299.672882080078
0.084166295, 229.075382481122, -0.000306494499936456, 1.67375,299.239349365234
0.0848333183333333, 229.083544394771, -0.000169278392191845, 1.6875,301.589477539063
0.0854997033333333, 229.092287891544, -0.000202444726292781, 1.70125,301.589477539063
0.08616657, 229.100876161025, -9.08248328681087E-05, 1.715,292.101776123047
0.0868333216666667, 229.108921802118, -0.000111069316003298, 1.72875,294.871765136719
0.0874998383333333, 229.116321717166, -0.000105113115177764, 1.7425,288.241302490234
0.08816693, 229.123588897809, -0.000259539358522183, 1.755,291.601501464844
0.0888332766666667, 229.130985570474, -0.000192707215409011, 1.76875,291.601501464844
0.0894994916666667, 229.138243308197, -0.000337049465247492, 1.7825,287.304931640625
0.09016665, 229.145837556405, -0.000616557425873773, 1.795,288.576843261719
0.0908333916666667, 229.153042148151, -0.000627676367366738, 1.80875,292.048645019531
0.0914999966666667, 229.159686785803, -0.000629795760909861, 1.8225,344.277770996094
0.0921664333333333, 229.16640157965, -0.000580424240814349, 1.835,344.277770996094
0.0928329566666667, 229.173005355723, -0.000292971179306258, 1.85,296.287780761719
0.0934997133333333, 229.17889140362, -5.77439945006673E-05, 1.8625,285.554901123047
0.0941663233333333, 229.185423368074, 0.000113074925431244, 1.875,297.060913085938
0.09483335, 229.192061963923, 0.000209038605256694, 1.88875,288.165222167969
0.095499655, 229.198716596019, 0.000276118235938912, 1.9025,288.165222167969
0.09616672, 229.205674850003, -0.000219218383806224, 1.915,293.627075195313
0.096833395, 229.212822268567, -0.000199024898100746, 1.92875,292.813629150391
0.09749963, 229.21963019066, -0.00038432709053599, 1.9425,288.935760498047
0.0981668433333333, 229.226937044367, -0.000436153987304717, 1.95625,287.242767333984
0.0988332466666667, 229.234231795867, -0.000721094675033524, 1.96875,287.242767333984
0.0995001583333333, 229.241175695664, -0.000316657989457022, 1.9825,293.658538818359
0.100166911666667, 229.248627055368, -0.000564966017215104, 1.99625,298.693511962891
0.100833233333333, 229.256071190499, -0.000621346685301031, 2.00875,289.6171875
0.101500295, 229.263450819458, -0.000559446294518443, 2.0225,291.061370849609
0.102166368333333, 229.271182895878, -0.00034097626805786, 2.03625,291.061370849609
0.102832968333333, 229.27979112943, -0.000671846148781588, 2.05,294.406219482422
0.10349946, 229.288210316096, -0.000599354789959744, 2.0625,296.853607177734
0.104166601666667, 229.296628385755, -0.000415099544906752, 2.07625,290.351379394531
0.104833205, 229.305314039227, -0.000643598067627844, 2.08875,295.777221679688
0.10549966, 229.313470914099, -0.000800134704926459, 2.10375,295.777221679688
0.106166285, 229.321679852734, -0.000438691859841365, 2.1175,289.737091064453
0.106833635, 229.329118963463, -0.000502554152104734, 2.13,296.989654541016
0.107500816666667, 229.337044215051, -0.00052061474494746, 2.14375,354.433807373047
0.108166663333333, 229.3449834641, -0.000497152923414676, 2.15625,295.610595703125
0.108833386666667, 229.353366154731, -0.000461034737599286, 2.17,295.610595703125
0.109499868333333, 229.360646208681, -0.000466126981819764, 2.18375,295.81982421875
0.11016765, 229.36934168818, -0.000370157302254192, 2.19625,299.082672119141
0.110833056666667, 229.377244336816, -0.000676890395378654, 2.20875,307.56298828125
0.111499893333333, 229.385329934374, -0.000702470110530157, 2.2225,303.320190429688
0.112166308333333, 229.393006898872, -0.000780542689055466, 2.23625,303.320190429688
0.112833008333333, 229.40179640997, -0.000761538643571804, 2.24875,301.289031982422
0.11349951, 229.409936107359, -0.000746317408134544, 2.26375,302.463470458984
0.114166676666667, 229.41871182207, -0.000554468044510104, 2.275,292.128692626953
0.114833115, 229.427335569255, -0.000390649272958427, 2.28875,299.830322265625
0.115499855, 229.437025764977, -0.000285903534221607, 2.3025,299.830322265625
0.116166325, 229.446408672769, -0.000433163137534522, 2.315,297.539642333984
0.116833341666667, 229.456370594951, -0.000584808520525203, 2.32875,288.789123535156
0.117501258333333, 229.466234567643, -0.000735079972571213, 2.34125,293.631713867188
0.118166373333333, 229.476439762984, -0.000774094512940647, 2.355,293.344421386719
0.118832958333333, 229.4865199346, -0.000762134113687422, 2.36875,293.344421386719
0.119499876666667, 229.496303242735, -0.00088081865230543, 2.38125,292.309112548828
0.120167821666667, 229.50629525981, -0.00056137069782538, 2.395,293.121520996094
0.120834248333333, 229.515960845658, -0.000418106893802874, 2.4075,296.091003417969
0.121499858333333, 229.525973882843, -0.000493382112784755, 2.42125,290.734832763672
0.122166296666667, 229.535945804471, -0.000894994440263587, 2.435,290.734832763672
0.122832948333333, 229.546270734762, -0.000734851984040664, 2.4475,295.919830322266
0.12349956, 229.556498602834, -0.00087856426554476, 2.46125,287.43408203125
0.124166586666667, 229.567175629243, -0.000967676289548407, 2.47375,359.375610351563
0.124832995, 229.577255916888, -0.000874553467031571, 2.48625,300.870086669922
0.125499641666667, 229.5874733945, -0.000540413750492373, 2.5,300.870086669922
0.126166516666667, 229.597806048326, -0.000700667201121138, 2.5125,301.314392089844
0.126833405, 229.608420256491, -0.000822288592188315, 2.52625,300.797790527344
0.127499355, 229.618967773655, -0.000638169840298528, 2.54,281.449737548828
0.128166296666667, 229.629191044952, -0.000678528313145823, 2.55375,287.034729003906
0.128833015, 229.639803186744, -0.000557898372279232, 2.56625,287.034729003906
0.129499738333333, 229.649644533141, -0.000416615968733495, 2.58125,283.007537841797
0.1301663, 229.659615419419, -0.000333112163072571, 2.59375,280.424530029297
0.130833331666667, 229.669633334655, -0.000404318086468283, 2.60625,290.013458251953
0.131499711666667, 229.68002945881, -8.36026956336846E-05, 2.62,283.6201171875
0.132167683333333, 229.689822011112, -0.000177538477347119, 2.6325,283.6201171875
0.13283324, 229.700070139999, 0.000118162669899766, 2.64625,281.052490234375
0.133499653333333, 229.710124808448, 0.000394534288046229, 2.66,287.912902832031
0.13416678, 229.72084345907, 0.000601436895532256, 2.67375,281.837738037109
0.134833468333333, 229.731230395943, 0.000561013925935621, 2.6875,281.337219238281
0.135500026666667, 229.742093472736, 0.00045236688316705, 2.70125,281.337219238281
0.1361663, 229.753283040305, 8.31934263473035E-05, 2.71375,290.822998046875
0.136832981666667, 229.763606767986, -0.00015706750558453, 2.7275,288.604156494141
0.137501098333333, 229.773209027635, -0.000204058645269498, 2.74,276.609130859375
0.138166701666667, 229.783085792059, -0.000423506622611037, 2.75375,283.855010986328
0.138832971666667, 229.792666134814, -0.000540446748850499, 2.7675,283.855010986328
0.139499926666667, 229.802302114251, -0.000479272321564104, 2.78,284.565124511719
0.14016629, 229.812261308498, -0.000594732022162501, 2.79375,288.602600097656
0.14083301, 229.822879571622, -0.000636314433535395, 2.8075,338.513702392578
0.141499906666667, 229.833155794819, -0.000615886959559246, 2.82125,280.402862548828
0.142166656666667, 229.843237188892, -0.00016187626402903, 2.83375,280.402862548828
0.142833256666667, 229.853254714736, -0.000104003170949321, 2.8475,287.585632324219
0.143499971666667, 229.863784217861, 0.000130357057381154, 2.86125,283.958587646484
0.14416687, 229.873728278931, -8.15972963664633E-05, 2.87375,278.785491943359
0.144833363333333, 229.884401236391, 9.29399367987466E-05, 2.8875,281.439392089844
0.145499758333333, 229.894822868189, 8.51223294699586E-05, 2.9,281.439392089844
0.146166308333333, 229.905993799377, 0.000181188004218593, 2.915,283.456604003906
0.146833258333333, 229.916725194199, 0.000190055558820948, 2.92875,280.600341796875
0.14750003, 229.927486394674, 0.000318780593094692, 2.94,275.674774169922
0.148167605, 229.937659495216, 0.000671613870638553, 2.95375,273.086822509766
0.148832978333333, 229.948486283923, 0.000468093593234479, 2.9675,273.086822509766
0.149500078333333, 229.959231728804, 0.000193038908947872, 2.98125,273.979431152344
0.15016631, 229.970203287506, 0.000301853943270862, 2.995,273.413360595703
0.150833448333333, 229.98093404385, 0.000389712030260845, 3.0075,274.225006103516
0.151500941666667, 229.992684241465, 2.5698314280977E-05, 3.02,270.890716552734
0.152166671666667, 230.003655439917, 3.15780189406903E-05, 3.03375,270.890716552734
0.152833305, 230.014131712231, 0.000350285010616752, 3.0475,264.464935302734
0.153499696666667, 230.024546920693, 0.000456437678656369, 3.06,271.432861328125
0.154166495, 230.035226043863, 0.000424132301332937, 3.07375,270.284271240234
0.154833316666667, 230.045154167325, 0.000382057914692012, 3.08625,259.743011474609
0.155499668333333, 230.055563589087, 0.00062500671160082, 3.1,259.743011474609
0.156166543333333, 230.065291598966, 0.000700794904834885, 3.1125,267.328704833984
0.156832961666667, 230.075517704594, 0.000460550472092741, 3.125,267.288421630859
0.15750003, 230.085454045586, 0.000596602638351646, 3.13875,320.677642822266
0.158166731666667, 230.095585391511, 0.000576460150075878, 3.1525,264.760437011719
0.158832991666667, 230.105522250505, 0.000599095513113688, 3.165,264.760437011719
0.159500021666667, 230.115943923407, 0.000343305861178164, 3.17875,268.359283447266
0.160166313333333, 230.125801347191, 0.000657898559493451, 3.1925,275.432861328125
