Time (min), Depth (µm), Load (N), Position (µm), Acoustic (aJ)
9.23E-06, 241.295256638527, -0.000549370088670336, 0,272.953002929688
0.000666526666666667, 241.294964735803, -0.000495185310314606, 0.0049999999999998,272.024597167969
0.00133283833333333, 241.296671620866, -0.000348270689678202, 0.0212500000000004,269.691131591797
0.00216622333333333, 241.300756858057, -0.000501829976547505, 0.0375000000000011,273.051818847656
0.00283372666666667, 241.30686361228, -0.000546128751461035, 0.0512500000000009,273.051818847656
0.00349956666666667, 241.315269747604, -0.000875059229633793, 0.0650000000000008,275.420257568359
0.00416655333333333, 241.325825314199, -0.0010051251965791, 0.0775000000000012,275.5634765625
0.00483296166666667, 241.336818260198, -0.00104121188396077, 0.0925000000000006,288.335418701172
0.00549981, 241.347425409156, -0.000693319358230147, 0.10625,296.637634277344
0.00616633166666667, 241.357699062085, -0.000444324365010356, 0.12,296.637634277344
0.006832975, 241.367668960951, -0.000122454032172709, 0.132500000000001,299.156585693359
0.00749949833333333, 241.377471234742, -7.5162907543327E-05, 0.146250000000001,300.988525390625
0.00816627166666667, 241.387313502413, -5.19695725424889E-05, 0.158750000000001,295.046539306641
0.008832795, 241.397014756469, -0.000152373029387984, 0.172500000000001,302.761260986328
0.00949950833333333, 241.406724736909, -5.29640225918817E-05, 0.186250000000001,302.761260986328
0.010166455, 241.414983528986, -0.000320783070366943, 0.198750000000001,296.599884033203
0.0108327233333333, 241.422640687579, -0.000266061318989831, 0.212500000000001,300.482666015625
0.0114995033333333, 241.430606310239, -0.000478152165900653, 0.2275,319.116577148438
0.012332945, 241.438222763945, -0.00060827812977958, 0.242500000000001,320.687225341797
0.012999575, 241.446085729217, -0.000841369421831104, 0.255,387.625701904297
0.0136662616666667, 241.455140849231, -0.000757382640406061, 0.26875,387.625701904297
0.0143328033333333, 241.464449267242, -0.000873818791939757, 0.2825,327.441040039063
0.0149996466666667, 241.473885020344, -0.00048623375990316, 0.295,336.189025878906
0.01566637, 241.483640455476, -0.000283244455865364, 0.30875,344.261596679688
0.0163332333333333, 241.49372523872, -0.0004548463364633, 0.3225,337.085388183594
0.016999535, 241.503616053594, -0.000152625016708986, 0.335,337.085388183594
0.017666185, 241.513815557067, 8.86423646887208E-05, 0.350000000000001,347.355773925781
0.0183328416666667, 241.524161612949, -7.80322634156035E-05, 0.3625,338.751037597656
0.0189999633333333, 241.534322539256, -0.000107066305084178, 0.37625,337.686492919922
0.01966623, 241.544760466652, 0.000407064370664401, 0.38875,335.730895996094
0.0203328216666667, 241.555413193408, 0.00024887031660263, 0.4025,335.730895996094
0.020999505, 241.56588186963, 0.000425114464036304, 0.41625,335.555908203125
0.02166638, 241.576649834126, 0.000289668267363841, 0.42875,333.980346679688
0.0223329583333333, 241.587744893738, 0.000466728373821667, 0.4425,333.079895019531
0.0229996233333333, 241.598196026803, 0.000215254005095701, 0.45625,337.280303955078
0.02366646, 241.608990890754, 0.000278216342525828, 0.47,337.280303955078
0.02433275, 241.619543739608, 6.36401204537259E-05, 0.48375,339.462921142578
0.0249997416666667, 241.62967138862, 0.00026104370507861, 0.49625,331.539794921875
0.0256685533333333, 241.639570060656, 5.08172645411026E-05, 0.51,331.301635742188
0.0263327966666667, 241.650227625242, -1.06886461021747E-05, 0.5225,330.811431884766
0.0269994983333333, 241.660228860893, 0.000104297078299777, 0.53625,330.811431884766
0.0276664616666667, 241.670557159906, -3.91692155384228E-05, 0.55,338.315856933594
0.0283329483333333, 241.681440905812, -0.000220916586542831, 0.5625,334.402770996094
0.028999635, 241.691743410415, -0.000105153901193721, 0.57625,340.402465820313
0.0296666666666667, 241.701518515624, -4.63328556998657E-05, 0.59,405.601043701172
0.03033361, 241.712392589196, -7.19410694150308E-05, 0.60375,405.601043701172
0.0309997083333333, 241.722983275393, 0.000172665144256934, 0.616250000000001,341.821441650391
0.0316662333333333, 241.733799362161, 0.000375282467000214, 0.63,334.318603515625
0.0323328316666667, 241.745163179544, 0.000342794098835822, 0.64375,343.056732177734
0.03300016, 241.755796591619, 0.000764784402679224, 0.656250000000001,343.771728515625
0.03366628, 241.766492163964, 0.000950529072919699, 0.67,343.771728515625
0.0343327166666667, 241.777414998533, 0.000812810490372472, 0.682500000000001,336.598846435547
0.0349996, 241.788051599746, 0.000660619134792735, 0.696250000000001,342.218109130859
0.03566646, 241.79903607797, 0.000463032559390654, 0.708750000000001,346.195281982422
0.03633296, 241.809855998553, 0.000318499819110451, 0.722500000000001,330.141571044922
0.0370003366666667, 241.820400891389, 0.000491412633913138, 0.736250000000001,330.141571044922
0.03766618, 241.830903135312, 0.000642743032757881, 0.750000000000001,330.899963378906
0.03833282, 241.841407805866, 0.000568865743511123, 0.7625,332.347991943359
0.0389995833333333, 241.851624461621, 0.000930073100443651, 0.775,326.212493896484
0.039666435, 241.862501893006, 0.000828564199142922, 0.78875,329.782043457031
0.0403328616666667, 241.873229443089, 0.00040094917778836, 0.8025,329.782043457031
0.0409996866666667, 241.883541264215, 0.000222003666058082, 0.816250000000001,332.015411376953
0.041666505, 241.893721087621, 0.000557700304340403, 0.828750000000001,321.14404296875
0.0423327633333333, 241.903798554571, 0.000515409928542901, 0.841250000000001,326.803405761719
0.0429995166666667, 241.919243669411, 0.000193392603134988, 0.857500000000001,326.803405761719
0.0438328616666667, 241.929695551004, 0.000497790313517241, 0.871250000000001,323.894775390625
0.0444996666666667, 241.940077583243, 0.000492405584016873, 0.885,323.894775390625
0.04516617, 241.950338420909, 0.000272435632897984, 0.897500000000001,331.596527099609
0.0458329133333333, 241.960673894584, 0.000171804187500685, 0.911250000000001,327.999908447266
0.0464996533333333, 241.97065117344, 0.000373239569622911, 0.923750000000001,398.406463623047
0.0471662366666667, 241.980585566638, 0.00029866631538928, 0.937500000000001,329.037719726563
0.0478328216666667, 241.990967832059, 0.000160197770512899, 0.951250000000001,329.037719726563
0.0484996, 242.001174754811, 0.000396381907236547, 0.96375,339.072906494141
0.04916698, 242.011535794727, 0.000424623988650169, 0.976250000000001,340.459503173828
0.0498335733333333, 242.022090157234, 0.000341741151755956, 0.99,340.818481445313
0.0504996066666667, 242.032176444056, 3.25946798628249E-05, 1.0025,341.959075927734
0.051167235, 242.042840190933, -0.000271999520658763, 1.01625,341.959075927734
0.05183285, 242.053415749726, -0.000382180986346915, 1.03,339.416168212891
0.0524996516666667, 242.064313217517, -0.000393989893214158, 1.04125,345.66943359375
0.0531662283333333, 242.07518670228, -0.000731576436584649, 1.05625,335.200836181641
0.053832955, 242.086673886456, -0.00070423580986491, 1.07,334.02392578125
0.0544995116666667, 242.09664928772, -0.000433430412156626, 1.08375,334.02392578125
0.0551665583333333, 242.107803904248, -0.000740214502753306, 1.0975,329.907501220703
0.0558328383333333, 242.117418505946, -0.000512639933592145, 1.11,331.018890380859
0.056499475, 242.127103382963, -0.000171414573002982, 1.12375,333.415924072266
0.0571670133333333, 242.136521541631, -0.000110687123273774, 1.1375,327.598968505859
0.05783284, 242.14620269819, -5.62728564418373E-05, 1.15,327.598968505859
0.0584994883333333, 242.155292810729, 0.000164442557275504, 1.16375,326.132904052734
0.0591667033333333, 242.165173261522, -0.000123202494641221, 1.17625,328.506652832031
0.05983281, 242.174563023201, 3.89768592613919E-05, 1.19,327.000457763672
0.060500165, 242.184279184322, 8.96338148255446E-05, 1.20375,330.144836425781
0.0611664116666667, 242.19329542389, 0.000103280129384335, 1.2175,330.144836425781
0.061832805, 242.202476584343, 0.000174879033037462, 1.23,331.844329833984
0.062499525, 242.211318802961, 7.76104187686365E-05, 1.24375,328.495391845703
0.0631662633333333, 242.21992756225, 9.82478821612412E-05, 1.25625,394.192352294922
0.0638331416666667, 242.228143985134, 0.000403463051534556, 1.27,344.413818359375
0.064499505, 242.237359312342, -7.65758366074992E-05, 1.285,344.413818359375
0.0651664283333333, 242.245986993295, 9.89738457211967E-05, 1.2975,336.121063232422
0.0658328983333333, 242.254813611346, 4.0046159026308E-06, 1.31125,325.969909667969
0.066499615, 242.263497074938, -0.000128461230491715, 1.32375,329.548309326172
0.0671663333333333, 242.272645485654, -0.000291947018783361, 1.3375,329.548309326172
0.06783313, 242.28122828405, -7.72553025322078E-05, 1.35125,330.343200683594
0.0684996083333333, 242.290404676865, -0.000308717676384236, 1.365,326.726013183594
0.0691663866666667, 242.299859391289, -0.000210777095833972, 1.3775,330.723846435547
0.0698328183333333, 242.309456282388, -0.000326976259269446, 1.39125,323.759765625
0.0704994933333333, 242.318651068754, -0.000470544548009575, 1.40375,325.375
0.0711664533333333, 242.328085549715, -0.000239703142945512, 1.4175,325.375
0.0718328866666667, 242.337270742638, -8.87522250810643E-05, 1.43125,329.260131835938
0.072499485, 242.34638431443, -0.000100834118210954, 1.44375,330.967407226563
0.073166235, 242.355347258859, -0.00019570435299765, 1.4575,328.501098632813
0.0738328016666667, 242.363886440982, -2.23310613394013E-05, 1.47125,337.31591796875
0.0744996533333333, 242.372814003441, -6.54733943254782E-05, 1.485,337.31591796875
0.0751662166666667, 242.381500896508, 7.79792535609278E-06, 1.4975,330.777618408203
0.0758328933333333, 242.389675439966, 0.000230697229344643, 1.51125,335.436187744141
0.07649963, 242.398466061152, 0.000316738907584723, 1.525,336.141174316406
0.0771661833333333, 242.407221379209, 0.000400874181546943, 1.5375,339.213256835938
0.0778330583333333, 242.416448561145, 0.000396863383012501, 1.55125,339.213256835938
0.07849954, 242.425480427199, 0.000179342808826705, 1.565,340.165924072266
0.0791661683333333, 242.435479794825, 0.000234648030881701, 1.5775,408.216461181641
0.0798328266666667, 242.445514995647, 0.000161465206782431, 1.59,340.744201660156
0.0804999633333333, 242.456705823651, -4.00662877393219E-07, 1.60375,335.019104003906
0.0811669966666667, 242.467357459364, -0.000170052641411028, 1.6175,335.019104003906
0.081832845, 242.478551456501, -0.000461772988611536, 1.63125,337.711944580078
0.0824995266666667, 242.489231839679, -0.000633955340038549, 1.64375,335.951171875
0.0831662083333333, 242.49993882741, -0.000796268187191798, 1.6575,336.905364990234
0.0838327966666667, 242.510223163275, -0.00100274031628907, 1.67,333.099334716797
0.0845005483333333, 242.520831105077, -0.00113127785999116, 1.68375,333.099334716797
0.08516632, 242.530635864128, -0.000708015619998742, 1.6975,330.466461181641
0.0858328033333333, 242.541056195201, -0.000612387923303384, 1.71,335.380401611328
0.0864995083333333, 242.551323138263, -0.000624282325861612, 1.7225,329.365203857422
0.0871662116666667, 242.56106234512, -0.000379940098905875, 1.73625,327.498199462891
0.0878335583333333, 242.571008426126, -0.000254769886062966, 1.74875,327.498199462891
0.088499835, 242.581974646498, -0.000560654021847659, 1.7625,325.110992431641
0.089166335, 242.591782095682, -0.00059224993482208, 1.77625,329.892272949219
0.0898329033333333, 242.601368086766, -0.00055589626083287, 1.78875,328.811737060547
0.0904996166666667, 242.610805528284, -0.00069234140734919, 1.8025,325.022888183594
0.0911661433333333, 242.619873016389, -0.0005757492636563, 1.81625,325.022888183594
0.0918328533333333, 242.628441995359, -0.000515753777163407, 1.82875,325.839447021484
0.0924996616666667, 242.637471024659, -0.000478069669994711, 1.84125,336.079559326172
0.0931663483333333, 242.646850932245, -0.000401191031506936, 1.855,330.706787109375
0.093832845, 242.656240402751, -0.000482591942835681, 1.86875,329.2314453125
0.094499605, 242.666654248878, -0.000641477462217388, 1.88125,329.2314453125
0.09516645, 242.676559191451, -0.000553137899408942, 1.895,336.124694824219
0.095833055, 242.686682166962, -0.000697816132356261, 1.90875,375.304779052734
0.0964997016666667, 242.696810055973, -0.000673278864856309, 1.92125,315.143585205078
0.0971665933333333, 242.707174237977, -0.000403088436217123, 1.935,311.364654541016
0.0978330116666667, 242.71672048886, -0.000556974706648845, 1.94875,311.364654541016
0.0984999966666667, 242.727198911044, -0.000654823791789256, 1.9625,318.255310058594
0.099167775, 242.736956792656, -0.000902708840780603, 1.975,314.855407714844
0.0998346166666667, 242.747008609113, -0.000850436466336584, 1.9875,319.431091308594
0.100501688333333, 242.756973316786, -0.000994790715591545, 2.00125,314.325469970703
0.10116787, 242.766778771941, -0.000761966410105056, 2.01625,314.325469970703
0.101834641666667, 242.776567875374, -0.000792303886313857, 2.0275,311.321838378906
0.102501115, 242.786616566598, -0.000785798713092969, 2.04125,314.850433349609
0.10316643, 242.796239032611, -0.000880955433461942, 2.055,317.422729492188
0.10383303, 242.805945043914, -0.000823845802009761, 2.06875,319.875427246094
0.104499645, 242.815788508615, -0.00117704806104184, 2.0825,319.875427246094
0.105167238333333, 242.825324751739, -0.000861865892308548, 2.09625,311.358489990234
0.105833826666667, 242.835030645961, -0.000603092890203592, 2.10875,318.354766845703
0.1065, 242.84489595305, -0.000295065362042816, 2.1225,313.586822509766
0.107167696666667, 242.854506520257, -0.000552053453831592, 2.135,318.596618652344
0.107833016666667, 242.864336414895, -0.000340280590936769, 2.14875,318.596618652344
0.10849982, 242.874158661761, -0.000432866440432222, 2.1625,312.268951416016
0.10916799, 242.883966090743, -0.000584088844677422, 2.175,314.057861328125
0.109833025, 242.893638871527, -0.00099541618415272, 2.18875,313.563018798828
0.110500023333333, 242.903949329022, -0.000816757158025972, 2.2025,319.860168457031
0.111166486666667, 242.913755176611, -0.000812083392777765, 2.21625,319.860168457031
0.111832948333333, 242.923953057189, -0.00102464671598188, 2.22875,315.2138671875
0.11249998, 242.934129672843, -0.000986023655966716, 2.2425,378.236572265625
0.113167393333333, 242.944542402296, -0.00081956801688903, 2.25625,310.109893798828
0.113833035, 242.954627858559, -0.000553748368704831, 2.26875,311.518249511719
0.114499791666667, 242.964870826197, -0.000541747471492717, 2.2825,311.518249511719
0.1151667, 242.975081456529, -0.000413895393349194, 2.295,309.09375
0.115833276666667, 242.985205313299, -0.000126245841701767, 2.30875,301.032196044922
0.116500046666667, 242.995094618338, -0.000304175904462261, 2.3225,301.91650390625
0.11716649, 243.005308727136, -0.000434057380663458, 2.33625,303.621337890625
0.117833276666667, 243.015338432645, -0.000447847688007469, 2.34875,303.621337890625
0.11849978, 243.024903876618, -0.000217436761310904, 2.3625,300.159606933594
0.119166673333333, 243.034972034354, -0.000333170948096351, 2.375,297.629272460938
0.119833241666667, 243.044692254917, 0.000126165979903759, 2.38875,299.636047363281
0.120500281666667, 243.054570790853, 9.01467891414917E-05, 2.4025,295.064697265625
0.121166486666667, 243.064478873544, -6.73123018564132E-05, 2.415,295.064697265625
0.121833303333333, 243.074120377612, -0.000163016494738846, 2.42875,296.798767089844
0.122500916666667, 243.083604111999, -0.000266776782972693, 2.44125,295.949005126953
0.123166445, 243.093025430354, -0.000524892818082752, 2.455,289.650543212891
0.123833391666667, 243.102735753419, -0.000566575724411918, 2.4675,283.570709228516
0.12450019, 243.112460111544, -0.000680650994488551, 2.48125,283.570709228516
0.125166516666667, 243.122333844242, -0.000582138942634375, 2.495,286.963226318359
0.125834995, 243.132000433989, -0.000499202108482899, 2.5075,284.813201904297
0.126668033333333, 243.141882541491, -0.00064324887317143, 2.52375,289.681213378906
0.127334716666667, 243.15139494651, -0.000502512442236004, 2.53625,231.484420776367
0.128001345, 243.161161204681, -0.00040859315971226, 2.55,286.471038818359
0.128668298333333, 243.170934861347, -0.000566460230211613, 2.56375,286.471038818359
0.129334045, 243.180854716456, -0.000578921604258035, 2.5775,338.340759277344
0.12999993, 243.190860054692, -0.00034145653186021, 2.59,295.465393066406
0.130666533333333, 243.200781639555, -0.00038779820419355, 2.6025,293.568817138672
0.131333288333333, 243.210944542864, -0.000413647905801402, 2.61625,294.641235351563
0.131999863333333, 243.220851902288, -2.85872470030781E-05, 2.62875,294.641235351563
0.132666606666667, 243.230872972288, 9.10797422478426E-05, 2.6425,294.004486083984
0.133333231666667, 243.240918858724, -4.13906039197132E-05, 2.655,298.758209228516
0.134000021666667, 243.250828841743, -1.33780109822979E-05, 2.66875,303.642852783203
0.134666655, 243.260476533425, 0.000434415496769947, 2.68125,307.153411865234
0.135333086666667, 243.270342100449, 0.000304780008234647, 2.695,307.153411865234
0.135999818333333, 243.280422548615, 7.5867506229477E-05, 2.70875,307.434539794922
0.136668018333333, 243.290467771264, 2.92167024968352E-06, 2.7225,305.368377685547
0.137333145, 243.301043949505, -6.71683092199711E-05, 2.735,319.884246826172
0.137999826666667, 243.311135010684, -0.000269802131110433, 2.74875,302.594909667969
0.1386665, 243.32136727063, -0.000452254466711897, 2.76125,302.594909667969
0.139333148333333, 243.331583764527, -0.000483874378434262, 2.775,289.752655029297
0.140000636666667, 243.342349813735, -0.00032114605211504, 2.7875,284.215728759766
0.1406667, 243.352469885197, -0.000518203154117755, 2.8025,287.103179931641
0.141333235, 243.363913617414, -0.000539686575001321, 2.81625,293.915863037109
0.141999816666667, 243.37513785462, -0.000267981222502304, 2.82875,293.915863037109
0.142666493333333, 243.386346783054, -0.000129014702639025, 2.8425,286.173431396484
0.143333135, 243.397041903732, -0.000455908283110839, 2.855,286.337585449219
0.143999853333333, 243.408515761212, -0.000886976131036815, 2.86875,279.866821289063
0.144666623333333, 243.418531595151, -0.000411798498757136, 2.8825,275.422302246094
0.14533308, 243.42904178443, -0.000659223070871667, 2.89625,275.422302246094
0.145999973333333, 243.439624960667, -0.000558585625798009, 2.90875,343.436737060547
0.146666461666667, 243.450684387325, -0.000302166005485592, 2.9225,282.785369873047
0.147333373333333, 243.461045282286, 6.78894070107946E-05, 2.935,281.521362304688
0.148000508333333, 243.472131148501, -0.000268816680564951, 2.94875,285.168548583984
0.148667618333333, 243.483212135555, -0.000356652268667631, 2.9625,285.168548583984
0.149333188333333, 243.494154016446, -0.000599640063653432, 2.97625,290.824859619141
0.149999938333333, 243.504831133015, -0.000316022309482093, 2.98875,284.049072265625
0.150666728333333, 243.515256032014, 5.23831858731529E-05, 3.0025,288.971893310547
0.151333105, 243.525882630071, -3.55828956738645E-05, 3.01625,279.921539306641
0.151999905, 243.536482272295, 0.0001150110401401, 3.03,279.921539306641
0.152666866666667, 243.547119039459, 0.000179300810943414, 3.04375,280.285858154297
0.153333498333333, 243.557420884588, -4.04516511157492E-05, 3.05625,281.334625244141
0.154000251666667, 243.568285646228, -0.000181014090799143, 3.07,282.281433105469
0.154666786666667, 243.579176919442, -0.00050490182225673, 3.08375,279.159851074219
0.155333118333333, 243.590173389236, -0.00055434533878736, 3.09625,279.159851074219
0.156000676666667, 243.600898502496, -0.000410241576950251, 3.11,282.598236083984
0.156666981666667, 243.612450117129, -0.000538461136615081, 3.1225,278.086181640625
0.15733507, 243.623594486679, -0.000655353265273639, 3.13625,280.920166015625
0.157999873333333, 243.634191898291, -4.0322657617069E-05, 3.15,281.615173339844
