Time (min), Depth (µm), Load (N), Position (µm), Acoustic (aJ)
9.39666666666667E-06, 241.152550792574, 0.000600819932805579, 0,246.492248535156
0.000666136666666667, 241.152385265809, 0.000345559754290676, 0.00750000000000056,242.654724121094
0.00133281666666667, 241.153656446609, 0.000397271156901606, 0.0187500000000014,244.79768371582
0.00199944, 241.155632987986, 0.000199101110757879, 0.0325000000000013,249.622131347656
0.00266609333333333, 241.159877615234, 0.000259297587142063, 0.0475000000000007,256.437347412109
0.00333271166666667, 241.165918418228, 0.000195816275740883, 0.0612500000000005,256.437347412109
0.00399938833333333, 241.174612559413, -0.000130189349356677, 0.0775000000000012,265.052307128906
0.00483277166666667, 241.189056342924, -0.000282568195550584, 0.0925000000000006,269.419036865234
0.00549963, 241.199229155987, -0.000300234308211491, 0.10625,279.94384765625
0.006166145, 241.208933035871, -5.82529627128171E-05, 0.12,272.074584960938
0.00683281333333333, 241.218907926668, 6.86766617951781E-05, 0.13375,282.380767822266
0.00749938166666667, 241.228449615062, 0.000439635028994867, 0.150000000000001,282.380767822266
0.00833273666666667, 241.238208669256, 0.000401470945932113, 0.162500000000001,285.424713134766
0.00899968833333333, 241.248142543743, 0.000652511836399267, 0.176250000000001,347.658660888672
0.00966632, 241.258966690014, 0.000515367725004758, 0.188750000000001,287.271697998047
0.0103327333333333, 241.268407335428, 7.10270437601651E-05, 0.202500000000001,295.400695800781
0.01099984, 241.278044287581, -0.000234485110687503, 0.216250000000001,309.119659423828
0.01166608, 241.287488123978, -0.000417301927982721, 0.22875,309.119659423828
0.0123327366666667, 241.297415450917, -0.000801279641170606, 0.242500000000001,311.723297119141
0.0129996183333333, 241.306391508328, -0.000988993712471371, 0.256250000000001,318.864471435547
0.0136660466666667, 241.316796232888, -0.000952589041009941, 0.26875,322.630920410156
0.0143329983333333, 241.327547432059, -0.00101055662939082, 0.2825,322.630920410156
0.01499949, 241.338216176707, -0.000671185175682893, 0.295,328.93408203125
0.0156660366666667, 241.348731147611, -0.00055102921097024, 0.30875,330.351226806641
0.0163328033333333, 241.359847347376, -0.000280957276443928, 0.3225,327.329986572266
0.01699938, 241.371117334375, -5.59625777027063E-05, 0.33625,331.534332275391
0.0176662733333333, 241.382168674645, 0.000233522881754374, 0.350000000000001,334.849822998047
0.01833292, 241.393589784437, 1.66262762478578E-05, 0.3625,334.849822998047
0.0189993866666667, 241.404592573417, -3.4935133858984E-05, 0.37625,332.302947998047
0.0196660233333333, 241.415644680445, 1.3830416671341E-05, 0.39,337.020355224609
0.020332725, 241.426303006846, -0.000282893679167345, 0.4025,327.026763916016
0.02099938, 241.437392564123, -0.000687376862379094, 0.417500000000001,326.761322021484
0.0216661716666667, 241.44749280629, -0.000489847284083083, 0.42875,326.761322021484
0.0223329033333333, 241.458234182147, -0.000161041299678304, 0.4425,336.518829345703
0.0229994316666667, 241.468703899292, -0.000241245271099454, 0.45625,336.144256591797
0.0236660583333333, 241.479163395424, -0.000113885168245215, 0.47,329.726928710938
0.0243327416666667, 241.489131494535, 0.000196747728986593, 0.4825,332.714599609375
0.024999665, 241.500064222807, 2.11515489801424E-05, 0.49625,332.714599609375
0.0256660583333333, 241.51081381091, -0.000367568925999754, 0.50875,399.303100585938
0.026332725, 241.521161700656, -0.000177175989247181, 0.52375,328.352447509766
0.0269994, 241.532433981564, -2.89874020133075E-07, 0.53625,331.892578125
0.0276661083333333, 241.543052277752, 8.25524648726834E-05, 0.55,327.918853759766
0.0283329633333333, 241.554292690048, -1.36992005019548E-05, 0.56375,327.918853759766
0.028999395, 241.564501522896, 0.000287968647083795, 0.57625,328.739105224609
0.029666065, 241.575289247189, 8.65002665821892E-05, 0.59,334.423309326172
0.0303327216666667, 241.585203781342, 0.00011628727040747, 0.60375,333.989166259766
0.0309993933333333, 241.595938553717, -0.000339445338592735, 0.6175,331.943267822266
0.0316660666666667, 241.606174032404, -0.000325191554565609, 0.63125,331.943267822266
0.0323328333333333, 241.616848435563, -0.000538986315832327, 0.64375,337.919189453125
0.0329994083333333, 241.627848334195, -0.000601417679959939, 0.656250000000001,336.739685058594
0.0336661583333333, 241.638784124786, -0.000828351781315892, 0.67,343.653656005859
0.034332915, 241.649668717261, -0.000405076042046357, 0.68375,333.561828613281
0.034999535, 241.660324893056, -0.000391974200130965, 0.696250000000001,333.561828613281
0.0356663533333333, 241.671111626309, -0.00034592501316253, 0.710000000000001,330.621368408203
0.0363328416666667, 241.681247719218, -0.000201695257696802, 0.722500000000001,334.12890625
0.0369996616666667, 241.692094563529, -0.000149520378360249, 0.736250000000001,325.322418212891
0.0376661266666667, 241.702738191276, -0.000357372438163571, 0.750000000000001,325.123687744141
0.0383343916666667, 241.713391798725, -8.87314317305078E-05, 0.7625,325.123687744141
0.0390012166666667, 241.724235754186, -0.000150508828754537, 0.776250000000001,324.335784912109
0.03966629, 241.735441299012, -0.000559440788511497, 0.78875,325.828491210938
0.040332825, 241.745632897268, -0.00042406058853403, 0.8025,321.333862304688
0.04099995, 241.756089243504, -0.000214626108187714, 0.816250000000001,383.411987304688
0.04166611, 241.76716972557, -0.00071943325227284, 0.828750000000001,383.411987304688
0.042332865, 241.777907703724, -0.000320714279499245, 0.8425,324.940216064453
0.0429995383333333, 241.788516903463, 1.55868284238591E-05, 0.855000000000001,321.678741455078
0.0436666966666667, 241.799430265843, 3.65587750434068E-05, 0.868750000000001,316.183776855469
0.0443329283333333, 241.809429932237, 5.06175688556014E-05, 0.882500000000001,331.91015625
0.0449995933333333, 241.81945553464, 0.000199788076219587, 0.895000000000001,331.91015625
0.0456663366666667, 241.829678207953, -5.31382195412734E-05, 0.9075,321.90283203125
0.0463328766666667, 241.839602614286, -0.0002264800127658, 0.92125,323.125152587891
0.04699953, 241.849764235981, -0.00027862489357178, 0.935000000000001,322.939331054688
0.0476662966666667, 241.860830168322, -0.000329656830321763, 0.9475,330.246002197266
0.048332915, 241.870953655011, -0.000316841474009902, 0.96125,330.246002197266
0.048999525, 241.881287234584, -0.000471123724590355, 0.973750000000001,331.214721679688
0.0496662866666667, 241.891589916661, -0.000243870139293999, 0.9875,334.177337646484
0.0503330816666667, 241.902555278208, -0.00037870586664932, 1.00125,339.582824707031
0.0509997633333333, 241.912951696573, -0.000299007369794576, 1.01375,337.449981689453
0.05166629, 241.923505462382, -0.000146399035145717, 1.0275,337.449981689453
0.0523335316666667, 241.9354402721, 0.00015363089465161, 1.03875,328.338531494141
0.0530011583333333, 241.948627076006, 0.000133581401710098, 1.0525,325.821411132813
0.05366622, 241.960920764812, 0.000244575826573595, 1.0675,329.167541503906
0.05433284, 241.972839844159, 0.000362027427055822, 1.08125,329.740173339844
0.0549995233333333, 241.985003785663, 0.000153311410604937, 1.09375,329.740173339844
0.0556678133333333, 241.995733276372, -7.87164348958981E-05, 1.1075,321.563934326172
0.0563329383333333, 242.005471609954, -0.000250645299056253, 1.12,324.779205322266
0.0569998316666667, 242.015225572321, -0.000411284230341671, 1.13375,318.914123535156
0.0576662216666667, 242.025257041844, -0.000580759217753213, 1.1475,386.498077392578
0.0583328333333333, 242.035133969535, -0.00047133221414617, 1.16,386.498077392578
0.0589995333333333, 242.045110381185, -0.000337133954768504, 1.17375,321.412933349609
0.0596667833333333, 242.055276998363, -0.000408527368778384, 1.1875,320.557342529297
0.060332915, 242.065376443562, -0.000183543169507986, 1.20125,320.738433837891
0.0609996266666667, 242.075728458493, 2.28404640494975E-05, 1.21375,322.297790527344
0.0616664266666667, 242.08604612113, 0.000239843564231153, 1.2275,322.297790527344
0.06233293, 242.096281175528, 0.000210019062274537, 1.24125,316.882629394531
0.0629996583333333, 242.106554157202, 0.000600642941640979, 1.25375,326.786560058594
0.0636662333333333, 242.116121722177, 0.00101404317696039, 1.2675,321.669372558594
0.0643328216666667, 242.126384017242, 0.000727199084845038, 1.28125,321.974609375
0.0649995283333333, 242.13685676262, 0.0004838333088246, 1.295,321.974609375
0.0656662266666667, 242.146868659947, 0.000346602201835956, 1.3075,324.880279541016
0.0663330233333333, 242.15683855423, 7.43323792247085E-06, 1.32125,325.17626953125
0.066999525, 242.167302330397, -0.000566817418065727, 1.335,318.388641357422
0.06766621, 242.1771154127, -0.000529259304589413, 1.3475,319.6494140625
0.068333025, 242.186772478929, -0.000407733908684045, 1.36125,319.6494140625
0.06899954, 242.196935051565, -0.000298794380635584, 1.375,323.467346191406
0.06966682, 242.207146918252, -0.000344186600630376, 1.3875,322.755584716797
0.0703328983333333, 242.217211629659, -7.96853862516895E-05, 1.4025,319.268463134766
0.0709995016666667, 242.227561516668, -0.000223934640777168, 1.41625,322.661102294922
0.071666475, 242.23774155531, -0.000261318762980196, 1.4275,322.661102294922
0.07233285, 242.247785417867, -0.000245838040578664, 1.44125,320.708282470703
0.072999505, 242.257473822432, -6.66330418416055E-05, 1.455,328.751190185547
0.07366621, 242.267495641972, -0.000588743316775779, 1.46875,315.843017578125
0.074332895, 242.277411053701, -0.000407439923458498, 1.4825,386.551971435547
0.0749995083333333, 242.287640678333, -0.000608333832764877, 1.49375,386.551971435547
0.0756664733333333, 242.298092185657, -0.000615162989720631, 1.50875,320.873382568359
0.0763328516666667, 242.308139022016, -0.000487579398109054, 1.52125,325.794982910156
0.0769996983333333, 242.318634983108, -4.01488720411427E-05, 1.535,328.212463378906
0.077666165, 242.328706115478, -0.000420096287698597, 1.54875,337.429962158203
0.078332905, 242.339121914742, -0.000282391204513508, 1.56125,337.429962158203
0.078999505, 242.348999775927, -0.000546955415738385, 1.575,334.438873291016
0.0796661933333333, 242.359556598108, -0.000658233326399114, 1.58875,333.427612304688
0.0803330533333333, 242.369864933398, -0.000901255619603681, 1.60125,339.948272705078
0.0809999033333333, 242.380413503588, -0.000813499527515628, 1.61375,339.363006591797
0.0816663366666667, 242.390047341935, -0.000562355142243395, 1.6275,339.363006591797
0.0823337166666667, 242.400097042826, -0.000194606613840539, 1.64125,331.982727050781
0.08299952, 242.40967256028, -0.000253199670782591, 1.65375,328.004638671875
0.083666675, 242.419299999768, -6.8905427716369E-05, 1.6675,332.109252929688
0.0843328883333333, 242.429021995013, 7.80946886322748E-05, 1.68125,324.0537109375
0.08499957, 242.439025993697, -0.000217223977785509, 1.69375,324.0537109375
0.0856661933333333, 242.448892351266, -0.000572617626732067, 1.7075,318.630920410156
0.08633283, 242.458583551066, -0.000590537226638379, 1.72,318.019409179688
0.08699965, 242.468821262031, -0.000848593264751053, 1.73375,311.103149414063
0.0876663316666667, 242.478291688005, -0.000653688554607079, 1.7475,321.943603515625
0.0883328883333333, 242.487997622147, -0.000887862792247787, 1.76,321.943603515625
0.08899949, 242.497592060909, -0.000947207311422142, 1.7725,316.758544921875
0.089666455, 242.507166904028, -0.000955189910456543, 1.78625,312.512939453125
0.09033291, 242.516128668502, -0.000824043997792113, 1.8,316.396667480469
0.0909995116666667, 242.525754132718, -0.00108052061518935, 1.8125,384.044219970703
0.0916663766666667, 242.535022909668, -0.0008797556994029, 1.82625,384.044219970703
0.0923328383333333, 242.544318179357, -0.00068109367803365, 1.83875,314.87744140625
0.0929995216666667, 242.553517307821, -0.000833780008751479, 1.8525,323.041198730469
0.093666625, 242.562808580846, -0.000682685098080556, 1.86625,328.514373779297
0.094332925, 242.572224172479, -0.000959635687152946, 1.87875,330.690460205078
0.0949994916666667, 242.581545283515, -0.000906952333358673, 1.8925,330.690460205078
0.0956661766666667, 242.590817785177, -0.000924880932811404, 1.90625,310.286895751953
0.0963327833333333, 242.600373952579, -0.00103217204370689, 1.91875,304.143157958984
0.0970010716666667, 242.609337603549, -0.00113818071898254, 1.9325,300.99365234375
0.0978328766666667, 242.622329527899, -0.000415785504177232, 1.94875,306.6533203125
0.0984995433333333, 242.630877154199, -0.000455445012146338, 1.9625,310.745819091797
0.0991661833333333, 242.639440330145, 0.00016588077929341, 1.97625,310.745819091797
0.0998328616666667, 242.647655531339, 0.000348547604127047, 1.98875,309.298706054688
0.10049954, 242.656504164632, -2.60390807779832E-05, 2.00125,307.630798339844
0.101166673333333, 242.665303877268, -0.000140156348759161, 2.015,305.839874267578
0.101832986666667, 242.673732785179, -0.000169013399326898, 2.02875,305.005859375
0.102499566666667, 242.682057066125, -0.000310409797106028, 2.04125,305.005859375
0.10316626, 242.690917061399, -0.000446626955070544, 2.055,305.900726318359
0.10383291, 242.699709803153, -0.000215968540762425, 2.06875,302.114624023438
0.104499636666667, 242.708139292777, -0.000306913472684411, 2.0825,309.468780517578
0.105166206666667, 242.716231175485, -0.000185421075073406, 2.09625,306.714050292969
0.10583296, 242.724692038846, -0.000307316952391395, 2.10875,306.714050292969
0.106499733333333, 242.73257281192, -0.000445718000669629, 2.1225,307.242889404297
0.1071662, 242.740565220319, -0.000346364491097701, 2.13625,304.845306396484
0.107832981666667, 242.748557090416, -0.000136883513137392, 2.15,360.303009033203
0.108499565, 242.75719174605, -0.000152260740797608, 2.1625,310.007690429688
0.109166208333333, 242.765420212773, -0.000134186648635253, 2.17625,310.007690429688
0.109832876666667, 242.773665024963, -0.000184516620573225, 2.18875,303.151306152344
0.110499536666667, 242.781576730207, -0.000281236262446696, 2.2025,303.039306640625
0.111167158333333, 242.78970016432, -0.000529008817086544, 2.21625,307.47900390625
0.111834358333333, 242.797681880451, -0.000784715973158635, 2.23,307.393524169922
0.112499596666667, 242.805445162765, -0.000553088607558486, 2.2425,307.393524169922
0.113167743333333, 242.812922632832, -0.000288248410222156, 2.25625,302.208953857422
0.11383442, 242.820477919058, -2.5257619972599E-05, 2.27,296.013732910156
0.114499635, 242.827784557995, 0.000212274949002118, 2.2825,300.217071533203
0.11516625, 242.835018500989, 0.000330933988884017, 2.29625,294.221282958984
0.115832918333333, 242.842423504573, 0.000150361058878647, 2.30875,294.221282958984
0.116499668333333, 242.850022307867, 1.1919512662779E-05, 2.3225,299.073913574219
0.1171661, 242.857705304098, 0.000166287258891709, 2.335,292.188110351563
0.117833128333333, 242.865708847538, 0.000453342840369175, 2.35,295.416290283203
0.118499623333333, 242.874132337025, 0.000275421777176355, 2.3625,294.502288818359
0.119166288333333, 242.882260500745, 6.12550345513583E-05, 2.375,294.502288818359
0.119832925, 242.89025125443, 3.57413160523443E-05, 2.38875,286.829895019531
0.120499493333333, 242.897569008942, -0.000318152408214653, 2.4025,287.4052734375
0.121166205, 242.905515973589, -0.000325736027294024, 2.415,283.811706542969
0.12183289, 242.91209778827, -0.000234348617609315, 2.42875,284.434753417969
0.122499551666667, 242.920085198978, -2.04923593995555E-05, 2.44125,284.434753417969
0.123166226666667, 242.927638003643, 0.000195580787503301, 2.455,280.151031494141
0.123832876666667, 242.936497036594, 0.00030428482742045, 2.46875,334.46240234375
0.124499521666667, 242.944528815405, -3.57570926020021E-05, 2.4825,277.158477783203
0.125166263333333, 242.954092602409, 6.37374098850861E-05, 2.495,277.261322021484
0.125832861666667, 242.962620053373, 0.000250818513023913, 2.5075,277.261322021484
0.126499561666667, 242.97258352611, 6.08650541852572E-05, 2.52125,271.070373535156
0.127166593333333, 242.981648574414, 7.7640211580596E-05, 2.535,277.518829345703
0.127833468333333, 242.991323748949, 0.000148918131368918, 2.5475,284.327880859375
0.128500271666667, 243.000450515479, 0.000503663812888252, 2.56125,280.009765625
0.129166195, 243.00992780578, 0.000642547836845589, 2.57375,280.009765625
0.129832778333333, 243.019163718285, 0.00085737304641114, 2.5875,282.253448486328
0.130499511666667, 243.028796961988, 0.000767287571321, 2.6,277.249084472656
0.131168023333333, 243.038292211014, 0.000671341890588389, 2.61375,279.249481201172
0.131833116666667, 243.048269909109, 0.000412879372856161, 2.62625,279.249481201172
0.132499541666667, 243.058432018318, 5.44648756300888E-05, 2.64,284.618011474609
0.133166308333333, 243.068368570567, -0.000143312190256222, 2.6525,288.867401123047
0.133833051666667, 243.078564877633, -0.000371084749502376, 2.66625,291.328430175781
0.134499521666667, 243.088374025586, -0.000539886270814347, 2.68,289.414825439453
0.135166313333333, 243.09781212053, -0.00046887083781785, 2.6925,291.6708984375
0.135832948333333, 243.107416688767, -0.00040041877609411, 2.70625,291.6708984375
0.136499853333333, 243.116926766391, -0.000439998788048589, 2.71875,298.068817138672
0.137166186666667, 243.126639932426, -0.000112413742256841, 2.7325,301.952728271484
0.137832905, 243.13469920841, 5.99890981424677E-05, 2.745,302.002044677734
0.138499533333333, 243.143058045598, -3.3097726209944E-05, 2.75875,288.898254394531
0.13916654, 243.150502177779, 0.000135963282023791, 2.7725,288.898254394531
0.139832931666667, 243.158530159678, 0.000398646587749426, 2.78625,288.086975097656
0.140499531666667, 243.166149292189, 0.000450762969949235, 2.79875,342.775115966797
0.14116648, 243.176181728641, 0.000566150674155022, 2.8125,285.1806640625
0.141832828333333, 243.186254554874, 0.000458825065019517, 2.82625,286.218536376953
0.142499596666667, 243.197041180114, 0.000316227227538328, 2.83875,286.218536376953
0.14316618, 243.207307562544, 2.58848129229236E-06, 2.8525,281.953674316406
0.14383286, 243.217875159439, -0.000261761240657903, 2.865,275.581420898438
0.144499556666667, 243.228040758078, -0.000305157060910638, 2.88,281.120544433594
0.145166281666667, 243.238091612232, -9.90439116659777E-06, 2.8925,275.482879638672
0.145832963333333, 243.247886658527, -0.000136337540548336, 2.90625,275.482879638672
0.146499603333333, 243.257803623348, -0.000259097374450127, 2.91875,275.889221191406
0.147166211666667, 243.267570009558, -0.000265983528575713, 2.9325,279.512878417969
0.147832918333333, 243.277233459729, -0.000295076067317269, 2.9475,276.201477050781
0.148499698333333, 243.286859629838, -0.000571999657750401, 2.96,274.491149902344
0.149166691666667, 243.296521457788, -0.000371557225795672, 2.9725,274.491149902344
0.149832908333333, 243.30568173049, -0.000210973791691921, 2.98625,279.51953125
0.150499536666667, 243.315190395803, 0.000193515391217442, 3,272.504119873047
0.1511665, 243.324567714362, 0.000272420427935337, 3.01375,273.334381103516
0.151832933333333, 243.333786551342, 0.00039293787445043, 3.0275,275.590545654297
0.152499726666667, 243.342989774969, 0.000678348038581219, 3.03875,275.590545654297
0.153166165, 243.353248692044, 0.00065946848688679, 3.05375,278.426208496094
0.153832886666667, 243.362713950885, 0.000359539052003227, 3.0675,276.401458740234
0.15449967, 243.372670993036, 0.000213071408902756, 3.08,270.441955566406
0.155167001666667, 243.382545085958, -4.38551859429781E-05, 3.09375,273.457794189453
0.155832928333333, 243.392412385273, -0.000408468871747911, 3.10625,273.457794189453
0.156499561666667, 243.401555966303, -0.000257010979328892, 3.12,274.426574707031
0.157166156666667, 243.411335252037, -0.000299679336139777, 3.13375,333.986755371094
0.157832805, 243.420744878169, -0.000222032736251264, 3.1475,286.162445068359
