Time (min), Depth (µm), Load (N), Position (µm), Acoustic (aJ)
8.21333333333333E-06, 228.018649294028, 0.000537088179066533, 0,169.071502685547
0.000667753333333333, 228.018817701364, 0.000370733034923865, 0.00499999999999999,169.071502685547
0.00133456333333333, 228.019451858819, 0.000198214700302998, 0.01625,171.743392944336
0.00200106833333333, 228.021399359469, 0.000239231640090847, 0.03125,175.082992553711
0.002667705, 228.024798051336, -1.50715865272535E-05, 0.04625,216.466232299805
0.00333432833333333, 228.028852638334, -0.000359956763297989, 0.06,201.396194458008
0.00400113166666667, 228.033014137593, -0.000617534325441008, 0.07375,201.396194458008
0.00466786166666667, 228.037645961323, -0.000743611992675412, 0.08875,201.125839233398
0.00533460333333333, 228.042128140467, -0.000853536971269353, 0.1025,210.77409362793
0.00600103, 228.04746276958, -0.00106677826036751, 0.11625,210.162124633789
0.006668095, 228.052702590412, -0.000975920324103418, 0.13,215.406585693359
0.007334355, 228.058128730559, -0.000684994937006669, 0.1425,215.406585693359
0.00800278166666667, 228.064433761254, -0.000660166684108723, 0.15625,223.701950073242
0.00866874, 228.069957050097, -0.000614727966436176, 0.17,219.765258789063
0.00933436666666667, 228.076253458749, -0.00060250658031553, 0.18375,219.844192504883
0.0100013766666667, 228.083623196028, -0.000781723578447814, 0.19625,224.492645263672
0.0106677716666667, 228.092822086141, -0.00112091954100056, 0.21,224.492645263672
0.0113345333333333, 228.102285770196, -0.000884355923339124, 0.22375,222.695434570313
0.0120020133333333, 228.113125695955, -0.00051162014548778, 0.23625,232.133605957031
0.0126680066666667, 228.12430433374, -0.000508923280921878, 0.25,225.943130493164
0.0133343666666667, 228.1363411222, -0.000512817085310358, 0.26375,223.382934570313
0.0140010133333333, 228.147603799225, -0.000663657008790219, 0.27625,223.382934570313
0.01466742, 228.159782689312, -0.00099652328929851, 0.29,221.439926147461
0.0153330666666667, 228.171291190292, -0.00138572374012996, 0.30375,222.636306762695
0.01600086, 228.183173341472, -0.00120176398026942, 0.3175,221.048446655273
0.0166681533333333, 228.194736113629, -0.00104122854381034, 0.33,224.480422973633
0.01733434, 228.206737505834, -0.000599851713696682, 0.34375,224.480422973633
0.01800184, 228.218672773941, -0.00046962375489457, 0.3575,224.918655395508
0.0186691783333333, 228.231462950691, -0.000378420835932716, 0.37,229.272369384766
0.0193347833333333, 228.243828969163, -0.000171590224818045, 0.38375,272.119720458984
0.0200016116666667, 228.256323757279, 0.00011482788870302, 0.39625,226.94580078125
0.0206677383333333, 228.268734265109, -0.000150937762181408, 0.41,226.94580078125
0.0213337133333333, 228.281355744482, -2.65790085681869E-05, 0.42375,226.962509155273
0.0219995716666667, 228.293860570098, -0.000199820306857695, 0.4375,223.870422363281
0.02266634, 228.306279774217, -0.000263898588277642, 0.45,224.086578369141
0.0233341233333333, 228.318903379711, -0.000324995019452559, 0.46375,220.478790283203
0.02400018, 228.331784296941, 1.36954684912709E-05, 0.4775,220.478790283203
0.0246666083333333, 228.344527622418, -0.000181489727558621, 0.49,215.07682800293
0.0253328866666667, 228.357331700996, 0.000240022100357634, 0.50375,222.57502746582
0.026001145, 228.369782681396, 0.000141670540457115, 0.5175,213.007797241211
0.0266682416666667, 228.383161842686, -0.000197589918844969, 0.53,222.144500732422
0.02733441, 228.395409748493, -0.000479799243789107, 0.54375,222.144500732422
0.0280012166666667, 228.407808206372, -0.000521788134739046, 0.55625,212.386077880859
0.02866644, 228.41996767473, -0.000785944366441221, 0.57,206.738464355469
0.02933292, 228.432668119942, -0.000769265204207691, 0.58375,210.143035888672
0.0299996866666667, 228.444126506676, -0.000470337719016791, 0.59625,209.625259399414
0.03066632, 228.456569933911, -0.000341503190240356, 0.61,209.625259399414
0.031332855, 228.468675337692, -0.000324876525360939, 0.6225,209.83854675293
0.03199992, 228.48095650634, -3.3615155155353E-05, 0.635,210.129058837891
0.0326672733333333, 228.492887743441, -2.69374905643278E-05, 0.65,206.588455200195
0.033334185, 228.505124522693, -0.000102767681702939, 0.6625,201.676849365234
0.0340008266666667, 228.516759306384, -0.00012256518728094, 0.675,201.676849365234
0.0346662616666667, 228.528630034798, 2.39549531736446E-05, 0.68875,202.685440063477
0.03533298, 228.540566050873, -0.000248404366471464, 0.7025,249.071441650391
0.0360003533333333, 228.552846895564, -0.00039284861119062, 0.715,206.242050170898
0.0366662533333333, 228.564105542891, -0.000500013728372469, 0.7275,203.127304077148
0.03733293, 228.576088009701, -0.00047069170117596, 0.74125,203.127304077148
0.0379999416666667, 228.587386618819, -0.000689257722840859, 0.755,211.843841552734
0.0386666316666667, 228.599037364029, -0.000797934764097495, 0.76875,204.897552490234
0.039334045, 228.609751694035, -0.000838357733715384, 0.78125,212.138305664063
0.0399996283333333, 228.62093693155, -0.000941794038235619, 0.795,207.687850952148
0.0406680766666667, 228.631829550852, -0.000962161515214383, 0.8075,207.687850952148
0.041334415, 228.642678761715, -0.000883490466767158, 0.82,213.417419433594
0.0420011733333333, 228.652108760867, -0.000812569529050574, 0.83375,219.060440063477
0.042667715, 228.6601833327, -0.000778059262471778, 0.8475,228.617294311523
0.04333475, 228.66927296392, -0.00075325950811624, 0.86,236.770248413086
0.0440013883333333, 228.677982869945, -0.00100895166496555, 0.87375,236.770248413086
0.044667695, 228.686590346491, -0.000886148333256067, 0.8875,232.354705810547
0.04533482, 228.695909431052, -0.0006725650612877, 0.9,241.352630615234
0.0459996816666667, 228.7075155839, -0.000554457993671216, 0.91375,244.444259643555
0.046667745, 228.718084073519, -0.000794459438660032, 0.92625,238.002777099609
0.04733447, 228.728811775071, -0.000832454030265218, 0.94,238.002777099609
0.048001025, 228.739341968382, -0.00116659674663197, 0.95375,245.081817626953
0.0486680583333333, 228.749832984063, -0.00154273135379746, 0.9675,239.631484985352
0.0493347816666667, 228.760157774085, -0.00166182837169013, 0.98125,239.465026855469
0.0500013716666667, 228.770183853841, -0.00140488077790275, 0.99375,241.602722167969
0.0506680816666667, 228.78051353805, -0.00137787313444304, 1.0075,241.602722167969
0.05133483, 228.790865133068, -0.00131437832372223, 1.02125,239.056640625
0.0520010333333333, 228.801260571655, -0.00115136501172389, 1.035,284.893371582031
0.05266777, 228.810812024094, -0.00109009008948122, 1.04875,234.052307128906
0.0533348233333333, 228.820523324461, -0.000965287358180871, 1.06125,245.774627685547
0.0540013433333333, 228.829831625026, -0.00058022819930695, 1.075,245.774627685547
0.0546680016666667, 228.83974594596, -0.00042788385143808, 1.08875,242.886306762695
0.0553343416666667, 228.849110809499, -0.000281224217992738, 1.10125,238.437866210938
0.056002545, 228.858416003974, 0.000210098603369149, 1.11375,239.664001464844
0.056666275, 228.868103012267, 0.000308144178648895, 1.12875,241.078598022461
0.0573341933333333, 228.877032219647, 0.000270061091525171, 1.14125,241.078598022461
0.0579995683333333, 228.88552020554, 0.000653080352870595, 1.155,237.997451782227
0.058666515, 228.894678519282, 0.000361878979598631, 1.16875,244.710906982422
0.059332915, 228.903918662522, 0.000153441949171768, 1.18125,239.858596801758
0.0599997033333333, 228.912311780544, 0.000149659139167875, 1.195,241.169403076172
0.06066648, 228.921054758949, 0.000293794399396198, 1.2075,241.169403076172
0.0613333066666667, 228.929370611604, -6.17672411260335E-05, 1.22125,247.240844726563
0.0620011933333333, 228.937016658748, 5.14410725392459E-05, 1.235,241.504653930664
0.0626676783333333, 228.944456939816, 0.000134307410243769, 1.24875,247.757308959961
0.0633346033333333, 228.952495827855, 0.000259543619781674, 1.26125,245.044082641602
0.064001105, 228.960115586284, -5.31111759070457E-05, 1.275,245.044082641602
0.064668295, 228.967638034192, 0.000204373390944225, 1.28875,247.830856323242
0.0653343616666667, 228.974916139998, 0.000523464363352538, 1.30125,241.327346801758
0.0660004166666667, 228.982210151719, 0.000498312126740979, 1.315,241.584442138672
0.06666684, 228.989154641552, 0.00047969506181712, 1.32875,244.334777832031
0.0673335866666667, 228.996034611422, 0.00079121591446569, 1.34125,244.334777832031
0.068000255, 229.002759335087, 0.000805381202953024, 1.355,248.058807373047
0.0686664316666667, 229.009382005356, 0.000805289707564426, 1.36875,292.668243408203
0.069334175, 229.016151955451, 0.000533375865488339, 1.38125,241.147384643555
0.070000005, 229.023080355997, 0.000568714090486512, 1.39375,244.880081176758
0.0706678666666667, 229.029711924173, 0.000708876050290473, 1.4075,244.880081176758
0.0713345883333333, 229.036524417893, 0.00063806610697973, 1.42125,245.084182739258
0.0720003216666667, 229.043604898014, 0.000594586290917904, 1.43375,240.57975769043
0.072667965, 229.050512487326, 0.000601361450616395, 1.44625,242.088729858398
0.0733350383333333, 229.057634809669, 0.000253054945686714, 1.46,239.140609741211
0.074001655, 229.064578438255, 0.000246569271483068, 1.47375,239.140609741211
0.074667695, 229.071659597547, 0.000201075056650109, 1.48625,241.626083374023
0.0753344033333333, 229.078116145446, 0.000233714917200484, 1.5,241.56640625
0.0760013, 229.084515326231, 0.000409090608255894, 1.51375,244.787094116211
0.0766680066666667, 229.089957305546, 0.000804962724002007, 1.52625,241.507568359375
0.0773333683333333, 229.09653441554, 0.000512327422745479, 1.53875,241.507568359375
0.0780001466666667, 229.10223892369, 0.000400346047433352, 1.5525,241.367980957031
0.0786676883333333, 229.108790468125, 0.000146392303286227, 1.565,239.12419128418
0.07933463, 229.11502548096, 0.00015438990156466, 1.58,242.041442871094
0.080002165, 229.121742622982, -0.000308188363580989, 1.5925,244.812561035156
0.0806672683333333, 229.127256754563, -0.000347313898335011, 1.605,244.812561035156
0.0813329016666667, 229.132947777214, -0.000191263236606814, 1.61875,250.194931030273
0.0819997883333333, 229.137928874701, 2.60173496319521E-05, 1.6325,250.889541625977
0.0826663216666667, 229.143255965624, 8.42323336365581E-06, 1.64625,242.118179321289
0.083332985, 229.147823206491, 7.58043488509284E-05, 1.65875,254.502746582031
0.0839995666666667, 229.154168469084, -1.80849352272591E-05, 1.67,254.502746582031
0.084666285, 229.162301656968, -0.000143582131611332, 1.68375,247.036483764648
0.0853338516666667, 229.170467700662, -0.000406452927929882, 1.69875,291.347717285156
0.0860007766666667, 229.177514919901, -0.000684264473737267, 1.7125,232.97688293457
0.086666355, 229.184755934797, -0.000822269541888024, 1.725,235.895385742188
0.08733285, 229.190211193647, -0.00089222602804328, 1.7375,235.895385742188
0.0880016116666667, 229.19409829381, -0.000702064079670063, 1.7525,237.729248046875
0.0886678033333333, 229.198080420708, -0.000509470753414083, 1.765,239.863922119141
0.089334695, 229.204048285648, -0.000333043615181957, 1.77875,240.439407348633
0.0900012716666667, 229.209717131093, -0.00037120919814786, 1.79125,236.706619262695
0.0906679583333333, 229.216410260611, -1.39766415640966E-05, 1.805,236.706619262695
0.0913346433333333, 229.222830702933, -0.000132875669414279, 1.81875,239.035552978516
0.092001295, 229.229906340562, -0.000335242504739707, 1.83125,237.6279296875
0.0926681633333333, 229.236127301216, -0.000205776507683229, 1.845,237.894927978516
0.09333447, 229.242856441774, 0.000237521725888559, 1.85875,234.608627319336
0.0940012283333333, 229.249084279932, 4.10495945093855E-05, 1.87125,234.608627319336
0.094668115, 229.256225868104, -5.97453426478682E-05, 1.885,234.872360229492
0.0953344716666667, 229.262580820367, -0.000103231158407308, 1.89875,239.521850585938
0.0960010216666667, 229.269094152029, -0.000163885111819502, 1.9125,232.462997436523
0.0966677666666667, 229.27531618672, -0.000179979303408237, 1.925,233.215637207031
0.0973349983333333, 229.281718075368, -0.000132980664101253, 1.93875,233.215637207031
0.09800123, 229.287829949187, -0.000327591389062188, 1.9525,238.059951782227
0.0986682883333333, 229.293799695843, -0.000404134044398617, 1.96625,239.325439453125
0.0993345716666667, 229.299882059209, -0.000260496759135938, 1.98,235.842849731445
0.100001056666667, 229.306141224661, -0.000368858816246636, 1.9925,238.654586791992
0.100668121666667, 229.312267427313, -0.000373387088785219, 2.00625,238.654586791992
0.101334785, 229.31857748475, 0.000105943834953483, 2.02,241.844573974609
0.102001155, 229.324871883919, 0.000343447905343284, 2.03375,279.891510009766
0.10266771, 229.330885891748, 0.00041740469056216, 2.0475,237.631423950195
0.103334843333333, 229.337303991419, 0.000431664474329408, 2.05875,232.006317138672
0.104001155, 229.343979276051, 0.000267917699149087, 2.07375,232.006317138672
0.104667335, 229.35022920507, -5.02133214711074E-05, 2.08625,240.339721679688
0.10533453, 229.357069559941, -0.000171548226934754, 2.1,239.888748168945
0.106001078333333, 229.363501476576, -0.000353046610488221, 2.1125,242.401123046875
0.106667736666667, 229.37071513313, -0.000499130272856442, 2.12625,241.341033935547
0.107335966666667, 229.377240609856, -0.000563987015147949, 2.14,241.341033935547
0.107999733333333, 229.383975252477, -0.000455777950390146, 2.1525,238.487350463867
0.108667128333333, 229.390715104689, -0.000394306538029398, 2.16625,243.160507202148
0.109332891666667, 229.398042956897, -0.000736820333872247, 2.17875,242.641311645508
0.110000985, 229.404951656508, -0.00106601779863129, 2.1925,238.750198364258
0.110667743333333, 229.412459745881, -0.00117161699450235, 2.20625,238.750198364258
0.111333055, 229.420255509757, -0.00125687421210949, 2.21875,242.151504516602
0.112003963333333, 229.429032158743, -0.00151277035872015, 2.23375,249.589492797852
0.112667236666667, 229.438325151652, -0.00148299385438695, 2.24625,246.208801269531
0.113334355, 229.447513070299, -0.00136368534715342, 2.25875,240.385208129883
0.113999598333333, 229.456569699832, -0.00124088051549828, 2.2725,240.385208129883
0.114667818333333, 229.466054849849, -0.00135185544132328, 2.285,251.890335083008
0.115334246666667, 229.475545847394, -0.00122349338884014, 2.29875,243.706588745117
0.116000793333333, 229.484352494535, -0.00120674822991161, 2.3125,245.363677978516
0.116666168333333, 229.493880378677, -0.000882200531610323, 2.325,241.697723388672
0.117334171666667, 229.503856841005, -0.000657472819476644, 2.33875,241.697723388672
0.117999785, 229.513584971591, -0.000322529143351029, 2.35125,293.112854003906
0.118666423333333, 229.523901226444, -0.000516926878961686, 2.365,234.035659790039
0.11933296, 229.53450562088, -0.000326793429173385, 2.37875,244.190414428711
0.120000348333333, 229.545275783066, -0.00043790184829153, 2.39,238.527587890625
0.120666235, 229.556915494676, -0.000759299704814626, 2.405,238.527587890625
0.121332936666667, 229.568392455683, -0.000927121775299984, 2.4175,243.619873046875
0.122000928333333, 229.579200843335, -0.000619157244027907, 2.43125,246.610458374023
0.122666196666667, 229.590837118144, -0.000810460635042036, 2.44375,242.569183349609
0.12333297, 229.602010874186, -0.000670439668153234, 2.45625,244.560287475586
0.123999781666667, 229.613081445791, -0.000253736598702734, 2.47,244.560287475586
0.124667641666667, 229.624536451505, -0.000285975979352423, 2.48375,236.728927612305
0.125333528333333, 229.635949792601, -0.000140328795070567, 2.4975,246.657363891602
0.126000828333333, 229.647326746637, 0.000107868238239166, 2.51,244.986770629883
0.126667586666667, 229.658459667223, -1.28666973781613E-05, 2.5225,240.761215209961
0.127332946666667, 229.669477998709, -0.000345887470078734, 2.53625,240.761215209961
0.127999736666667, 229.679857107338, -0.000199367329645403, 2.55,228.420455932617
0.128666576666667, 229.691082074294, -0.00050785833446804, 2.56375,226.620788574219
0.129334326666667, 229.70193682697, -0.000718648746687442, 2.5775,226.671646118164
0.129999833333333, 229.712485277107, -0.000763974970008491, 2.59,224.883651733398
0.13066621, 229.722926595813, -0.000592866564624243, 2.60375,224.883651733398
0.1313342, 229.733638161505, -0.000491069677774326, 2.6175,227.112426757813
0.132001105, 229.743789333134, -0.000493769542146526, 2.63,219.948959350586
0.132666203333333, 229.754273996219, -0.000297691890927918, 2.64375,223.150650024414
0.133334428333333, 229.765274203045, -0.000211887200849823, 2.65625,226.748687744141
0.134001553333333, 229.776291775407, -0.000242109182773302, 2.67,226.748687744141
0.134668053333333, 229.787539066028, -0.000404174542421268, 2.68375,267.966247558594
0.135334381666667, 229.798629309767, -0.000465176478380034, 2.6975,224.39697265625
0.136001095, 229.809497394605, -0.000423579067784362, 2.71125,223.668899536133
0.136668615, 229.820263025522, -0.00065936122468292, 2.72375,224.650512695313
0.137334406666667, 229.830317838274, -0.000686823345300577, 2.73625,224.650512695313
0.138001443333333, 229.841058545156, -0.000676460365834379, 2.75125,222.37516784668
0.13866709, 229.851163023633, -0.000456394419511172, 2.76375,219.748397827148
0.139334471666667, 229.861542156897, -0.000686196376772491, 2.7775,223.337127685547
0.140001163333333, 229.871881318521, -0.000258506359176512, 2.79,227.170288085938
0.14066772, 229.882716630143, -0.000294860033165722, 2.80375,227.170288085938
0.14133475, 229.892737263208, -0.000181239240204531, 2.8175,228.266540527344
0.142001063333333, 229.902881707294, -0.000205349029207046, 2.83,220.715759277344
0.142666336666667, 229.913061619409, -7.32431647757527E-05, 2.84375,225.237213134766
0.143332886666667, 229.923213748964, -0.000233139633332779, 2.8575,232.372589111328
0.144001176666667, 229.933315362898, -0.000394609522886381, 2.87125,232.372589111328
0.144667828333333, 229.943133755353, -0.000382505130890443, 2.88375,224.063690185547
0.145334485, 229.953497385253, -0.000511198666772972, 2.8975,220.897735595703
0.146001233333333, 229.963333070082, -0.000455915943584025, 2.91125,221.532379150391
0.14666634, 229.973542727262, -0.000583589530702306, 2.92375,219.749069213867
0.147332858333333, 229.983518280237, -0.000459847246146349, 2.9375,219.749069213867
0.14799951, 229.993718661472, -0.000435318978171562, 2.95,219.748504638672
0.148666855, 230.003981774636, -0.000487174373546459, 2.96375,216.215347290039
0.149332956666667, 230.014282161952, -0.000540919673945764, 2.9775,209.918762207031
0.15000083, 230.024373040637, -0.000387253892422575, 2.99,216.82341003418
0.15066618, 230.034520622445, -0.000498599299660197, 3.00375,216.82341003418
0.151332886666667, 230.04494635701, -0.00041732738187264, 3.0175,251.818969726563
0.151999586666667, 230.055028563692, -0.000449203780774233, 3.03,208.298400878906
0.152666508333333, 230.064777714617, -0.00065530542852265, 3.04375,210.389663696289
0.153334326666667, 230.074663229965, -0.000770873123656828, 3.05625,208.27458190918
0.1540011, 230.084853775207, -0.00060041568554861, 3.07,208.27458190918
0.15466845, 230.094656250998, -0.0007136749966436, 3.08375,202.094009399414
0.155334428333333, 230.104649060839, -0.000543472545683937, 3.09625,206.925109863281
0.156001713333333, 230.114605344285, -0.000588087804667808, 3.10875,209.314010620117
0.156666325, 230.124761352231, -0.000506811387107042, 3.1225,205.693206787109
0.157332848333333, 230.134831682313, -0.000853604468058787, 3.13625,205.693206787109
0.158000415, 230.144836608013, -0.00103360742668465, 3.14875,202.316528320313
0.158666276666667, 230.155090117275, -0.000981329052585525, 3.16375,199.187957763672
0.159333821666667, 230.165421157477, -0.000901140080408407, 3.175,203.193450927734
0.159999988333333, 230.175675381545, -0.0013343258219531, 3.18875,196.282455444336
