Time (min), Depth (µm), Load (N), Position (µm), Acoustic (aJ)
7.42833333333333E-06, 227.840996043234, -0.000574179811951389, 0,222.258605957031
0.000664881666666667, 227.840466668686, -0.000270017589700448, 0.00499999999999999,224.645568847656
0.001331425, 227.840991650523, -0.000208336187923243, 0.01625,224.645568847656
0.00199815833333333, 227.842045406027, -7.1744048815404E-05, 0.03,227.976516723633
0.00266469833333333, 227.844590803708, -0.000453597868686956, 0.04625,240.277435302734
0.00333133166666667, 227.846849654363, -0.000364145361801261, 0.06,243.597412109375
0.003998175, 227.850687910668, -0.000803231806947316, 0.075,244.018753051758
0.00466476333333333, 227.854070017039, -0.000671011948218867, 0.08875,244.018753051758
0.00533165333333333, 227.858101732847, -0.000791116915459301, 0.1025,259.930267333984
0.005998065, 227.862260117587, -0.000590576988375853, 0.115,299.590698242188
0.00666462666666667, 227.86745425097, -0.000688054092200494, 0.12875,256.058715820313
0.00733143666666667, 227.871965596266, -0.000263243929947614, 0.1425,260.558288574219
0.00799802, 227.877372545576, -0.000359251107623267, 0.155,260.558288574219
0.008664725, 227.882377976228, -0.000526267718555297, 0.17,254.686569213867
0.00933136833333333, 227.88792293037, -0.000642517879420481, 0.1825,252.782608032227
0.00999816, 227.893973489412, -0.000629798518291683, 0.19625,260.045654296875
0.0106646816666667, 227.901459665001, -0.00107236928844287, 0.20875,250.391891479492
0.01133137, 227.910091460282, -0.000998628492359321, 0.2225,250.391891479492
0.011998035, 227.920173982366, -0.000885586670302803, 0.23625,257.348937988281
0.0126647, 227.930920071754, -0.0012375034938875, 0.25,254.739028930664
0.0133317116666667, 227.941669207298, -0.00117722602156428, 0.2625,258.178863525391
0.013998005, 227.953230131418, -0.00114336372241271, 0.27625,263.641815185547
0.014664795, 227.96492075006, -0.00161263315149027, 0.29,263.641815185547
0.0153314816666667, 227.976553504879, -0.00160488754055409, 0.30375,260.405609130859
0.0159981666666667, 227.987749254019, -0.00137719597722571, 0.3175,265.091857910156
0.016665365, 228.000343029047, -0.00167293312265828, 0.33,254.049240112305
0.01733142, 228.012583132888, -0.00175503449881087, 0.34375,262.489959716797
0.0179980533333333, 228.024509276759, -0.00149469557539511, 0.3575,262.489959716797
0.0186646516666667, 228.036485473901, -0.00173737738573889, 0.37,257.213928222656
0.0193314366666667, 228.048956114013, -0.00173896580595824, 0.38375,263.955932617188
0.0199981866666667, 228.06070581398, -0.00183431001692013, 0.3975,256.428314208984
0.0206648416666667, 228.072703283843, -0.00151105225381818, 0.41,261.281036376953
0.0213314033333333, 228.084752104474, -0.00163043275744432, 0.42375,261.281036376953
0.0219981183333333, 228.096767434691, -0.00150847088347384, 0.4375,257.859954833984
0.0226647333333333, 228.109086124203, -0.00141625401540284, 0.45,305.327362060547
0.0233313483333333, 228.121645016794, -0.00110145132760734, 0.46375,250.809967041016
0.0239980183333333, 228.133972030958, -0.00117034286724499, 0.47625,255.674423217773
0.0246647533333333, 228.146313606587, -0.0008147527281591, 0.49,255.674423217773
0.02533129, 228.159259420633, -0.000643503329817184, 0.50375,256.915557861328
0.0259982066666667, 228.17208020614, -0.00059099846709066, 0.51625,253.660278320313
0.0266646283333333, 228.184817031692, -0.00069889854735763, 0.53,258.524353027344
0.027331465, 228.197510796478, -0.000569243559783833, 0.54375,251.564453125
0.0279981583333333, 228.210367457716, -0.000961986832714652, 0.55625,251.564453125
0.0286646483333333, 228.222740561129, -0.00107225529401819, 0.57,252.640670776367
0.0293314416666667, 228.235149906285, -0.00114089934612931, 0.58375,251.688461303711
0.0299981683333333, 228.247395400369, -0.00139635451490166, 0.59625,244.02165222168
0.0306646733333333, 228.259315607077, -0.00150420809753338, 0.61,244.278656005859
0.0313314216666667, 228.271245355067, -0.00115868545276373, 0.62375,244.278656005859
0.03199808, 228.283250718256, -0.00101374323305768, 0.63625,251.329696655273
0.0326649066666667, 228.295898146928, -0.000964418210554907, 0.65,255.014251708984
0.0333325866666667, 228.307979074923, -0.000669236037236565, 0.6625,248.924514770508
0.03399814, 228.32068840644, -0.000668310583730976, 0.675,244.886947631836
0.0346648016666667, 228.333090036409, -0.000741832390809145, 0.68875,244.886947631836
0.03533128, 228.345187537062, -0.000810963918415085, 0.70125,253.290390014648
0.035998305, 228.357282850059, -0.000974863685927047, 0.715,245.228271484375
0.0366647216666667, 228.369444474826, -0.00103368623138781, 0.7275,242.690628051758
0.0373314116666667, 228.381360955488, -0.000769186516891022, 0.74125,246.078277587891
0.03799799, 228.39278287587, -0.000599003565033618, 0.755,246.078277587891
0.038664755, 228.404673664278, -0.000628540081419792, 0.7675,247.496200561523
0.0393314416666667, 228.415588798161, -0.000482036440133643, 0.78,300.255126953125
0.0399980466666667, 228.427088974293, -0.000204350887954877, 0.79375,255.354217529297
0.0406646033333333, 228.438078974202, -0.000386452241203471, 0.8075,256.192443847656
0.041331405, 228.449822835679, -0.000543509352376286, 0.82,256.192443847656
0.04199807, 228.460462723729, -0.000639605025591731, 0.83375,255.435913085938
0.0426651583333333, 228.469910921149, -0.00081449774092553, 0.84625,260.157012939453
0.043331395, 228.479338392941, -0.0012517542779808, 0.86,261.912322998047
0.043998135, 228.489470760962, -0.00130225224149444, 0.87375,261.859100341797
0.0446646583333333, 228.499185394121, -0.000877307086087779, 0.8875,261.859100341797
0.04533153, 228.510167021591, -0.000765502701918998, 0.9,273.011688232422
0.0459980066666667, 228.522142266274, -0.000645906209115031, 0.91375,265.013885498047
0.046664685, 228.534166041862, -0.000484287827024252, 0.92625,262.405792236328
0.0473317433333333, 228.545436782893, -0.000432505928008878, 0.94,274.236267089844
0.0479979383333333, 228.557097577347, -0.000655765213939226, 0.95375,274.236267089844
0.048664715, 228.568413041115, -0.000451737962001835, 0.9675,267.824584960938
0.04933137, 228.579751189547, -7.20875314612418E-05, 0.98125,269.043212890625
0.0499981566666667, 228.591260792016, 7.34966559956775E-05, 0.99375,266.960174560547
0.0506646383333333, 228.602839070362, 0.000111651739512012, 1.00625,266.259002685547
0.051331405, 228.614132792037, -0.000140772081509995, 1.02,266.259002685547
0.05199797, 228.625197054781, -0.000302550955533175, 1.03375,269.279327392578
0.0526645733333333, 228.636365646591, -0.000652138396094526, 1.04875,260.701019287109
0.0533319366666667, 228.647060744414, -0.000483020390669704, 1.06,262.952545166016
0.05399867, 228.657918923675, -0.000144929872614702, 1.075,261.957153320313
0.0546647566666667, 228.668840288878, 4.86804025779736E-05, 1.0875,261.957153320313
0.055331475, 228.680077491058, 0.000176268493941507, 1.10125,315.00732421875
0.0559979266666667, 228.690750774039, 0.000505345964727038, 1.11375,260.067443847656
0.0566648766666667, 228.701570039001, 0.000477793848623931, 1.1275,267.443969726563
0.0573315516666667, 228.712333563563, 0.000347562889973013, 1.14125,265.602447509766
0.057998045, 228.722978072663, 0.000300333262286673, 1.155,265.602447509766
0.058664645, 228.733158257607, 0.000351792677534093, 1.16875,265.559967041016
0.059331325, 228.743468019625, 0.000589797722802107, 1.18125,264.719909667969
0.0599984733333333, 228.753340644823, 0.000479979238862051, 1.19375,266.225555419922
0.0606646983333333, 228.763133929566, 0.000507450359026128, 1.2075,267.180938720703
0.0613313, 228.772910645954, 0.00065040217868774, 1.22125,267.180938720703
0.0619983666666667, 228.782517397851, 0.000600528183789612, 1.235,269.247802734375
0.0626646766666667, 228.79211455357, 0.00018895035693897, 1.24875,267.741485595703
0.06333135, 228.801368318196, 0.000475579959822149, 1.26125,268.357696533203
0.0639980783333333, 228.810522809533, 0.000379793271076283, 1.275,266.065582275391
0.0646647233333333, 228.819207895925, 0.000340288255384475, 1.28875,266.065582275391
0.0653314533333333, 228.827645518567, 0.000365878470049309, 1.30125,266.784576416016
0.0659979816666667, 228.836201863816, 0.000691593109748875, 1.315,264.053375244141
0.066664635, 228.844663491543, 0.000512146623140384, 1.3275,267.860107421875
0.0673314866666667, 228.852898317716, 0.000456208432859689, 1.34125,271.079467773438
0.0679981683333333, 228.860961054603, 0.000542262110409978, 1.35375,271.079467773438
0.0686647116666667, 228.868744465061, 0.00067818528310644, 1.3675,271.908996582031
0.0693315216666667, 228.876967501812, 0.000333258108388651, 1.38125,261.787384033203
0.0699981083333333, 228.885141577574, 0.000212647666539303, 1.39375,266.768707275391
0.0706647383333333, 228.893178009295, 6.87283954463028E-05, 1.4075,272.298370361328
0.0713313466666667, 228.901173826395, -0.000224641868831584, 1.42,272.298370361328
0.071998105, 228.909164066, -0.000844241247006878, 1.43375,320.790679931641
0.0726647416666667, 228.916770102547, -0.000876651619038539, 1.44625,262.634399414063
0.0733314583333333, 228.924372044632, -0.000924362722522087, 1.46,263.191192626953
0.0739980966666667, 228.932052611499, -0.00104564213080407, 1.47375,263.424072265625
0.0746647716666667, 228.939473962467, -0.00109393970485681, 1.48625,263.424072265625
0.0753315033333333, 228.946981289675, -0.000860878411293355, 1.5,265.678375244141
0.0759982816666667, 228.953839495229, -0.00062351983357067, 1.5125,266.092895507813
0.0766646766666667, 228.960466002056, -0.000417799166705697, 1.52625,263.791839599609
0.077331485, 228.967098677872, -0.000116183816537823, 1.53875,265.646270751953
0.0779980483333333, 228.974367460257, -8.30714797154053E-05, 1.5525,265.646270751953
0.078664675, 228.981957396515, -0.000121346557184001, 1.565,271.037109375
0.079331315, 228.989301283149, -0.000397211200797146, 1.58,273.211486816406
0.0799979266666667, 228.997178530678, -0.000505409766084126, 1.5925,272.669860839844
0.0806649933333333, 229.005007948013, -0.000599519539028338, 1.605,270.434997558594
0.0813313916666667, 229.013427169121, -0.000757011628405623, 1.61875,270.434997558594
0.081998095, 229.021164189305, -0.000705672207131717, 1.63125,276.315521240234
0.0826648116666667, 229.029454249139, -0.000925400670421682, 1.645,274.436279296875
0.0833314266666667, 229.037179755825, -0.000913359275250681, 1.6575,276.905212402344
0.0839985266666667, 229.044904825944, -0.00101853699225815, 1.67,276.230102539063
0.08466466, 229.053806530967, -0.000872958804456333, 1.68375,276.230102539063
0.085331445, 229.062598214707, -0.0007078440980077, 1.69875,267.925994873047
0.0859980633333333, 229.070967839511, -0.000477326676635995, 1.7125,263.908142089844
0.0866646416666667, 229.079370574156, -0.000329464103606699, 1.725,262.25146484375
0.0873314916666667, 229.08753690619, -0.000253170435742465, 1.73875,259.157897949219
0.0879982416666667, 229.093747013629, -0.000370257554594701, 1.75125,259.157897949219
0.0886646583333333, 229.100347072362, -0.00072108243300128, 1.765,314.946502685547
0.08933139, 229.107405583892, -0.000965517655312527, 1.7775,262.1376953125
0.0899980783333333, 229.114083215989, -0.00137449161299529, 1.79125,267.225494384766
0.0906646516666667, 229.120443783653, -0.00124346119453116, 1.805,267.225494384766
0.0913314283333333, 229.12638481088, -0.000860839413216362, 1.81875,261.214172363281
0.0919980633333333, 229.132761388184, -0.000740803442540986, 1.8325,257.68310546875
0.0926647516666667, 229.1381803477, -0.000434559324835749, 1.845,262.686004638672
0.0933314016666667, 229.14449132513, -0.000131508546758909, 1.85875,258.964599609375
0.0939979516666667, 229.150732640792, -0.000138234208930838, 1.87125,261.521514892578
0.0946648, 229.157280134399, -0.000192616977350306, 1.885,261.521514892578
0.0953314316666667, 229.163573213071, 0.000123051166974657, 1.89875,264.509704589844
0.0959982183333333, 229.169818714362, 3.09632924448478E-05, 1.91125,264.704986572266
0.09666473, 229.175785623487, -0.000185142852773627, 1.925,268.769470214844
0.09733128, 229.182222471649, -0.000321769490163995, 1.93875,259.217468261719
0.0979980433333333, 229.188193726783, -0.000346399752976949, 1.9525,259.217468261719
0.0986646233333333, 229.194067114226, -0.000247284731427647, 1.96625,261.996948242188
0.0993313366666667, 229.200714602774, -0.000167068760547509, 1.98,260.892608642578
0.0999981166666667, 229.207297529659, 0.000339097315238255, 1.9925,259.094573974609
0.100664675, 229.21437471789, 0.000346409447958129, 2.00625,261.570098876953
0.101331783333333, 229.221894285383, 0.000394299042466919, 2.01875,261.570098876953
0.101998065, 229.229469721795, 0.00028892333537446, 2.0325,260.818603515625
0.102664771666667, 229.237424148095, 0.000216760460039437, 2.04625,255.768936157227
0.10333151, 229.245158440679, 2.9076387226738E-05, 2.05875,260.651916503906
0.103997986666667, 229.253162393737, -0.000298888139460289, 2.07375,261.195739746094
0.10466472, 229.260989216551, -0.000790008470985228, 2.08625,261.195739746094
0.105331413333333, 229.269105506434, -0.00112030538050189, 2.1,319.138031005859
0.105998363333333, 229.27707789494, -0.00124047034471846, 2.1125,259.910125732422
0.106664648333333, 229.285299597226, -0.00130059032495808, 2.12625,258.930084228516
0.107331338333333, 229.292509855175, -0.000921757353344784, 2.14,268.823364257813
0.107998053333333, 229.300589747742, -0.000669303533813458, 2.15375,268.823364257813
0.108664621666667, 229.308515765344, -0.000678714061134809, 2.16625,268.548187255859
0.109331365, 229.316778561339, -0.000731980885606966, 2.18,265.067077636719
0.109998078333333, 229.324840517054, -0.000888805508476022, 2.1925,263.505676269531
0.110664675, 229.333556405556, -0.00104579812287824, 2.205,268.773254394531
0.111331258333333, 229.341512292113, -0.00104496566470691, 2.22,268.773254394531
0.111998298333333, 229.349623562353, -0.00101709556458781, 2.2325,268.394653320313
0.112664633333333, 229.357318957126, -0.000820122458351673, 2.245,270.369506835938
0.113331258333333, 229.365220958997, -0.000864965705908602, 2.25875,263.312133789063
0.113998008333333, 229.37288267277, -0.000680806456059927, 2.2725,269.520660400391
0.114664596666667, 229.380782894279, -0.000589330550792917, 2.285,269.520660400391
0.115331426666667, 229.388538975585, -0.000590749479533449, 2.29875,262.903778076172
0.115998013333333, 229.396052445849, -0.000618690076099508, 2.3125,267.235046386719
0.116664643333333, 229.403841562291, -0.000538885084612132, 2.325,264.423858642578
0.117331556666667, 229.411650495414, -0.00065159842313932, 2.33875,266.975311279297
0.117997993333333, 229.4196069069, -0.000683878301747897, 2.35125,266.975311279297
0.118664798333333, 229.427202244428, -0.000810126960428035, 2.365,262.563568115234
0.119331376666667, 229.435297652026, -0.000842015358703599, 2.37875,268.210113525391
0.11999792, 229.443212410928, -0.00101252679409033, 2.39,263.616577148438
0.120664688333333, 229.451018718639, -0.00105915495200595, 2.40375,265.284698486328
0.121331403333333, 229.459046262104, -0.00139811542638488, 2.4175,265.284698486328
0.121998076666667, 229.467249505387, -0.00124816495824618, 2.43,323.706390380859
0.12266464, 229.475704059897, -0.0011774915081199, 2.44375,266.337768554688
0.123331448333333, 229.484579136636, -0.000887412078514109, 2.45625,261.866607666016
0.123998011666667, 229.493829358015, -0.000719027536292514, 2.47,267.560333251953
0.124664721666667, 229.503843902214, -0.000409167100255907, 2.48375,267.560333251953
0.125331503333333, 229.514534173496, -0.000463800356093228, 2.4975,266.414733886719
0.125997976666667, 229.525263881156, -0.000551110970569751, 2.51,265.818725585938
0.126664648333333, 229.536261645879, -0.000609266049501035, 2.52125,264.987976074219
0.127331448333333, 229.547585803729, -0.000670425477543398, 2.53625,254.252059936523
0.127997965, 229.558527091907, -0.00060185642169495, 2.55,254.252059936523
0.128665205, 229.569740871556, -0.000428265640998228, 2.56375,256.918365478516
0.12933153, 229.580737059372, -0.000264854848948, 2.57625,253.047653198242
0.12999801, 229.59183707153, -0.000252801454360518, 2.59,255.636734008789
0.130664673333333, 229.603082210263, -0.000516914188233745, 2.60375,252.043960571289
0.13133143, 229.613929838774, -0.000558804084151814, 2.61625,252.043960571289
0.131998298333333, 229.62468628525, -0.000568073618558005, 2.63,255.77961730957
0.132664728333333, 229.635644111525, -0.000390584533678339, 2.64375,256.703460693359
0.133331453333333, 229.646745863512, -0.000358856627335177, 2.65625,250.893737792969
0.133998068333333, 229.657804425156, -0.000301591003723804, 2.67,253.537216186523
0.134664605, 229.66900580923, -0.000432726416938665, 2.68375,253.537216186523
0.135331695, 229.680217804146, -0.000548501101661746, 2.6975,248.821350097656
0.135998075, 229.691370635299, -0.000897748059341049, 2.71125,253.084991455078
0.136664715, 229.702185461061, -0.00109948492628958, 2.72375,259.498413085938
0.137331453333333, 229.712936164879, -0.000961404861897409, 2.7375,303.3818359375
0.137998038333333, 229.723477804836, -0.000816171656772107, 2.75,303.3818359375
0.138664738333333, 229.73434196616, -0.000648405083532178, 2.76375,257.286346435547
0.13933136, 229.745282550517, -0.000583159860756464, 2.77625,248.451400756836
0.139998155, 229.756263168234, -0.0004267597165998, 2.79,253.125198364258
0.140664778333333, 229.766847624252, -0.000421901460607484, 2.80375,250.450317382813
0.141331448333333, 229.777768420905, -0.000452519422722203, 2.8175,250.450317382813
0.141997931666667, 229.788002831622, -0.000176723775631608, 2.83125,257.320220947266
0.142664785, 229.798340113276, -9.81967199696031E-05, 2.84375,253.905960083008
0.143331501666667, 229.808291835611, 3.48615966703002E-05, 2.8575,254.994125366211
0.143998105, 229.819438906572, -0.000171300048075501, 2.87,256.440002441406
0.144664638333333, 229.830163251825, -0.000120682090545833, 2.88375,256.440002441406
0.145331341666667, 229.841282964372, -0.000193024956851755, 2.8975,253.211074829102
0.145998233333333, 229.852113157669, 0.000113751634080401, 2.91,255.270736694336
0.146664633333333, 229.863495120543, 0.000151338246162885, 2.92375,249.102310180664
0.147331345, 229.873750325361, 0.000492716599104943, 2.9375,254.773040771484
0.147998123333333, 229.884592297559, 0.000487027384886952, 2.95,254.773040771484
0.14866462, 229.895536257843, 0.000156082507900553, 2.96375,252.040405273438
0.149331573333333, 229.906426661735, -6.18084178989611E-06, 2.9775,246.798110961914
0.14999806, 229.917357255043, -0.000124832382049778, 2.99,251.684295654297
0.150664741666667, 229.928552186284, -0.000547196167197117, 3.00375,243.574829101563
0.151331431666667, 229.939498580283, -0.00059320785605547, 3.0175,243.574829101563
0.151998186666667, 229.950001373903, -0.000520377514254727, 3.03125,241.917114257813
0.152664748333333, 229.960893915572, -0.000564467799612442, 3.04375,248.597244262695
0.153331578333333, 229.971417920096, -0.000854269743161118, 3.05625,241.637634277344
0.153998003333333, 229.982369080017, -0.000636363688339922, 3.07,294.858856201172
0.154664661666667, 229.993353770269, -0.000679882502457487, 3.0825,294.858856201172
0.155331438333333, 230.004001519298, -0.000665100744934144, 3.09625,249.697540283203
0.155998151666667, 230.014140968493, -0.000696329176387259, 3.10875,241.736892700195
0.156664648333333, 230.024747239482, -0.000765127720711913, 3.1225,244.096710205078
0.157331275, 230.034599085511, -0.000831634380165816, 3.135,241.677551269531
0.157998061666667, 230.04473095445, -0.000787859078975294, 3.14875,241.677551269531
0.158664663333333, 230.054792788323, -0.00107367872255319, 3.1625,245.351028442383
0.159331471666667, 230.065017326248, -0.00106536464016191, 3.175,247.976089477539
