Time (min), Depth (µm), Load (N), Position (µm), Acoustic (aJ)
9.205E-06, 241.242437292142, -0.00083397916959834, 0,284.613037109375
0.000664426666666667, 241.242776485922, -0.000887703471098507, 0.00625000000000105,289.910278320313
0.0013317, 241.243804824091, -0.000894324138540955, 0.0187500000000014,290.543182373047
0.00199753, 241.24656611978, -0.000787848986669621, 0.0337500000000008,298.601165771484
0.002664725, 241.251224163847, -0.000419199003551627, 0.0487500000000002,299.580230712891
0.00333113, 241.258361155189, -0.000644840169880686, 0.0612500000000005,299.580230712891
0.00399751166666667, 241.266971581678, -0.000846574037022922, 0.0750000000000004,302.853057861328
0.004664365, 241.276460784647, -0.000765956086360202, 0.0887500000000003,302.191864013672
0.00533117833333333, 241.286594645911, -0.000800899831176556, 0.103750000000001,305.829223632813
0.00599757833333333, 241.296570384169, -0.000662426786526966, 0.117500000000001,305.151611328125
0.00666452666666667, 241.306959768361, -0.000620989867863696, 0.132500000000001,305.151611328125
0.00749780666666667, 241.317132851205, -0.000662206297575924, 0.146250000000001,295.809143066406
0.008164215, 241.327611258999, -0.000867305995652932, 0.16,303.255645751953
0.00883104166666667, 241.337809402111, -0.000946641510738325, 0.172500000000001,301.491271972656
0.00949747833333333, 241.348135479679, -0.00127031775281254, 0.186250000000001,304.474243164063
0.0101648566666667, 241.356916021625, -0.0012517081875107, 0.198750000000001,306.756317138672
0.0108311, 241.365250745806, -0.00113593050291756, 0.212500000000001,306.756317138672
0.011497615, 241.373128114914, -0.000880727321487472, 0.225000000000001,308.875
0.0121643866666667, 241.381668680355, -0.000692705765599023, 0.238750000000001,312.494720458984
0.012831045, 241.389949319364, -0.00061339424934659, 0.252500000000001,311.997436523438
0.0134975183333333, 241.398893838557, -0.000413706279494225, 0.266250000000001,311.997436523438
0.01416434, 241.408509430658, -0.00023113994961686, 0.278750000000001,379.589263916016
0.0148310116666667, 241.418660767001, -0.000210193501754676, 0.292500000000001,316.081787109375
0.015498025, 241.428632808523, -0.000355116222443488, 0.306250000000001,319.94580078125
0.0161642716666667, 241.438599739838, 1.05849087663485E-05, 0.318750000000001,323.724945068359
0.016830895, 241.449269240573, -0.000106610204600413, 0.332500000000001,320.445770263672
0.0174975666666667, 241.460145527217, 0.00014794350943554, 0.345,320.445770263672
0.0181662166666667, 241.471150493775, 5.2674294715068E-05, 0.358750000000001,317.014556884766
0.0188310166666667, 241.482163197951, 0.000278081472730947, 0.372500000000001,318.621215820313
0.0194989933333333, 241.493152843179, -0.000160917976778464, 0.386250000000001,318.098663330078
0.0201658816666667, 241.503769047919, -4.16634668234558E-05, 0.400000000000001,318.680969238281
0.0208309283333333, 241.51435906102, -0.00026676616016422, 0.412500000000001,318.680969238281
0.02149761, 241.524750798555, -0.000361712891074229, 0.426250000000001,313.233215332031
0.0221643416666667, 241.535014926755, -0.00049858551610924, 0.440000000000001,316.617370605469
0.0228325366666667, 241.545082777695, -0.000342540854078656, 0.453750000000001,315.282409667969
0.0234990966666667, 241.555126896546, -0.000271604917139294, 0.466250000000001,314.838684082031
0.0243337983333333, 241.570330970942, -0.00028300884433264, 0.48375,314.317199707031
0.0249975216666667, 241.579996240208, -8.66927050701508E-05, 0.49625,314.317199707031
0.025664405, 241.590306334565, -8.48063359659284E-06, 0.51,320.002593994141
0.02633179, 241.60069221011, -0.000369879980873992, 0.52375,324.730895996094
0.0269975916666667, 241.610741108934, -0.00051964145849537, 0.5375,318.726196289063
0.027665195, 241.621192219653, -0.000644495187204174, 0.55,323.085662841797
0.0283321283333333, 241.631750039785, -0.000623335750034219, 0.5625,323.085662841797
0.028997505, 241.642104023727, -0.000558168523306221, 0.57625,320.201354980469
0.02966548, 241.652874988571, -0.000526026637785251, 0.59125,383.369598388672
0.03033166, 241.663477931354, -0.000563004280432488, 0.60375,323.847747802734
0.0309979166666667, 241.673795241877, -0.000740803849769898, 0.6175,325.496185302734
0.0316654766666667, 241.684024399879, -0.00085295471651834, 0.63,325.496185302734
0.03233171, 241.694525881548, -0.000821304806265401, 0.642500000000001,321.740997314453
0.032997705, 241.704791426685, -0.000809746386837266, 0.656250000000001,324.85888671875
0.0336643466666667, 241.715781225823, -0.000912042748598484, 0.67,326.5576171875
0.0343312983333333, 241.726773756689, -0.000665548129762752, 0.68375,318.822387695313
0.034997665, 241.737985055247, -0.000611016868827361, 0.696250000000001,318.822387695313
0.0356654666666667, 241.748680393766, -0.000701019848054068, 0.710000000000001,318.004028320313
0.036331615, 241.759382855836, -0.000590959876263833, 0.722500000000001,319.849639892578
0.03699775, 241.770647821498, -0.000807877480711995, 0.736250000000001,319.590698242188
0.0376645816666667, 241.781339998002, -0.000949344374980586, 0.750000000000001,320.240478515625
0.03833097, 241.791738339718, -0.000886424035412496, 0.7625,320.240478515625
0.0389975666666667, 241.802904822152, -0.00117277615228107, 0.776250000000001,316.925537109375
0.039664945, 241.813712287578, -0.00118241316818731, 0.78875,323.628814697266
0.0403316083333333, 241.823508236992, -0.000969107382297313, 0.8025,311.128875732422
0.0409978683333333, 241.834156656448, -0.0010487143836997, 0.816250000000001,311.170043945313
0.0416642133333333, 241.84507166935, -0.00124131970932965, 0.828750000000001,311.170043945313
0.0423312, 241.855216804278, -0.000794943630308514, 0.8425,315.555419921875
0.0429975816666667, 241.865871650006, -0.000804784636039871, 0.85625,314.978179931641
0.04366577, 241.876539621125, -0.000444526731424637, 0.868750000000001,316.52001953125
0.0443314166666667, 241.887115818553, -0.000205309747068758, 0.882500000000001,317.360290527344
0.044997605, 241.896739099895, 0.000106310100569173, 0.895000000000001,317.360290527344
0.0456650616666667, 241.907421119658, 0.000139965410131841, 0.9075,320.884582519531
0.0463308066666667, 241.916877209072, 0.000377572975369229, 0.92125,379.200531005859
0.0469975483333333, 241.92711797242, 0.000102851274342654, 0.933750000000001,316.749481201172
0.0476646066666667, 241.936545394031, 0.000107981016694468, 0.9475,312.451141357422
0.0483309783333333, 241.94722841925, -3.91750917708609E-05, 0.960000000000001,312.451141357422
0.0489976533333333, 241.956968688868, -8.16139601055394E-05, 0.973750000000001,319.316162109375
0.0496643216666667, 241.967615847507, -0.000200412492978195, 0.9875,318.183410644531
0.0503319633333333, 241.978251484119, 1.31812784184862E-05, 1.00125,321.791687011719
0.0509976383333333, 241.989377443269, 0.000211975293220239, 1.01375,320.305389404297
0.0516644216666667, 242.000177338752, 0.000248261470590049, 1.02625,320.305389404297
0.052331055, 242.011883687372, 0.000268655946186818, 1.03875,314.356811523438
0.0529975033333333, 242.024320716987, 0.000100793377763827, 1.05375,319.839416503906
0.0536648566666667, 242.036346800069, -0.000249800512263397, 1.06875,320.735046386719
0.05433098, 242.048465541534, -0.000732075788073284, 1.08125,320.019653320313
0.0549975483333333, 242.060261937767, -0.000877157500770095, 1.09375,320.019653320313
0.0556653316666667, 242.070652922846, -0.00100479058990823, 1.1075,313.012268066406
0.0563310766666667, 242.08064269542, -0.00109610000354523, 1.12125,317.1845703125
0.0569980283333333, 242.090493135, -0.00101161824696084, 1.13375,316.246704101563
0.0576647966666667, 242.100336592337, -0.000862501736939133, 1.1475,316.854644775391
0.058331325, 242.11025743701, -0.000883340190244283, 1.16,316.854644775391
0.0589992083333333, 242.121111480897, -0.00118651246221904, 1.17375,310.286682128906
0.0596643866666667, 242.131574505679, -0.00103598602300322, 1.1875,310.824676513672
0.0603308416666667, 242.14167204878, -0.0011185808743695, 1.20125,318.624206542969
0.0609975083333333, 242.152006973998, -0.00100819241907119, 1.21375,320.468963623047
0.0616642116666667, 242.162218852904, -0.00109669847353091, 1.2275,320.468963623047
0.062331105, 242.172426601586, -0.00106922435347552, 1.24125,311.663391113281
0.06299747, 242.182698274442, -0.00119719042587369, 1.25375,375.416778564453
0.0636641783333333, 242.19351359225, -0.00111119974510582, 1.2675,312.141448974609
0.06433156, 242.203886381162, -0.00124262164390296, 1.28125,317.636749267578
0.06499771, 242.214190910652, -0.000803443703325801, 1.29375,317.636749267578
0.0656643033333333, 242.224403089783, -0.000670029904581071, 1.3075,315.636383056641
0.06633094, 242.234400346511, -0.000330178474936579, 1.32125,315.437042236328
0.0669980866666667, 242.24396404741, -0.000196380695438345, 1.335,316.981536865234
0.0676643066666667, 242.253681969809, -3.60312496265177E-05, 1.34875,317.692413330078
0.0683310983333333, 242.26371587211, -0.000548311018342666, 1.36125,317.692413330078
0.0689975416666667, 242.273542864362, -0.000564946682768502, 1.375,318.782592773438
0.0696641383333333, 242.283633943256, -0.000611418848524926, 1.3875,323.411437988281
0.070331905, 242.293437818162, -0.000673968706744157, 1.4025,318.540557861328
0.0709975166666667, 242.303420532719, -0.000862861718859678, 1.41625,318.600708007813
0.0716642583333333, 242.313730308624, -0.000534711201525393, 1.4275,318.600708007813
0.0723311033333333, 242.323457066307, -0.000398437046412298, 1.44125,314.60498046875
0.0729975816666667, 242.332796284684, -0.000436988110034855, 1.455,319.130889892578
0.0736641583333333, 242.342723906117, -0.00048408124455799, 1.4675,321.835754394531
0.0743310716666667, 242.352473566231, -0.00057844450481137, 1.4825,325.018920898438
0.0749976566666667, 242.361546795191, -0.000597636040845439, 1.495,325.018920898438
0.075664565, 242.371289636855, -0.000560770892549701, 1.50875,313.375610351563
0.0763323883333333, 242.381001381075, -0.000708118991444917, 1.52125,318.038116455078
0.0769979716666667, 242.390711771488, -0.000874094654671052, 1.535,320.416351318359
0.077664745, 242.399588108, -0.000819306906620196, 1.5475,315.631439208984
0.07833102, 242.409254274325, -0.000913596670535308, 1.56125,315.631439208984
0.07899751, 242.41860654, -0.00109962332662736, 1.575,315.594909667969
0.0796642066666667, 242.427952085012, -0.00105640299750855, 1.5875,383.905029296875
0.0803327, 242.437217755477, -0.000941207283690142, 1.60125,324.932434082031
0.0809981933333333, 242.446989398298, -0.000748450465652953, 1.615,321.62841796875
0.081664995, 242.456158582439, -0.000708550969715563, 1.6275,321.62841796875
0.0823312616666667, 242.465972679477, -0.000890472331972003, 1.64125,317.540313720703
0.082997575, 242.475875581751, -0.00129498701363873, 1.655,325.810485839844
0.0836641683333333, 242.485825301715, -0.00130662342913583, 1.6675,319.971893310547
0.0843312, 242.495623194134, -0.00152142763975974, 1.68125,319.595153808594
0.0849976, 242.505522020875, -0.00154157012803551, 1.69375,319.595153808594
0.0856644516666667, 242.515264844544, -0.00130124619927874, 1.7075,322.107452392578
0.086330835, 242.525199757795, -0.00087414865194957, 1.72,315.978149414063
0.0869976016666667, 242.535364300988, -0.000969966839107904, 1.73375,317.15576171875
0.087664635, 242.545559074457, -0.000974402116354739, 1.7475,306.533813476563
0.0883309166666667, 242.555721551223, -0.000912380231652979, 1.76,306.533813476563
0.08899766, 242.565780426397, -0.00118364460629242, 1.7725,318.963989257813
0.0896645583333333, 242.575713948737, -0.00154162562528094, 1.78625,314.464599609375
0.090331035, 242.58482563115, -0.00163011368058405, 1.8,314.628143310547
0.0909975383333333, 242.594317792255, -0.00156230658645998, 1.8125,314.358215332031
0.091664195, 242.603224391231, -0.00158751132042565, 1.825,314.358215332031
0.0923310783333333, 242.612387815077, -0.00139337457172493, 1.83875,319.974578857422
0.092998065, 242.620945151681, -0.0010953170428792, 1.8525,319.503753662109
0.0936647466666667, 242.630191404226, -0.000968426416469455, 1.86625,322.2177734375
0.0943309416666667, 242.639578735069, -0.00123069724287792, 1.8775,318.432495117188
0.0949974616666667, 242.649509426532, -0.00117878935017017, 1.89125,318.432495117188
0.0956641366666667, 242.65872052888, -0.00100175024265399, 1.905,308.375946044922
0.09633167, 242.668584384532, -0.00115400159520985, 1.91875,372.075531005859
0.0969980866666667, 242.677695383983, -0.000981297269962983, 1.9325,318.802886962891
0.0976646483333333, 242.68622797178, -0.0007741216761718, 1.94625,313.226165771484
0.0983317783333333, 242.694633325288, -0.000685030651152307, 1.95875,313.226165771484
0.098997515, 242.703140232685, -0.000738093485863113, 1.9725,311.743591308594
0.0996648166666667, 242.711359074095, -0.000656707573778401, 1.98625,317.299438476563
0.100331245, 242.720036645562, -0.000907527975337022, 1.99875,317.306579589844
0.100999041666667, 242.728656793441, -0.000792830236463004, 2.0125,322.084167480469
0.101664356666667, 242.737011477731, -0.000964496613831534, 2.02625,322.084167480469
0.102331285, 242.745600350502, -0.00088098530852734, 2.03875,315.211334228516
0.102997593333333, 242.754310033621, -0.000707924001208731, 2.0525,322.091064453125
0.103664443333333, 242.762426014154, -0.00046835003475986, 2.06625,314.113708496094
0.104331113333333, 242.770583239483, -0.000572759790366588, 2.08,321.833740234375
0.104997546666667, 242.778704408279, -0.000290509967484816, 2.0925,321.833740234375
0.105664178333333, 242.786622881489, -0.000493769257957707, 2.10625,319.231140136719
0.10633113, 242.794280804107, -0.000617046565842384, 2.11875,318.500610351563
0.106997581666667, 242.802708478874, -0.00077688753719649, 2.1325,312.752136230469
0.107664236666667, 242.81112020311, -0.000890796315685615, 2.14625,317.722778320313
0.10833116, 242.819067767514, -0.00118614798046152, 2.15875,317.722778320313
0.10899761, 242.826948118492, -0.00106628300116812, 2.1725,310.322448730469
0.109665016666667, 242.83472644471, -0.000962744701809718, 2.18625,314.4306640625
0.110331053333333, 242.842138660856, -0.000660148400933335, 2.19875,314.144287109375
0.110997533333333, 242.849421632404, -0.000549558955743734, 2.2125,318.044586181641
0.11166483, 242.857765223998, -0.000666355089197975, 2.22625,318.044586181641
0.112331061666667, 242.866028262441, -0.00119245516372495, 2.23875,383.178192138672
0.112997515, 242.874301117603, -0.00112669246694509, 2.2525,322.921447753906
0.113664498333333, 242.882480969615, -0.00144179813949131, 2.26625,316.330352783203
0.114331338333333, 242.890583907175, -0.0012910482114969, 2.28,317.289947509766
0.114997565, 242.898389709768, -0.00136374356010135, 2.2925,317.289947509766
0.1156643, 242.906151512205, -0.0010567674792023, 2.30625,316.274261474609
0.116331025, 242.914174023218, -0.00138931427570643, 2.32,315.685668945313
0.116997601666667, 242.921917047026, -0.00122340460919655, 2.3325,311.445648193359
0.117664533333333, 242.929816333728, -0.00125037325453675, 2.34625,312.616271972656
0.118331813333333, 242.937638038463, -0.00114276115975521, 2.35875,312.616271972656
0.118997498333333, 242.945184726544, -0.00110377361802503, 2.3725,309.705505371094
0.119664156666667, 242.953120762329, -0.00113322163887142, 2.38625,307.175750732422
0.120330923333333, 242.961199482145, -0.00131814585031453, 2.39875,306.153137207031
0.120997588333333, 242.969357096977, -0.00129065373120881, 2.4125,308.421112060547
0.121664465, 242.977647421226, -0.00134919579072115, 2.425,308.421112060547
0.122331026666667, 242.986346402363, -0.00112703444964527, 2.4375,311.250610351563
0.122998248333333, 242.995214419879, -0.000907364483449542, 2.45125,306.204742431641
0.12366432, 243.004542743659, -0.000622032315366468, 2.465,308.418304443359
0.12433089, 243.01406741128, -0.000922386228919915, 2.4775,308.398376464844
0.124997473333333, 243.02352843696, -0.000554105227290139, 2.49125,308.398376464844
0.125664758333333, 243.033942404893, -0.00106817140628938, 2.505,310.460540771484
0.126330995, 243.043458289352, -0.000942495718816303, 2.5175,304.280914306641
0.126997576666667, 243.053008107276, -0.000692489776357429, 2.53125,304.544494628906
0.127664788333333, 243.063265376526, -0.000877022507467531, 2.545,309.868774414063
0.128331306666667, 243.072943933393, -0.00106055778867943, 2.55625,309.868774414063
0.128997531666667, 243.082313222733, -0.000560391411505644, 2.57,359.551422119141
0.129665161666667, 243.092428309629, -0.000623328250263424, 2.58375,316.422454833984
0.13033101, 243.103051628278, -0.000829690884879262, 2.59625,305.208404541016
0.130997503333333, 243.112559795439, -0.000246979153865754, 2.61,307.370849609375
0.131664321666667, 243.122744018328, -0.000123397361263453, 2.6225,307.370849609375
0.132331046666667, 243.132808573457, -0.000189526039661465, 2.63625,310.021606445313
0.132997556666667, 243.142915628577, -0.000401631885816319, 2.65,316.248138427734
0.133664403333333, 243.152359149961, -0.000707376528589001, 2.6625,310.018402099609
0.134331461666667, 243.162202992767, -0.000979120879143757, 2.67625,311.649688720703
0.134997945, 243.171983507233, -0.00110850438037931, 2.68875,311.649688720703
0.135664131666667, 243.181614133989, -0.0012397432884205, 2.7025,315.792419433594
0.136330843333333, 243.190471438717, -0.00089386366162163, 2.715,316.534057617188
0.136999046666667, 243.19973379475, -0.000443370289390914, 2.72875,309.906127929688
0.137666125, 243.20914503146, -0.000385017220374637, 2.7425,309.906127929688
0.138331905, 243.218459931612, -0.000375740186325176, 2.755,318.811889648438
0.138997606666667, 243.227939333293, -0.000296805151161723, 2.76875,308.558807373047
0.139665255, 243.238254017519, -0.00067584811223398, 2.7825,312.172149658203
0.140330978333333, 243.248090631177, -0.000721889799601653, 2.79625,318.343414306641
0.140998675, 243.258392669348, -0.000657900013764007, 2.80875,309.772491455078
0.141665181666667, 243.268563481856, -0.00060119236215817, 2.8225,309.772491455078
0.142331003333333, 243.278956959009, -0.000401321401486099, 2.83625,311.895141601563
0.142999365, 243.289170467403, -0.00032174289860487, 2.84875,315.577301025391
0.14366418, 243.299635531031, -0.000473260787978765, 2.8625,312.778106689453
0.144332458333333, 243.3096062034, -0.000495546668566854, 2.87625,310.818054199219
0.144997868333333, 243.319986867453, -0.000332965334839151, 2.88875,310.818054199219
0.145664348333333, 243.329764900469, -0.000393521793165134, 2.9025,370.717498779297
0.14633098, 243.339811957946, -0.000364675242110728, 2.91625,309.508361816406
0.146998793333333, 243.349829668624, -0.000293764803907475, 2.93,307.439788818359
0.147664585, 243.359861469042, -0.000222750870899143, 2.94375,306.206695556641
0.148330865, 243.369758946263, -0.000256544173485657, 2.95625,306.206695556641
0.148997483333333, 243.380147318688, -0.000594061720312344, 2.97,314.395477294922
0.14966432, 243.390059434249, -0.000434018259100036, 2.9825,308.363311767578
0.150330875, 243.399675618647, -0.000548796993870575, 2.99625,308.540435791016
0.150997526666667, 243.409627823657, -0.00064273727535722, 3.00875,306.623779296875
0.151664241666667, 243.419262500298, -0.000372320358111888, 3.0225,306.623779296875
0.152331068333333, 243.428648497222, -0.000255981701685657, 3.03625,310.087188720703
0.152998395, 243.438419622288, -0.000256334184005439, 3.05,308.522003173828
0.15366432, 243.448091390974, 2.66686010330397E-05, 3.06375,304.711853027344
0.1543325, 243.457786771706, 0.000115491139605604, 3.07625,308.3359375
0.154997515, 243.467780956281, -0.000116848690213616, 3.09,308.3359375
0.155664376666667, 243.478007300103, 0.000104049714302176, 3.10375,309.276550292969
0.156331903333333, 243.487768998378, 5.41307216932053E-05, 3.11625,307.424255371094
