Time (min), Depth (µm), Load (N), Position (µm), Acoustic (aJ)
7.58E-06, 227.975353437003, 0.000201807281397098, 0,214.593276977539
0.00066735, 227.975178800453, -4.0492048138828E-05, 0.00499999999999999,216.421234130859
0.00133406833333333, 227.975209281563, -0.000215023281627679, 0.01625,216.421234130859
0.00200052166666667, 227.975435372086, -0.000424906239434332, 0.03125,221.358734130859
0.00266714833333333, 227.976024087879, -0.000820784354878058, 0.04625,184.467788696289
0.00333372166666667, 227.976533361746, -0.00077110235036731, 0.06,240.612548828125
0.00400036666666667, 227.977041014112, -0.000562711817618202, 0.075,250.986282348633
0.00466711166666667, 227.978237822491, -0.000424807244402463, 0.0925,250.986282348633
0.00550066, 227.979233458067, -0.000342513877905001, 0.10625,259.366607666016
0.006167215, 227.981327904802, -0.000228467106370776, 0.12,261.278961181641
0.00683389333333333, 227.984777959328, -0.000359418028841528, 0.13375,266.242309570313
0.00750048, 227.990022504827, -0.000210636002025511, 0.14625,264.021331787109
0.00816910166666667, 227.996430121331, -0.000162288930424949, 0.16,264.021331787109
0.00883384166666667, 228.004537820328, -0.000304972263575869, 0.1725,265.046295166016
0.00950050333333333, 228.013867893485, -0.000326836665342879, 0.18625,269.398193359375
0.0101672433333333, 228.023593493982, -0.000194165329284033, 0.2,268.151641845703
0.01083384, 228.033937495884, -0.000188332122280821, 0.2125,265.069458007813
0.0115019133333333, 228.044331311867, -0.000337927108314691, 0.22625,265.069458007813
0.012167125, 228.055651568469, -0.000154379827707562, 0.24,318.478088378906
0.0128338583333333, 228.066951771409, -0.000282075913649384, 0.25375,267.245971679688
0.0135008983333333, 228.078331899587, -0.000371924400641301, 0.2675,261.490905761719
0.0141671566666667, 228.090205290326, -0.000453776789236681, 0.28,265.298889160156
0.0148338633333333, 228.108287158608, -0.000472693839019937, 0.29375,265.298889160156
0.0156672333333333, 228.120725573516, -0.000455657694714669, 0.31125,267.889404296875
0.0163341716666667, 228.132949505534, -0.000370802456890107, 0.32375,267.889404296875
0.0170004583333333, 228.14509094876, -0.000260409501861095, 0.3375,269.850189208984
0.0176671933333333, 228.156412565375, -0.000137261187496352, 0.35125,266.63427734375
0.0183337716666667, 228.168491086111, -0.000170396023163565, 0.36375,265.449645996094
0.01900124, 228.180307897309, -0.000103545880978808, 0.3775,268.108245849609
0.01966728, 228.191921654515, -0.000304274798558321, 0.39,268.108245849609
0.0203337016666667, 228.204052939456, -0.000163664361251515, 0.40375,266.119659423828
0.0210004066666667, 228.216997645101, -8.49498149965947E-05, 0.4175,270.594696044922
0.0216670866666667, 228.229757426277, -0.000392668358645283, 0.43,269.194305419922
0.0223354233333333, 228.242541486039, -0.0004667571372329, 0.44375,269.194305419922
0.0230003683333333, 228.25487532194, 5.03343897765546E-05, 0.4575,269.603210449219
0.0236670783333333, 228.267853349719, -5.78221776483885E-05, 0.47125,267.469116210938
0.024334265, 228.280239875031, -0.000305602231910253, 0.485,260.047302246094
0.025000415, 228.292770736403, 9.48731526583679E-05, 0.4975,265.628082275391
0.0256671, 228.305410834287, 2.20428108788793E-05, 0.51375,258.757690429688
0.02650053, 228.318806346332, -0.00038696264517384, 0.5275,259.078735351563
0.0271672016666667, 228.331351571429, -0.000438692046920117, 0.54,259.078735351563
0.0278339083333333, 228.344389055042, 0.000140589356345517, 0.55375,257.653076171875
0.0285005666666667, 228.356641268277, 0.0002241201606457, 0.5675,302.301086425781
0.0291674333333333, 228.369134349161, 0.00033664300875242, 0.58,250.363327026367
0.0298338716666667, 228.380803509352, 0.000635081518460332, 0.59375,253.072479248047
0.03050045, 228.39313819641, 0.0007607992038167, 0.60625,253.072479248047
0.0311671883333333, 228.405157213031, 0.000560260776657655, 0.62,248.35710144043
0.0318338033333333, 228.417024200818, 0.000536273981498715, 0.63375,244.843688964844
0.0325004533333333, 228.429126037345, 0.000829464254826956, 0.6475,253.422378540039
0.0333347466666667, 228.447453821598, 0.000711367686723804, 0.6625,248.539169311523
0.0340005516666667, 228.4591154461, 0.000621741188607331, 0.67625,248.106552124023
0.0346671816666667, 228.471046988959, 0.000601339213388546, 0.68875,248.106552124023
0.0353338716666667, 228.482834048508, 0.00076835132456862, 0.7025,245.015808105469
0.0360007183333333, 228.494106247144, 0.000452062211455691, 0.71625,248.515167236328
0.0366671683333333, 228.505390425617, 0.000515918504000193, 0.72875,250.372406005859
0.0373339216666667, 228.517017757655, 4.58931128746148E-05, 0.74125,241.88720703125
0.0380004083333333, 228.5283807814, -0.000155831754699948, 0.755,241.88720703125
0.03866733, 228.540053521481, -0.000389596512936059, 0.76875,252.970703125
0.0393341516666667, 228.551488684912, -0.000318111603601342, 0.78125,254.020355224609
0.0400005116666667, 228.562879518493, -0.000530275946765415, 0.795,257.447082519531
0.0406673, 228.57472199093, -0.000266908675405624, 0.8075,263.394195556641
0.0413337616666667, 228.586835898423, -0.000707978020931597, 0.82125,263.394195556641
0.042000475, 228.597952938843, -0.000883574200938048, 0.83375,259.886047363281
0.04266714, 228.607580059893, -0.000785177643262924, 0.8475,261.369812011719
0.043333925, 228.617403859186, -0.000602459820999575, 0.86125,275.783752441406
0.0440004533333333, 228.627109146412, -0.000189136081845983, 0.87375,285.048797607422
0.04466715, 228.636709161686, -1.43753598809256E-05, 0.8875,285.048797607422
0.04533384, 228.646908936301, -4.3940374852016E-05, 0.90125,341.760986328125
0.0460004983333333, 228.65827943631, 1.83634956375567E-05, 0.915,288.669647216797
0.0466671983333333, 228.66964617131, 1.46946799095651E-05, 0.9275,287.252410888672
0.0473338716666667, 228.680986872929, 0.000123155732030878, 0.94,286.160491943359
0.048000545, 228.69251263591, 0.000213418198200603, 0.95375,286.160491943359
0.048667155, 228.704489603947, 0.000188153467237546, 0.9675,285.213531494141
0.0493337733333333, 228.716400976059, 0.000173011727836166, 0.98125,284.976379394531
0.0500007016666667, 228.728725341306, 1.13063501512533E-05, 0.995,279.598510742188
0.05066714, 228.740321749712, -0.000180171032136162, 1.0075,290.353332519531
0.051333805, 228.751600521706, -5.35803906495737E-05, 1.02125,290.353332519531
0.0520007466666667, 228.762665528134, 0.000180941829580215, 1.035,286.451141357422
0.0526672083333333, 228.774170253951, 0.000184685641507115, 1.04875,286.023284912109
0.0533339783333333, 228.78530675158, 0.000664742528720756, 1.06125,279.522125244141
0.05400047, 228.79687528647, 0.000643700085675509, 1.075,280.420104980469
0.0546671183333333, 228.808870076537, 0.000850377704479794, 1.0875,280.420104980469
0.0553338316666667, 228.820419865003, 0.000851265659896555, 1.10125,280.295379638672
0.0560004983333333, 228.832263233397, 0.000923523030490237, 1.115,282.775390625
0.05666721, 228.843565057689, 0.00047507255572184, 1.1275,276.391052246094
0.0573339583333333, 228.855259690152, 0.000595354514105621, 1.14125,282.776214599609
0.0580005733333333, 228.866074363407, 0.000668483340926375, 1.155,282.776214599609
0.058667235, 228.877097049895, 0.000601811689809368, 1.16875,286.923187255859
0.0593339116666667, 228.887390570252, 0.000649866276087532, 1.1825,282.536590576172
0.0600005116666667, 228.898244502513, 0.000908330293701655, 1.195,279.474365234375
0.0606671733333333, 228.908559762319, 0.000608432357273069, 1.20875,338.92333984375
0.06133376, 228.919356859435, 0.000335890046787001, 1.22125,338.92333984375
0.0620004766666667, 228.929646591197, 9.78370039168284E-05, 1.235,284.956848144531
0.0626671333333333, 228.940228439042, 4.32120110006854E-06, 1.25,282.106262207031
0.0633339383333333, 228.949854799898, 1.04198947651657E-05, 1.26125,284.489379882813
0.0640005666666667, 228.959505836482, 0.000197079519040407, 1.275,287.265869140625
0.0646671266666667, 228.968503686416, 0.000582531658171744, 1.28875,287.265869140625
0.0653341483333333, 228.977718175967, 0.000853941525520811, 1.3025,285.751037597656
0.06600047, 228.986793706516, 0.000814919485550615, 1.315,289.991790771484
0.0666671816666667, 228.995782044478, 0.00058871734745223, 1.3275,283.355102539063
0.067333855, 229.004791073307, 0.00031992334870878, 1.3425,289.040435791016
0.0680005616666667, 229.014077193067, -0.000203385366057392, 1.355,289.040435791016
0.06866716, 229.023192853762, -0.000534255246802373, 1.36875,279.530609130859
0.0693338066666667, 229.032098471987, -0.000845237626483903, 1.38125,280.017700195313
0.0700006183333333, 229.040463852655, -0.000871973783541605, 1.39375,279.766174316406
0.070667175, 229.04838138078, -0.000928666435945918, 1.4075,279.645111083984
0.071333965, 229.056662899489, -0.0010758015454696, 1.42125,279.645111083984
0.07200048, 229.064278951268, -0.00105817593076758, 1.43375,285.687408447266
0.072667135, 229.071483346541, -0.000788616970450946, 1.4475,280.391052246094
0.073333895, 229.079258078917, -0.000746248598584475, 1.46,282.347839355469
0.0740005866666667, 229.087345135403, -0.0010841426265214, 1.4725,279.305969238281
0.0746671833333333, 229.094355801491, -0.00100777396245825, 1.48625,279.305969238281
0.0753337633333333, 229.101661600249, -0.0011311037677183, 1.5,279.108489990234
0.0760005583333333, 229.108686921997, -0.00153927676559969, 1.51375,282.933258056641
0.076667115, 229.1160447346, -0.00188067761738654, 1.52625,279.805969238281
0.0773338166666667, 229.122373976788, -0.0015395572515056, 1.53875,338.401641845703
0.0780004683333333, 229.128925404744, -0.00160471097889272, 1.5525,338.401641845703
0.0786672983333333, 229.135644239273, -0.001453779560003, 1.56625,283.031585693359
0.0793338183333333, 229.142322123243, -0.0011641891058377, 1.58,284.920593261719
0.08000044, 229.148620894829, -0.00090305522229693, 1.5925,291.130096435547
0.0806696566666667, 229.155121896668, -0.000671495353316182, 1.605,286.528289794922
0.0813337783333333, 229.161738706921, -0.000361028947735643, 1.61875,286.528289794922
0.0820004433333333, 229.168245940466, -0.000222977381928385, 1.6325,293.794342041016
0.0826672366666667, 229.174940632705, -9.04455388815494E-05, 1.64625,286.678497314453
0.0833337783333333, 229.181384625011, 0.000124739652562038, 1.65875,292.365997314453
0.0840004566666667, 229.188552244137, 0.000214183159943822, 1.67125,284.2001953125
0.08466721, 229.196456412939, 6.75550249322021E-05, 1.68375,284.2001953125
0.0853338183333333, 229.204747257722, -4.8320154810914E-05, 1.69875,278.634613037109
0.08600051, 229.212893011728, -0.000401480415917193, 1.7125,284.688903808594
0.08666721, 229.221480309445, -0.000677844534420385, 1.725,278.183288574219
0.087333825, 229.228986303637, -0.000869069929386799, 1.73875,282.495239257813
0.0880005883333333, 229.236083572039, -0.00101274771258711, 1.7525,282.495239257813
0.0886674733333333, 229.242357226727, -0.000930680834695796, 1.765,277.612091064453
0.0893339416666667, 229.248902717341, -0.000673455754851305, 1.77875,279.711700439453
0.0900004433333333, 229.255148189204, -0.000626986588922434, 1.7925,280.757415771484
0.0906672616666667, 229.262169353305, -0.000494100763652667, 1.805,281.333312988281
0.09133387, 229.268799646206, -0.000755111653328604, 1.81875,281.333312988281
0.09200048, 229.27592016489, -0.00100161827158082, 1.8325,281.272521972656
0.0926672416666667, 229.282532851533, -0.000858516459415117, 1.84625,281.887023925781
0.0933338533333333, 229.289117845332, -0.00052830054583748, 1.85875,273.734588623047
0.0940004316666667, 229.29540515119, -0.00070029240686528, 1.8725,334.491729736328
0.0946672166666667, 229.30152880568, -0.000245687741186357, 1.885,334.491729736328
0.0953338166666667, 229.307993206492, 0.000159744894342687, 1.89875,284.080871582031
0.0960005366666667, 229.314742940805, 8.90939430611976E-05, 1.91375,280.391296386719
0.096667265, 229.321721506248, -0.000100651026242898, 1.92625,279.442596435547
0.0973339233333333, 229.329078194036, -9.16012175310952E-06, 1.94,276.648590087891
0.0980006983333333, 229.337383658622, 6.36177227147733E-05, 1.95375,276.648590087891
0.0986672516666667, 229.345301727724, -0.000142731412581435, 1.96625,273.771087646484
0.099333775, 229.353678840901, 5.78520123097076E-05, 1.98,278.761657714844
0.100000546666667, 229.362582080387, -0.000158845103208667, 1.9925,282.385681152344
0.1006672, 229.371190898578, -1.63087626705199E-05, 2.00625,281.186798095703
0.101333793333333, 229.379343312821, -8.53067969408077E-05, 2.01875,281.186798095703
0.102000481666667, 229.387674147374, 5.38502133429387E-05, 2.0325,279.637145996094
0.102667148333333, 229.396434027386, -4.01335659514E-05, 2.0475,276.834320068359
0.10333382, 229.40447386859, 0.000398936380004965, 2.06,279.774444580078
0.104000543333333, 229.413153446193, 0.000289860358750792, 2.0725,280.089447021484
0.104667155, 229.421280922485, 0.000598351363530921, 2.0875,280.089447021484
0.105333791666667, 229.429978554878, 0.000481238745985084, 2.1,278.642059326172
0.106001106666667, 229.438367176543, 0.000495050052270741, 2.1125,281.627868652344
0.106667173333333, 229.446822382089, 0.000191568795805149, 2.12625,285.295379638672
0.107333991666667, 229.45459256054, 0.000256313043787667, 2.14,279.987396240234
0.108001268333333, 229.463505424714, 4.99759078866843E-05, 2.15375,279.987396240234
0.108668271666667, 229.471824599514, 0.00023418915503513, 2.1675,282.814727783203
0.109333941666667, 229.480382055555, 0.000240559335102233, 2.18,284.081604003906
0.110000516666667, 229.489090219278, 0.00023959938333537, 2.1925,283.599334716797
0.11066712, 229.497637293763, 0.000136250074430524, 2.20625,340.296264648438
0.111333795, 229.505644492479, 0.000385012579346555, 2.22,340.296264648438
0.112001638333333, 229.513663946289, 6.15403270336874E-05, 2.2325,288.224884033203
0.112667131666667, 229.521203955577, 3.60431077243633E-05, 2.24625,289.741119384766
0.113333815, 229.528704118661, 0.000111181833585548, 2.26,288.923095703125
0.11400057, 229.536625284011, 0.000182531749787734, 2.2725,292.552154541016
0.114667268333333, 229.54473717416, -8.07545256117727E-05, 2.28625,292.552154541016
0.115333993333333, 229.553042966145, 4.67968311746357E-06, 2.29875,292.117462158203
0.116000855, 229.561718748165, -3.3619393141584E-05, 2.3125,290.521545410156
0.116668086666667, 229.570242098873, -0.000169523066842058, 2.325,282.452453613281
0.117333816666667, 229.578840042221, -0.000288192606194779, 2.33875,287.915222167969
0.118000546666667, 229.587154326653, -0.000101071005139572, 2.35125,287.915222167969
0.118667226666667, 229.596122773317, 1.25911885279408E-07, 2.365,284.973480224609
0.119333753333333, 229.604901999163, -0.000149088093286401, 2.37875,282.510284423828
0.120000441666667, 229.614255052149, 0.000222503242053971, 2.39125,282.437469482422
0.120667315, 229.623849752475, 0.000229345898350609, 2.40375,281.497467041016
0.121333786666667, 229.634206052643, 2.06531443624912E-06, 2.41875,281.497467041016
0.12200058, 229.644093707156, 1.31062598177365E-05, 2.43125,275.816345214844
0.122667498333333, 229.654416023887, 0.000114868648427633, 2.44375,282.496795654297
0.1233339, 229.66475188113, 5.96211871604411E-06, 2.4575,284.130859375
0.124000615, 229.675528168325, -9.46273287767092E-05, 2.47,277.478515625
0.124667105, 229.685770519535, 0.000263148200547304, 2.48375,277.478515625
0.125333805, 229.69678807894, 9.59943605282142E-06, 2.4975,281.083892822266
0.126000666666667, 229.707510395541, -0.000115011304881401, 2.51125,279.753204345703
0.12666716, 229.718722477298, -0.00036535773026483, 2.52375,287.231140136719
0.12733398, 229.730227347006, -0.000352078897227346, 2.5375,317.405090332031
0.12800045, 229.741686227234, -0.000616859097587547, 2.55,317.405090332031
0.128667196666667, 229.752888659673, -0.000406190179266062, 2.56375,265.378631591797
0.129334068333333, 229.764298165566, -0.000620508414277042, 2.57625,264.815338134766
0.130000566666667, 229.775346350886, -0.000639531958735438, 2.59,263.540344238281
0.130667168333333, 229.786220549005, -0.000750593880197082, 2.60375,262.983123779297
0.131333888333333, 229.796694694629, -0.000568450529043943, 2.61625,262.983123779297
0.132000448333333, 229.807206260622, -0.000377958597259501, 2.63,256.584991455078
0.13266746, 229.817882040368, -0.000376691160926207, 2.64375,266.368530273438
0.133333851666667, 229.828678065053, -0.000440827939376626, 2.6575,272.103973388672
0.134000458333333, 229.838872876476, -0.000131858458584334, 2.67,267.68994140625
0.134667251666667, 229.849483713813, -0.00022524076810795, 2.68375,267.68994140625
0.135333788333333, 229.859960254609, -0.000249305559357113, 2.6975,265.679351806641
0.136000593333333, 229.870597332269, 8.07048645560226E-05, 2.71125,264.860748291016
0.136667253333333, 229.880715243621, 0.000253491685666327, 2.72375,259.2509765625
0.13733382, 229.891190108811, 0.000264189148316961, 2.7375,260.534973144531
0.138000528333333, 229.902302789413, -8.30569098683307E-05, 2.75125,260.534973144531
0.138667208333333, 229.913008001233, -0.0002764166976219, 2.765,261.404846191406
0.13933395, 229.92366024742, -0.00021403033124764, 2.7775,272.986145019531
0.14000042, 229.934614903861, -0.000476166164481069, 2.79,262.970336914063
0.140667121666667, 229.945337026751, -0.000686335607848744, 2.805,269.027404785156
0.141333781666667, 229.955375894945, -0.000691280859435195, 2.8175,269.027404785156
0.14200059, 229.965841513601, -0.000776943056694981, 2.83125,263.63916015625
0.142667155, 229.976462422233, -0.000992674220748878, 2.84375,263.344970703125
0.143333878333333, 229.987118141817, -0.00103721748338265, 2.8575,269.328735351563
0.14400066, 229.997780006659, -0.000919311405699963, 2.87125,319.960510253906
0.144667115, 230.008966341316, -0.00102753396979865, 2.88375,319.960510253906
0.145333851666667, 230.019694933141, -0.00124881635500418, 2.89875,263.060241699219
0.146000553333333, 230.030291818709, -0.00150817582763583, 2.91125,264.712615966797
0.146667798333333, 230.040836342253, -0.0011444050994518, 2.92375,260.886566162109
0.147333828333333, 230.051657155841, -0.00141721139667535, 2.9375,255.812240600586
0.14800043, 230.062495908739, -0.00116333714847909, 2.95,255.812240600586
0.148667176666667, 230.072991356689, -0.000896490051929878, 2.965,252.368698120117
0.149333791666667, 230.083622979299, -0.000661007879975734, 2.9775,255.275543212891
0.150001126666667, 230.094267929784, -0.000961715775752112, 2.99,253.077682495117
0.150667105, 230.104537957742, -0.000716946070277684, 3.00375,253.934204101563
0.151333771666667, 230.114975004656, -0.000750872866221104, 3.0175,253.934204101563
0.15200069, 230.125558893816, -0.000680661392853531, 3.03,253.831741333008
0.152667175, 230.135834301499, -0.000415519710627129, 3.045,248.033111572266
0.15333415, 230.146365046999, -0.000413067333823975, 3.05625,247.678787231445
0.154000555, 230.156779279271, -0.000717655534669204, 3.07,247.145172119141
0.154667116666667, 230.167267329197, -0.000892159769497542, 3.08375,247.145172119141
0.155333806666667, 230.177643206138, -0.00109474859367716, 3.09625,237.2568359375
0.156000541666667, 230.187818393348, -0.0011565094915115, 3.11,245.810150146484
0.156667291666667, 230.198010118318, -0.00105416663205127, 3.1225,240.938323974609
0.157333815, 230.208382306273, -0.000828670958474346, 3.13625,249.512481689453
0.158000475, 230.217791650153, -0.000192546910321565, 3.15,249.512481689453
0.158667265, 230.227585459112, 0.000190611844057125, 3.1625,242.801116943359
0.159333708333333, 230.237340122629, 0.000173668695086113, 3.175,243.295455932617
0.160000775, 230.246910981188, 0.000420545794687184, 3.18875,291.997161865234
0.160667313333333, 230.256252981566, 0.000422006721311006, 3.2025,249.69612121582
