Time (min), Depth (µm), Load (N), Position (µm), Acoustic (aJ)
1.06883333333333E-05, 241.277653808534, -0.000263596467443088, 0,364.363403320313
0.000664926666666667, 241.27760834332, -0.000267056793636518, 0.00375000000000028,365.711517333984
0.00133059166666667, 241.277621203757, -0.000165943872420758, 0.0150000000000011,362.778167724609
0.001996755, 241.279707088212, -0.000339201669878702, 0.0300000000000005,362.778167724609
0.0026648, 241.283751738848, -0.000818169611805544, 0.0437500000000004,383.760711669922
0.00333007833333333, 241.290368492463, -0.000835864223008859, 0.0575000000000003,371.696594238281
0.003998645, 241.298245189909, -0.000654500832715447, 0.0712500000000001,376.195037841797
0.00466481333333333, 241.30767572905, -0.000851413941996703, 0.085,374.682495117188
0.00533007, 241.317480698768, -0.000731271476667442, 0.0987499999999999,374.682495117188
0.00599706166666667, 241.327204390082, -0.000565166819942626, 0.1125,447.103729248047
0.00666334333333333, 241.336619988378, -0.000578318159342071, 0.126250000000001,380.65478515625
0.00733019166666667, 241.34612401508, -0.000604754331455359, 0.13875,378.907348632813
0.00799680333333333, 241.355377231394, -0.000257242786608183, 0.1525,385.578002929688
0.00866337, 241.364962501122, -0.000303266474840508, 0.16625,385.578002929688
0.00933017333333333, 241.37435202553, -0.000144811433826299, 0.17875,385.863616943359
0.00999691333333333, 241.383356674754, 4.85858520160976E-05, 0.19125,388.288513183594
0.0106634616666667, 241.391173912304, 0.00014297011114736, 0.205,386.588409423828
0.0113300933333333, 241.399355913503, 8.18796796913099E-05, 0.21875,389.442932128906
0.0119971933333333, 241.407228572106, 0.00045938971772588, 0.231250000000001,389.442932128906
0.0126634066666667, 241.415219195741, 0.000349973213610914, 0.245,386.777008056641
0.0133301033333333, 241.423809829076, 8.9508296460271E-05, 0.257500000000001,394.912414550781
0.0139973133333333, 241.434304849277, -2.31750435363436E-05, 0.2725,394.362487792969
0.0146632983333333, 241.444054478388, -0.000126764340366965, 0.285000000000001,392.510070800781
0.01533005, 241.453824993976, -0.000183080511661044, 0.29875,392.510070800781
0.0159970616666667, 241.463585963379, -0.000202366542975027, 0.311250000000001,394.52783203125
0.01666341, 241.473369072706, -2.99742020677949E-05, 0.325000000000001,391.505798339844
0.01733011, 241.482880898301, -0.000151640590888324, 0.338750000000001,395.032806396484
0.0179970133333333, 241.493230530257, -0.00041713925516521, 0.3525,397.954284667969
0.01866338, 241.503585990523, -0.000676354735032889, 0.3675,397.954284667969
0.0193305933333333, 241.514295777872, -0.000960417966794504, 0.377500000000001,398.752105712891
0.0199967633333333, 241.52468283288, -0.00113599014798925, 0.392500000000001,397.080780029297
0.0206634016666667, 241.535279463073, -0.000941755904181055, 0.405000000000001,396.935424804688
0.0213307183333333, 241.545357792588, -0.000621476991454075, 0.418750000000001,391.672058105469
0.0219970333333333, 241.555541698612, -0.000312485011816988, 0.432500000000001,391.672058105469
0.02266331, 241.565418366379, 0.000170424732121747, 0.445000000000001,488.503143310547
0.0233300316666667, 241.57548281132, 0.000581699574200423, 0.458750000000001,398.894775390625
0.023997045, 241.585560130782, 0.000616692816543338, 0.476250000000001,397.990783691406
0.02483008, 241.595594652788, 0.000262584603044167, 0.488750000000001,395.325073242188
0.0254968216666667, 241.605733281454, 0.000140472736612108, 0.502500000000001,398.16259765625
0.0261633916666667, 241.61610336517, -0.000384127413256556, 0.516250000000001,398.16259765625
0.02683038, 241.625996716322, -0.000630793023516767, 0.528750000000001,400.720520019531
0.0274967583333333, 241.636192843393, -0.00095666365539678, 0.542500000000001,396.631408691406
0.0281635283333333, 241.64635555675, -0.000970656452535232, 0.556250000000001,404.973175048828
0.0288315333333333, 241.656386040613, -0.00125781852868784, 0.570000000000001,398.887268066406
0.0294973633333333, 241.666200969776, -0.000800563496120768, 0.582500000000001,398.887268066406
0.0301633383333333, 241.676146019615, -0.000894539775814344, 0.596250000000001,404.88720703125
0.03083011, 241.685495541024, -0.000870267994955023, 0.60875,397.786895751953
0.0314968, 241.695181989422, -0.000952762351386284, 0.6225,415.026062011719
0.0321634616666667, 241.704713708021, -0.000793795836108056, 0.636250000000001,319.025970458984
0.0328304433333333, 241.714929167883, -0.00118635611821917, 0.650000000000001,319.025970458984
0.0334967733333333, 241.724926423163, -0.00126311476269092, 0.6625,401.860321044922
0.0341633733333333, 241.735075653256, -0.000990953433067043, 0.67625,401.251129150391
0.03483031, 241.74520903925, -0.000731391470598448, 0.68875,400.189880371094
0.03549681, 241.755952866725, -0.000880294991333638, 0.7025,401.325897216797
0.0361634033333333, 241.766013757683, -0.000531423014797658, 0.71625,401.325897216797
0.0368300666666667, 241.776405896963, -0.00038270698463413, 0.72875,406.395843505859
0.0374968316666667, 241.787150544478, -0.000710194535275904, 0.742500000000001,402.316040039063
0.0381640933333333, 241.797813212902, -0.000752061932306671, 0.756250000000001,408.783325195313
0.0388307833333333, 241.808000779003, -0.00061417235831371, 0.76875,479.328002929688
0.039498695, 241.818537310026, -0.000734385320132433, 0.781250000000001,479.328002929688
0.0401639466666667, 241.829352585702, -0.000997715093382142, 0.795000000000001,404.618865966797
0.0408318166666667, 241.839953054907, -0.00099944900631112, 0.80875,401.194488525391
0.0414967083333333, 241.850441611654, -0.00113816803862661, 0.8225,402.202789306641
0.042164045, 241.860959331247, -0.00143136881148943, 0.835000000000001,403.906677246094
0.0428317666666667, 241.871130619937, -0.00141922392151335, 0.848750000000001,403.906677246094
0.043498205, 241.881039445685, -0.00141020937423446, 0.861250000000001,398.470611572266
0.0441651233333333, 241.891026796015, -0.00130709255367588, 0.875000000000001,406.837585449219
0.04483064, 241.900786022514, -0.000844547286824597, 0.8875,404.650054931641
0.0454973283333333, 241.910825374226, -0.000813965322980573, 0.901250000000001,400.159545898438
0.0461638833333333, 241.920908709591, -0.000727812650313398, 0.913750000000001,400.159545898438
0.0468307116666667, 241.931090917215, -0.000471919503594049, 0.926250000000001,402.881927490234
0.0474967983333333, 241.941202501573, -0.000404358397135878, 0.940000000000001,404.71044921875
0.0481640633333333, 241.952138833777, -0.000637013211101036, 0.953750000000001,396.316070556641
0.0488301866666667, 241.962436856677, -0.000521033036649692, 0.9675,405.992767333984
0.0494969116666667, 241.972763285285, -0.000382270506590273, 0.980000000000001,405.992767333984
0.050163335, 241.982955983429, -8.81052822298815E-05, 0.993750000000001,400.578796386719
0.0508300716666667, 241.99302444216, -0.000211519083277763, 1.00625,405.580841064453
0.0514982116666667, 242.002860252426, -0.000222858513700515, 1.02,398.604400634766
0.0521634433333333, 242.012747757107, 0.000161518179463653, 1.0325,399.684631347656
0.052830295, 242.023567479164, -0.000104635951904981, 1.04625,399.684631347656
0.053498265, 242.034631414248, -0.000496546766621959, 1.06,403.377136230469
0.0541634366666667, 242.045637295653, -0.000439686122684481, 1.0725,396.407897949219
0.0548307816666667, 242.055861153941, -0.000334056928346618, 1.0875,403.246948242188
0.0554981133333333, 242.066757215528, -0.000928427573744534, 1.1,476.094635009766
0.0561640316666667, 242.076444530681, -0.000813168863058681, 1.1125,476.094635009766
0.056830135, 242.086120255005, -0.00097725612112105, 1.12625,401.920806884766
0.0574968016666667, 242.096012291151, -0.00132766552038291, 1.14,398.675140380859
0.0581634316666667, 242.106810616437, -0.00181738792215147, 1.1525,404.747039794922
0.0588302116666667, 242.116737486672, -0.00165030081475124, 1.1675,405.87890625
0.0594967933333333, 242.126630643088, -0.00178753192180364, 1.18,405.87890625
0.0601633466666667, 242.135942236602, -0.00170714195969273, 1.1925,394.329010009766
0.0608300466666667, 242.144644459343, -0.0015150481083693, 1.20625,405.766082763672
0.0614967566666667, 242.153301670487, -0.00117813653108655, 1.22125,402.373168945313
0.06216368, 242.162344919651, -0.00133200030263096, 1.23375,399.332733154297
0.0628302533333333, 242.171443305841, -0.00163923287064547, 1.2475,399.332733154297
0.0634972683333333, 242.180906392979, -0.00187297962981, 1.26,395.738586425781
0.0641639216666667, 242.190505772183, -0.00220289105873377, 1.2725,397.394989013672
0.06483012, 242.199245397612, -0.00242883520979229, 1.28625,404.332611083984
0.0654976183333333, 242.208047232507, -0.00211164914173743, 1.30125,400.650726318359
0.0661647966666667, 242.216533169534, -0.00195785736650061, 1.31375,400.650726318359
0.0668302383333333, 242.225083049569, -0.0017035721389966, 1.3275,403.666778564453
0.06749671, 242.234033747792, -0.00179302164601224, 1.34125,404.070617675781
0.068163695, 242.242798726522, -0.00172184272123453, 1.35375,394.122467041016
0.068830335, 242.251951262585, -0.00203010123775341, 1.3675,398.976226806641
0.069496855, 242.261147393888, -0.00182756341104601, 1.38125,398.976226806641
0.0701639566666667, 242.271317047602, -0.00171812140821619, 1.39375,406.826904296875
0.0708301733333333, 242.28078005672, -0.00120674309419392, 1.4075,407.82080078125
0.0714976416666667, 242.291456812706, -0.00102684963007075, 1.42125,483.270355224609
0.0721647, 242.301636513398, -0.000972411364427109, 1.435,398.177764892578
0.0728300816666667, 242.312499155844, -0.0010686870285922, 1.4475,398.177764892578
0.0734968116666667, 242.322774276373, -0.00144683603452883, 1.46125,401.647033691406
0.074163975, 242.333729115383, -0.00170825040399677, 1.47375,397.733276367188
0.0748320116666667, 242.343572605089, -0.00205292409138413, 1.48875,403.983428955078
0.0754984983333333, 242.35363457826, -0.00192678342732479, 1.50125,403.173004150391
0.0761642466666667, 242.363357995432, -0.00195823234768644, 1.51375,403.173004150391
0.07683011, 242.372574040563, -0.00158881740303777, 1.5275,403.994232177734
0.0774972533333333, 242.381944804181, -0.00163535856531674, 1.54,401.826019287109
0.0781634516666667, 242.391955793853, -0.00154201825371893, 1.55375,407.57373046875
0.0788311716666667, 242.402001750462, -0.00166179023767808, 1.5675,404.055389404297
0.0794969583333333, 242.412050155731, -0.00187314912131008, 1.58125,404.055389404297
0.0801634266666667, 242.421993240034, -0.00195416005223021, 1.59375,402.898376464844
0.0808300466666667, 242.431996335914, -0.00180433407783824, 1.6075,399.464141845703
0.0814971466666667, 242.441738247808, -0.00167867638947926, 1.62125,409.70703125
0.0821642216666667, 242.451729498899, -0.00187115572145933, 1.63375,406.947509765625
0.082830275, 242.461987015712, -0.00179586850303972, 1.64625,406.947509765625
0.0834971566666667, 242.472234673762, -0.00199497750200866, 1.66,402.248687744141
0.084164045, 242.482483836459, -0.00187477203981196, 1.67375,402.756958007813
0.0848300533333333, 242.493193575425, -0.0018906202437773, 1.68625,401.28271484375
0.085497665, 242.50346005835, -0.00184373409877931, 1.7,398.271331787109
0.0861634116666667, 242.51348626424, -0.00159732197580701, 1.71375,398.271331787109
0.0868300483333333, 242.523409803033, -0.00149079732645162, 1.72625,394.014801025391
0.0874969716666667, 242.533617378636, -0.00176482906212518, 1.73875,408.203887939453
0.0881639083333333, 242.543433528588, -0.00184704143268361, 1.7525,484.239990234375
0.0888315816666667, 242.553714170232, -0.00162315067849447, 1.76625,401.485656738281
0.0894975133333333, 242.56384388811, -0.00152311170336399, 1.77875,401.485656738281
0.0901634316666667, 242.574437157299, -0.00146118731376969, 1.7925,396.888458251953
0.0908316433333333, 242.584280739309, -0.000979251020959956, 1.805,404.058502197266
0.0914967283333333, 242.594315095418, -0.00102972048593119, 1.81875,400.996887207031
0.0921633983333333, 242.604190700326, -0.00134852797258478, 1.8325,408.881225585938
0.092830115, 242.614519173055, -0.00167768043956922, 1.845,408.881225585938
0.0934969466666667, 242.623997519815, -0.00169487107608803, 1.8575,398.280029296875
0.094163735, 242.634476211432, -0.0021943774863756, 1.87125,397.6845703125
0.0948304116666667, 242.644606941139, -0.00207199413358405, 1.88375,402.959564208984
0.0954968366666667, 242.654817175617, -0.00193180067532511, 1.8975,398.591400146484
0.0961635633333333, 242.664809570909, -0.00182625247690502, 1.91125,398.591400146484
0.0968308833333333, 242.675265184566, -0.00161800593689863, 1.925,401.169342041016
0.09749738, 242.684377519156, -0.00133576811343333, 1.9375,401.089050292969
0.09816398, 242.694124380404, -0.00116788304612304, 1.95125,403.678619384766
0.0988300466666667, 242.703146391684, -0.00106310430904935, 1.965,397.483520507813
0.0994968766666667, 242.712416062884, -0.00109935298830908, 1.97875,397.483520507813
0.100163993333333, 242.721494255566, -0.00125470318523468, 1.99125,396.954406738281
0.10083045, 242.730930970609, -0.00123150085066617, 2.005,398.618560791016
0.101496713333333, 242.739675940572, -0.00141658705398734, 2.01875,394.311614990234
0.102163386666667, 242.748637036144, -0.00139499413857983, 2.03125,398.38720703125
0.102830235, 242.757149415964, -0.00146449914742594, 2.04625,398.38720703125
0.103496926666667, 242.765601907306, -0.00149054083937867, 2.0575,399.075561523438
0.10416346, 242.774046275687, -0.0016263575174425, 2.07125,396.710571289063
0.10483057, 242.78273427629, -0.00167240070473457, 2.085,476.285308837891
0.105497785, 242.791237804343, -0.00172602751112728, 2.09875,395.100402832031
0.106163573333333, 242.799261201292, -0.00152304270684144, 2.11125,395.100402832031
0.106830065, 242.807789345257, -0.00184273964881493, 2.125,394.636291503906
0.107496866666667, 242.815444758325, -0.00175161172605199, 2.13875,399.893188476563
0.108163338333333, 242.823148798341, -0.0016758580310792, 2.1525,392.937072753906
0.108830035, 242.830962314629, -0.00166327516313486, 2.165,393.617004394531
0.109496843333333, 242.839649017881, -0.00192562848538551, 2.17875,393.617004394531
0.110163481666667, 242.847850064505, -0.00188113922005151, 2.1925,397.928100585938
0.110830236666667, 242.856191023781, -0.00207585793950572, 2.20625,400.275054931641
0.111497393333333, 242.865049798143, -0.0021584332918335, 2.21875,401.770874023438
0.112163858333333, 242.87386344031, -0.00230860124903192, 2.2325,401.715850830078
0.112830063333333, 242.882050300701, -0.0018620676779697, 2.24625,401.715850830078
0.113497393333333, 242.890752517928, -0.00157394115025577, 2.25875,398.33447265625
0.114164846666667, 242.899957934013, -0.00130196581132165, 2.2725,396.209136962891
0.114830258333333, 242.908646521134, -0.00130116935131475, 2.28625,390.914306640625
0.115496731666667, 242.917949533954, -0.00131501965565614, 2.29875,397.814422607422
0.116163681666667, 242.927281043411, -0.00165753345152024, 2.3125,397.814422607422
0.116830116666667, 242.936542111904, -0.0020171898863435, 2.32625,387.10986328125
0.117497601666667, 242.945896063413, -0.00205374455024526, 2.33875,394.836242675781
0.118163676666667, 242.955341085313, -0.0017619987043724, 2.35125,394.051239013672
0.11883027, 242.964500506809, -0.00147250274542324, 2.36625,397.15966796875
0.119496816666667, 242.973778739919, -0.00125840499936331, 2.3775,397.15966796875
0.120164006666667, 242.983032081669, -0.000980410462714962, 2.39125,391.089630126953
0.12083029, 242.992446047133, -0.00120716907287323, 2.405,396.432922363281
0.121497496666667, 243.001552958695, -0.00139099083968866, 2.4175,466.281097412109
0.122164083333333, 243.011025106056, -0.0012318278342711, 2.43125,392.878723144531
0.122830886666667, 243.020256250992, -0.00149090982082438, 2.44375,392.878723144531
0.123498573333333, 243.029235749661, -0.00128850698733453, 2.4575,390.453796386719
0.124163361666667, 243.037729353861, -0.00111658412280802, 2.47125,392.109466552734
0.124830048333333, 243.046894081027, -0.00111218334388622, 2.48375,391.394622802734
0.125497075, 243.055600444569, -0.00111209334842203, 2.4975,391.713348388672
0.12616391, 243.064692813502, -0.00081596622260211, 2.51,391.713348388672
0.12683011, 243.073848756674, -0.00122129236347727, 2.52375,388.641479492188
0.127496941666667, 243.083467398295, -0.00108331579389017, 2.53625,391.79248046875
0.128163428333333, 243.092023265162, -0.000920806456555081, 2.55125,391.489685058594
0.128830635, 243.101595594315, -0.00109034594071596, 2.5625,386.726501464844
0.129496806666667, 243.110664458498, -0.000958666054857703, 2.57625,386.726501464844
0.13016438, 243.12019946366, -0.000761794943480993, 2.59,393.890350341797
0.130830625, 243.130263281369, -0.000828972069249422, 2.6025,395.28173828125
0.131496846666667, 243.140448094146, -0.000718229631728181, 2.61625,393.910034179688
0.132163446666667, 243.150403472626, -0.000890269490379393, 2.62875,388.600372314453
0.132830048333333, 243.160801587781, -0.0011368436052085, 2.6425,388.600372314453
0.133498213333333, 243.171170307466, -0.00133788600705205, 2.655,396.260284423828
0.134166476666667, 243.18079751173, -0.00156756647043671, 2.66875,393.125030517578
0.13483028, 243.191264577474, -0.00210067719285724, 2.68125,400.279541015625
0.135498315, 243.201067247841, -0.00220410599773421, 2.695,400.258148193359
0.136163375, 243.21086909957, -0.00230532541362511, 2.70875,400.258148193359
0.136831585, 243.220600733665, -0.00196049723400295, 2.72125,401.529724121094
0.137498641666667, 243.230914949752, -0.00193974577633444, 2.735,399.821655273438
0.13816484, 243.240595013979, -0.00151540659047171, 2.7475,485.085723876953
0.138830618333333, 243.250501821061, -0.00109291231190129, 2.76125,391.786193847656
0.13949743, 243.260691307329, -0.00070088000326514, 2.77375,391.786193847656
0.140163335, 243.271113682404, -0.000956336671919378, 2.7875,394.616668701172
0.140831628333333, 243.281029676843, -0.00072425632906443, 2.80125,398.237487792969
0.141496758333333, 243.291501771645, -0.00045185051176282, 2.815,398.038879394531
0.142163688333333, 243.3026304948, -0.00072418733254188, 2.82875,388.995269775391
0.14283012, 243.313279705175, -0.000605621287994237, 2.84125,388.995269775391
0.14349682, 243.323576286455, -0.000381870026817112, 2.855,390.658294677734
0.144164408333333, 243.334600427669, -0.000452727967708759, 2.86875,391.292144775391
0.14483007, 243.34529751927, -0.000556582751180011, 2.8825,390.432525634766
0.145496786666667, 243.355594399661, -0.000447601225227006, 2.89625,387.678253173828
0.146163373333333, 243.366411958419, -0.000465753313479584, 2.90875,387.678253173828
0.146830136666667, 243.377209739249, -0.000423281446765526, 2.9225,387.192810058594
0.147496928333333, 243.387564454513, -0.000322005033768556, 2.935,393.689331054688
0.148164225, 243.39835171491, -0.000710239533135526, 2.94875,383.303466796875
0.148830065, 243.408574820086, -0.000415477338735113, 2.9625,385.828094482422
0.149496758333333, 243.418982465784, -0.00067201545313915, 2.975,385.828094482422
0.150163375, 243.429138892313, -0.000758370615600765, 2.98875,387.894866943359
0.150830033333333, 243.439685054749, -0.000680694017202932, 3.0025,386.72802734375
0.151496985, 243.450097193553, -0.000491348027853866, 3.015,386.904418945313
0.152163976666667, 243.461122187847, -0.000938187583558115, 3.03,384.756591796875
0.152830181666667, 243.471659647879, -0.000865486235234798, 3.04375,384.756591796875
0.153496945, 243.482610887265, -0.000999254016202459, 3.05625,392.134918212891
0.154163933333333, 243.492902229261, -0.00111842003059642, 3.07,470.999633789063
0.154830115, 243.50336419414, -0.00103437175227084, 3.0825,391.739105224609
0.155496998333333, 243.513291876466, -0.00070102249608345, 3.09625,390.772827148438
