Time (min), Depth (µm), Load (N), Position (µm), Acoustic (aJ)
1.08466666666667E-05, 241.361207309749, 0.000608177049676169, 0,843.323059082031
0.000666413333333333, 241.361593876725, 0.000439708511666737, 0.0049999999999998,847.99072265625
0.00133221, 241.362368778857, 0.000196761214639824, 0.0175000000000002,847.99072265625
0.00199860166666667, 241.36454685998, 0.000346131211949444, 0.0325000000000013,851.96630859375
0.002665595, 241.3676064237, 0.000140379046650748, 0.0462500000000012,851.365661621094
0.00333189166666667, 241.373210139211, -0.000281500262744305, 0.060000000000001,856.945251464844
0.00416531, 241.378968309226, -0.000113550698684671, 0.0762499999999999,871.153259277344
0.00483191333333333, 241.386497163557, -0.000207682970494932, 0.0912500000000011,884.294067382813
0.00549858833333333, 241.394091964319, -0.000494821047835831, 0.10625,884.294067382813
0.00616532, 241.402249720919, -0.000358723883866083, 0.12,892.450988769531
0.00683192166666667, 241.4104849369, -0.000333585146595408, 0.131250000000001,897.047668457031
0.00749882166666667, 241.419405895005, -0.000566832430827379, 0.146250000000001,892.002075195313
0.00816684, 241.428065271467, -0.000442316185130562, 0.157500000000001,898.181579589844
0.00883198333333333, 241.436579525911, -0.000336439503202398, 0.171250000000001,898.181579589844
0.00949859333333333, 241.445746939423, -0.000715900943246927, 0.185000000000001,896.120056152344
0.0101653583333333, 241.453357960011, -0.000906280380701124, 0.19625,1079.75366210938
0.010832005, 241.460110162915, -0.00073982024180772, 0.211250000000001,906.275146484375
0.01150076, 241.466799686863, -0.000890171189825848, 0.22375,927.978149414063
0.012165755, 241.474081347113, -0.00071061070896271, 0.2375,927.978149414063
0.0128319266666667, 241.481164526615, -0.000461104241393884, 0.25125,940.526611328125
0.0134992116666667, 241.48995480623, -0.000503769598334708, 0.26375,937.0146484375
0.0141653316666667, 241.500214927354, -0.000482476667871609, 0.2775,946.500366210938
0.0148327566666667, 241.510462620097, -0.000128099967861747, 0.29125,941.241943359375
0.01549949, 241.520561592767, -0.000270615309458248, 0.305000000000001,941.241943359375
0.016165375, 241.530685712923, -0.000496755950677354, 0.3175,947.319213867188
0.0168327233333333, 241.540195375831, -0.000175808071538996, 0.33125,952.7392578125
0.0174985783333333, 241.550028442034, -2.0864354211691E-05, 0.345,952.024597167969
0.0181667916666667, 241.560292166445, 2.62197808287869E-05, 0.3575,946.10205078125
0.01883214, 241.570300541033, 5.37808964783134E-05, 0.37125,946.10205078125
0.0194987083333333, 241.580970003268, 0.000304295313416162, 0.386250000000001,947.747192382813
0.0201652566666667, 241.591378689552, 0.00013551779093715, 0.3975,948.65625
0.0208320866666667, 241.601998154978, -0.000181017309862929, 0.41125,956.773315429688
0.0214991916666667, 241.612074159051, -0.000382256201867074, 0.425,944.270263671875
0.0221652666666667, 241.621876071797, -0.000381992215129592, 0.43875,944.270263671875
0.022832235, 241.631555352124, -0.00029993883657916, 0.45125,952.335632324219
0.0234987483333333, 241.642497458007, -0.000336345007943739, 0.465,942.565246582031
0.0241659116666667, 241.652562033623, -0.000117495500502862, 0.4775,942.356323242188
0.0248319033333333, 241.66306695384, 2.29484451314209E-05, 0.49125,940.814514160156
0.02549921, 241.674389974222, -0.00022591605468654, 0.505,940.814514160156
0.0261661733333333, 241.685879658123, -0.000413589628028417, 0.51875,944.523376464844
0.0268319, 241.696621814109, -0.000625438987046552, 0.53125,1141.70141601563
0.0274988433333333, 241.707450913486, -0.000673600067999856, 0.545,945.876831054688
0.0281660516666667, 241.718552219296, -0.000562949125867213, 0.55875,948.783630371094
0.0288336533333333, 241.729004988085, -0.000305595052481534, 0.5725,948.783630371094
0.0294985633333333, 241.739899978521, -0.000350133815342093, 0.585,946.497863769531
0.0301659616666667, 241.750726766023, -0.000307901936596318, 0.59875,950.17529296875
0.0308331633333333, 241.76202366088, -0.000618489836074775, 0.611250000000001,957.815124511719
0.03150014, 241.772670533004, -0.000733382565163724, 0.625000000000001,953.964660644531
0.032165205, 241.783623573979, -0.000519602803141039, 0.63875,953.964660644531
0.0328321616666667, 241.79415730811, -0.000575473496823588, 0.6525,947.976623535156
0.03349863, 241.805168872067, -0.000530529754310387, 0.66625,948.740966796875
0.03416661, 241.815428615217, -0.000200892811616171, 0.678750000000001,951.258850097656
0.0348320983333333, 241.826324103235, -0.000330228315207057, 0.691250000000001,957.616271972656
0.0354985816666667, 241.837396336158, -0.00033834590743775, 0.705000000000001,957.616271972656
0.036165915, 241.848498412121, -0.000374666583090089, 0.718750000000001,947.023864746094
0.0368319483333333, 241.859439051216, -0.000208486930102603, 0.731250000000001,942.788269042969
0.0374989366666667, 241.870320690527, -7.128582158077E-05, 0.745000000000001,943.5439453125
0.0381658533333333, 241.881289929745, 0.000169087604723816, 0.758750000000001,938.562805175781
0.0388319566666667, 241.892400171967, -5.67680507736539E-05, 0.77125,938.562805175781
0.0394985716666667, 241.902956567543, 0.000211778460422004, 0.785000000000001,941.384338378906
0.0401652533333333, 241.9139561688, 0.000150293548762881, 0.7975,935.528198242188
0.0408339233333333, 241.92524452532, -0.000140799829952049, 0.81125,932.701843261719
0.0415002, 241.93623717939, 0.000108766634592908, 0.823750000000001,933.485107421875
0.0421658316666667, 241.946911258025, 0.000278873090348255, 0.837500000000001,933.485107421875
0.0428334533333333, 241.958059024855, 0.000196513727198303, 0.85125,939.588134765625
0.0434987183333333, 241.968645961133, 0.000483959289063125, 0.863750000000001,1116.87768554688
0.0441659666666667, 241.979715677912, 0.000610731421423761, 0.87625,936.109313964844
0.0448335466666667, 241.990672888934, 0.000264368818839514, 0.89,931.826416015625
0.0454985633333333, 242.001588409998, 0.000281994433541532, 0.903750000000001,931.826416015625
0.0461652433333333, 242.011931125885, 0.000337677636609912, 0.917500000000001,937.519775390625
0.04683219, 242.02319182553, 0.000317508149694886, 0.93,937.948181152344
0.0474988683333333, 242.033834228992, 0.000283291868341637, 0.942500000000001,940.704223632813
0.0481654566666667, 242.044610691966, 0.000260346020888591, 0.95625,941.914672851563
0.04883257, 242.055173670197, -0.000137120514795743, 0.97,941.914672851563
0.04949859, 242.06635461538, -0.000100379860204221, 0.982500000000001,950.107543945313
0.0501652166666667, 242.076981790834, -0.00016178827567627, 0.996250000000001,945.421813964844
0.0508321916666667, 242.088132513006, -0.000244387626815759, 1.00875,959.171203613281
0.05149954, 242.098886507135, -0.000328041424980771, 1.02125,952.452697753906
0.0521653083333333, 242.109947173619, -0.000117383006130109, 1.03375,952.452697753906
0.0528319583333333, 242.12227297679, -0.000347756434759101, 1.04875,947.497497558594
0.05349861, 242.134447289995, -0.000567975373413948, 1.0625,946.583618164063
0.0541652516666667, 242.146797217214, -0.000764540500148632, 1.075,937.146423339844
0.0548326566666667, 242.158923177817, -0.000666268436241486, 1.08875,941.685974121094
0.0554986583333333, 242.171027400153, -0.000627907863060651, 1.1025,941.685974121094
0.0561652483333333, 242.181099567766, -0.000580483245138125, 1.11625,931.237976074219
0.0568321333333333, 242.191090263195, -0.000266705005880078, 1.12875,941.500244140625
0.057498575, 242.201250817627, -0.000285427065512165, 1.1425,935.816467285156
0.05816536, 242.211556672102, -0.000334503100478981, 1.155,934.453186035156
0.058831965, 242.222076319616, -0.000504549559215689, 1.16875,934.453186035156
0.0594985983333333, 242.23291480308, -0.000281831746079933, 1.1825,1124.72717285156
0.0601652566666667, 242.243155866501, -0.000226471026800762, 1.195,935.570678710938
0.0608319066666667, 242.253810343372, -0.000137843478464384, 1.20875,933.549072265625
0.06149887, 242.263698038049, 3.68227482207607E-05, 1.2225,933.115539550781
0.062165585, 242.273797394467, 0.000114166363358562, 1.23625,933.115539550781
0.0628319683333333, 242.283707057561, 2.18415007092756E-05, 1.24875,929.202819824219
0.0634993616666667, 242.294332693182, -0.00029786744065945, 1.2625,932.753479003906
0.0641658566666667, 242.304160868105, -0.000444483576297097, 1.27625,929.507751464844
0.0648318866666667, 242.314595739652, -0.000214878109132605, 1.28875,935.317199707031
0.065498775, 242.324683391273, -0.000388633881577448, 1.3025,935.317199707031
0.0661653183333333, 242.335028203822, -0.000312280216737083, 1.31625,933.465270996094
0.0668320133333333, 242.345026748434, -0.000155955068779328, 1.33,930.229125976563
0.0674986066666667, 242.35535081086, 5.79266881452868E-05, 1.3425,936.931823730469
0.0681657583333333, 242.366181912482, -0.000135946073860467, 1.35625,940.702575683594
0.0688331533333333, 242.376318397054, 1.0480450724615E-06, 1.37125,940.702575683594
0.0694985866666667, 242.387274030987, -0.000150673834105294, 1.38375,932.871276855469
0.0701652333333333, 242.397998532208, -0.000173126206365906, 1.39625,941.231506347656
0.0708323366666667, 242.409125737419, -0.000320609298457415, 1.41,931.865966796875
0.07149891, 242.419324579356, -0.000461056243940504, 1.42375,930.012634277344
0.072165365, 242.430343974591, -0.000256763505362482, 1.43625,930.012634277344
0.07283262, 242.440324127498, -0.000264095137120852, 1.45,935.1162109375
0.0734987216666667, 242.450773191046, -0.000303988633296866, 1.4625,941.045471191406
0.0741660816666667, 242.460336429626, 1.66412618254921E-05, 1.47625,934.529052734375
0.074833935, 242.47094647648, 0.000416297687499902, 1.49125,941.004028320313
0.075499355, 242.480950460767, -2.96944107889814E-05, 1.50375,941.004028320313
0.0761660533333333, 242.491609945195, -0.000140868826580869, 1.51625,1129.13952636719
0.076831905, 242.50172391848, 2.19704941867016E-05, 1.52875,940.519287109375
0.077498785, 242.512446737681, -0.000245572567434398, 1.5425,947.649841308594
0.0781658016666667, 242.522682610678, -0.000677589867635161, 1.55625,948.903381347656
0.0788331816666667, 242.533132930496, -0.00059000776679914, 1.57,948.903381347656
0.0794986016666667, 242.542728263997, -0.000404110104248278, 1.58375,938.449523925781
0.080165525, 242.552781436144, -0.000587039415894994, 1.59625,948.61328125
0.0808324833333333, 242.562401433726, -0.000612995612092969, 1.61,955.834228515625
0.081498895, 242.572133883829, -0.000417121950656966, 1.62375,949.190734863281
0.082165485, 242.581424743178, -0.000561300708692984, 1.63625,949.190734863281
0.08283268, 242.591214656841, -0.000875062448761341, 1.65,944.205871582031
0.083499, 242.600908051645, -0.00104527539914932, 1.66125,950.229919433594
0.08416586, 242.609995705464, -0.000899443724123354, 1.675,942.624450683594
0.0848320966666667, 242.619297312881, -0.000875765913433993, 1.68875,936.547668457031
0.0854985766666667, 242.629263153751, -0.000861044152908034, 1.7025,936.547668457031
0.0861661966666667, 242.639033755573, -0.000925675906539053, 1.715,939.507263183594
0.086831905, 242.649056054292, -0.000559782784984346, 1.7275,937.147399902344
0.0874986783333333, 242.659288034016, -0.000573250608539149, 1.74125,936.00244140625
0.088165465, 242.66943524729, -0.000654815011627849, 1.755,929.490051269531
0.0888319183333333, 242.679613297099, -0.00028672900019175, 1.76875,929.490051269531
0.089498815, 242.690087456607, 0.000107637191198443, 1.78125,923.828491210938
0.0901654033333333, 242.700219980505, 7.62767663765872E-05, 1.79375,931.75146484375
0.0908319083333333, 242.711143330619, -0.000277786449390486, 1.8075,936.725830078125
0.0914985616666667, 242.721814260446, -0.000439209841287587, 1.82125,934.099731445313
0.0921659233333333, 242.732493749733, -0.000615342994315421, 1.835,934.099731445313
0.09283203, 242.742920490101, -0.000633037605518735, 1.8475,1122.90490722656
0.0934987083333333, 242.753923506312, -0.000568945824800413, 1.86125,936.525451660156
0.0941655166666667, 242.764777875702, -0.000482584662619931, 1.87375,940.209594726563
0.0948321066666667, 242.776153662327, -0.000473855101147692, 1.88625,932.134216308594
0.0954988683333333, 242.787167858632, -0.000640030254319461, 1.90125,932.134216308594
0.0961653666666667, 242.797860068599, -0.000493711103756167, 1.91375,912.431396484375
0.096831925, 242.808440738006, -0.000758153821061872, 1.9275,911.620910644531
0.0974985666666667, 242.818555737592, -0.000474930547051098, 1.94,913.237365722656
0.098165815, 242.828239675244, -0.000173027211355291, 1.95375,914.177429199219
0.0988320783333333, 242.838215106584, 0.000188555126741814, 1.9675,914.177429199219
0.0994993083333333, 242.848001383471, 3.02320791175998E-05, 1.98,916.17919921875
0.100165781666667, 242.857616598722, 0.000219944050084823, 1.99375,916.550964355469
0.10083194, 242.867560565379, 8.55516792225045E-06, 2.00625,921.860961914063
0.101498685, 242.877145830796, -0.000192977709264933, 2.02125,911.746887207031
0.102165271666667, 242.886779715376, -0.000217117496755514, 2.03375,911.746887207031
0.102832873333333, 242.896096145421, -0.000293156177428686, 2.0475,917.716857910156
0.10349854, 242.905232349816, 8.50513256234323E-05, 2.06,914.013427734375
0.104165238333333, 242.914396133689, 0.000222528420320481, 2.07375,912.763549804688
0.10483222, 242.92405551377, 5.57181783783463E-06, 2.0875,919.02001953125
0.105498558333333, 242.933127657235, -0.000103757690682997, 2.10125,919.02001953125
0.106165838333333, 242.942524031085, -7.46702725262009E-06, 2.115,919.717346191406
0.10683195, 242.951993164578, -0.000599841272887226, 2.1275,915.131958007813
0.107498606666667, 242.961112791124, -0.00059910181005015, 2.14125,920.13330078125
0.108165238333333, 242.969639804765, -0.00035224120959626, 2.15375,919.203247070313
0.108832646666667, 242.978518558887, -0.000439254838977176, 2.1675,919.203247070313
0.109498646666667, 242.987771294514, -0.000535038527852982, 2.18125,1100.60607910156
0.110165326666667, 242.995927326914, -0.000746763393166901, 2.19375,916.414184570313
0.110832118333333, 243.004691865592, -0.000659239789361352, 2.2075,917.688659667969
0.111498933333333, 243.013479757627, -0.00085676036808969, 2.22125,918.585205078125
0.112165233333333, 243.021747951431, -0.000702325125177597, 2.235,918.585205078125
0.112831926666667, 243.029932064175, -0.000972548552153655, 2.2475,912.863952636719
0.11349871, 243.039001181754, -0.000848059305117351, 2.26,913.772399902344
0.114165248333333, 243.047607498685, -0.000934093483692906, 2.275,907.242919921875
0.114832186666667, 243.05588172296, -0.000485272527533143, 2.2875,907.662414550781
0.115498555, 243.064545573368, -0.000753510054216713, 2.30125,907.662414550781
0.11616541, 243.073229265436, -0.000536959931311112, 2.315,901.537231445313
0.116832225, 243.081778768407, -0.00023922788608215, 2.3275,898.556030273438
0.11749861, 243.090696262354, -0.000240621316086572, 2.34125,891.451110839844
0.118165416666667, 243.100651031446, -0.000717648355538042, 2.355,894.866760253906
0.118833386666667, 243.110502667443, -0.000560019773082569, 2.3675,894.866760253906
0.119499925, 243.120806338167, -0.000400009310228386, 2.38125,895.505920410156
0.1201661, 243.13138245074, -6.39391906421296E-05, 2.39375,888.335144042969
0.120832593333333, 243.142275375932, 5.31233093732519E-06, 2.4075,893.769409179688
0.1214986, 243.152974344978, 0.000604668725901834, 2.42125,884.956481933594
0.122165235, 243.164547237372, 0.000628630022345919, 2.43375,884.956481933594
0.12283217, 243.17641932714, 0.000618988506602704, 2.4475,884.577331542969
0.123498845, 243.18857021524, 3.45458625515333E-05, 2.46,886.1748046875
0.124165348333333, 243.200425269763, -0.000246976496867134, 2.4725,888.247741699219
0.124831935, 243.212378143877, -0.000451729712321973, 2.48625,879.063842773438
0.125499118333333, 243.224067794185, -0.000412833666044159, 2.5,879.063842773438
0.126165235, 243.235420846809, -0.000474099588719152, 2.5125,1053.65014648438
0.12683221, 243.247075618616, -0.000294294620157029, 2.52625,881.913024902344
0.127498926666667, 243.258475872325, -0.000151326301326981, 2.53875,878.819946289063
0.128165245, 243.270142756441, -0.00026147176885071, 2.5525,880.733581542969
0.128832161666667, 243.28178736163, -0.000605323497537568, 2.56625,880.733581542969
0.129498565, 243.293682717013, -0.000721536160292671, 2.57875,882.920532226563
0.130166455, 243.304953889832, -0.000778243811919763, 2.59125,885.650146484375
0.13083213, 243.316599646608, -0.00102482842621969, 2.605,883.782897949219
0.131498655, 243.327925238763, -0.00107023864528607, 2.6175,896.36474609375
0.132165823333333, 243.338983002888, -0.00105084911918826, 2.63125,896.36474609375
0.132831896666667, 243.349513506681, -0.000786329905716734, 2.645,887.024597167969
0.133499151666667, 243.36072067032, -0.000702607111007918, 2.6575,895.777099609375
0.134165991666667, 243.371648449658, -0.000481564713749412, 2.67125,901.0322265625
0.134832396666667, 243.382841661338, -0.000286274522970039, 2.68375,895.507141113281
0.135499121666667, 243.394432144827, -0.000360237307865274, 2.6975,895.507141113281
0.13616562, 243.406013471383, -0.00048081925115096, 2.71125,905.975646972656
0.136831896666667, 243.417471125587, -0.000617850868193971, 2.72375,908.830505371094
0.137499898333333, 243.428825629785, -0.000497319922337995, 2.7375,915.05224609375
0.138167916666667, 243.438874676716, -6.22007779186882E-05, 2.75,905.650817871094
0.138831935, 243.449358577307, 0.000290803491028398, 2.76375,905.650817871094
0.139498693333333, 243.459808930965, 0.000450290480138319, 2.7775,886.381530761719
0.140165333333333, 243.470354519073, 0.000517161621285976, 2.79,878.235961914063
0.140832656666667, 243.480968107275, 0.000402523879409343, 2.805,881.555236816406
0.141499411666667, 243.493701592975, 8.07135435903337E-05, 2.8175,1053.97839355469
0.142166601666667, 243.506322337083, -0.000110745839582988, 2.83125,1053.97839355469
0.142831941666667, 243.518802965343, -0.000156583537231818, 2.84375,878.099365234375
0.143498595, 243.531461075718, -0.00016014135851146, 2.8575,866.944519042969
0.144166755, 243.544225023743, -0.00022148377733102, 2.87125,870.251586914063
0.144832595, 243.5560159228, -0.00034720446251494, 2.88375,864.66455078125
0.145498925, 243.568138389369, -0.000380580786053586, 2.8975,864.66455078125
0.146165863333333, 243.579891944011, -0.000135877077252901, 2.91125,871.738037109375
0.146832371666667, 243.59167344815, 1.0754057628779E-05, 2.92375,866.191772460938
0.147498975, 243.603840210495, 7.92331179705232E-05, 2.9375,857.776306152344
0.148165983333333, 243.616243769376, 0.000127860675434494, 2.95125,861.601379394531
0.14883204, 243.628169946117, 0.000400300991018633, 2.965,861.601379394531
0.149499223333333, 243.640301636059, 8.27309422527811E-05, 2.97875,874.101745605469
0.150165218333333, 243.652104055493, 0.000100281560692129, 2.99125,862.166687011719
0.150832581666667, 243.66409073027, 0.00015598576278717, 3.005,861.137084960938
0.151498976666667, 243.675595684374, 0.000429713013764353, 3.0175,860.658203125
0.152165253333333, 243.687862584086, 0.00025805263611469, 3.0325,860.658203125
0.152832086666667, 243.699838495681, 0.000287526155718436, 3.045,863.70556640625
0.15349889, 243.711735960976, 0.000342297404643364, 3.05875,864.864929199219
0.154165238333333, 243.723782408716, 0.000503746295191558, 3.0725,865.3134765625
0.15483212, 243.73615674462, 0.000260389518738794, 3.085,865.701599121094
0.155498581666667, 243.74835167758, 0.000123374400842965, 3.09875,865.701599121094
0.156165241666667, 243.760401787171, 0.000191434982233692, 3.1125,859.912963867188
0.15683206, 243.772431692183, 0.000309615546145935, 3.12625,866.807189941406
0.157498573333333, 243.784825217777, 0.000103491399552724, 3.13875,856.895141601563
