Time (min), Depth (µm), Load (N), Position (µm), Acoustic (aJ)
7.84666666666667E-06, 227.726502241706, -0.000723377075508903, 0,319.427734375
0.000663121666666667, 227.726574258278, -0.00075823532463427, 0.00249999999999998,322.36669921875
0.00132941333333333, 227.726858354809, -0.000713822555423585, 0.0125,322.36669921875
0.00199632666666667, 227.726989277339, -0.000908109296585892, 0.0275,321.185363769531
0.00266269833333333, 227.726286707001, -0.00105344449654936, 0.04125,329.103698730469
0.00332967166666667, 227.72686795617, -0.0012798296254462, 0.05625,339.860168457031
0.00399643, 227.727815015374, -0.00143126801882672, 0.07,339.860168457031
0.004662805, 227.729397601811, -0.00173150793810427, 0.085,345.951477050781
0.00532958166666667, 227.732077504184, -0.0015865147209685, 0.1,418.148651123047
0.00599616333333333, 227.735447045455, -0.00129231049853112, 0.1125,355.423217773438
0.00666269, 227.739833830462, -0.000781508155564719, 0.12625,351.812286376953
0.00732992666666667, 227.745586438582, -0.000548974835454969, 0.14,351.812286376953
0.00799625, 227.753184108405, -0.000373002174402047, 0.1525,361.980804443359
0.00866271833333333, 227.761985474897, -0.000526336472589607, 0.16625,355.55126953125
0.00933011666666667, 227.772605280099, -0.000577149420291699, 0.17875,360.746215820313
0.00999633, 227.783804322403, -0.000818295307812741, 0.1925,368.290191650391
0.01066305, 227.795227830184, -0.000965439416925352, 0.20625,368.290191650391
0.01132958, 227.806305724718, -0.00088420199739907, 0.21875,357.487823486328
0.0119963316666667, 227.818138133761, -0.000681664170649163, 0.2325,356.289825439453
0.012662765, 227.829810369159, -0.000818202312478485, 0.24625,362.352600097656
0.013329605, 227.841892725688, -0.00094765781006414, 0.26,365.723754882813
0.01399618, 227.853904970818, -0.00130952363389472, 0.2725,365.723754882813
0.0146628266666667, 227.865767380689, -0.00138437137437916, 0.28625,367.204528808594
0.01532938, 227.877414664802, -0.00165557425216058, 0.29875,296.554809570313
0.0159963083333333, 227.889816911049, -0.00189191888083788, 0.31375,360.931701660156
0.01666269, 227.901681772798, -0.00188055545162468, 0.32625,364.136322021484
0.0173298183333333, 227.913956565138, -0.00144270194455064, 0.34,364.136322021484
0.017996475, 227.925627341313, -0.0016469901833342, 0.35375,365.534484863281
0.0186627033333333, 227.937811335173, -0.00169431880607366, 0.36625,364.047943115234
0.0193294266666667, 227.94925813748, -0.00141852015917677, 0.38,364.303100585938
0.019996475, 227.960911415077, -0.00122915167096165, 0.39375,363.480407714844
0.0206629166666667, 227.972683374511, -0.000984026483318638, 0.40625,363.480407714844
0.0213296183333333, 227.984903148065, -0.00109110160505755, 0.42,365.261779785156
0.0219964183333333, 227.996759639401, -0.000836117412632841, 0.43375,434.413360595703
0.0226627083333333, 228.009255195824, -0.00104648484606425, 0.44625,364.510559082031
0.023329545, 228.021801579254, -0.000956252378318832, 0.46,364.960083007813
0.023996295, 228.033741969903, -0.00122204202799371, 0.47625,358.957763671875
0.0248295366666667, 228.046072264569, -0.000762012134813026, 0.49,362.592498779297
0.0254962583333333, 228.058386484575, -0.00093656586718918, 0.50375,362.592498779297
0.0261628, 228.070611675921, -0.000720539217964078, 0.51625,360.884552001953
0.026829475, 228.082802689765, -0.000892451582998505, 0.53,369.999176025391
0.0274963783333333, 228.095412553454, -0.000742895595041628, 0.54375,352.554412841797
0.0281628233333333, 228.108022694425, -0.000829772731301847, 0.55625,356.798736572266
0.0288295333333333, 228.120589399195, -0.000771610152748547, 0.57,356.798736572266
0.0294961783333333, 228.133194907474, -0.000694217040147946, 0.58375,353.875396728516
0.0301627583333333, 228.145413677902, -0.000373698139495191, 0.59625,356.687408447266
0.0308305566666667, 228.158352667757, -0.000523203130043612, 0.61,349.010559082031
0.031496235, 228.169995406688, -0.000270000848128789, 0.6225,352.845489501953
0.0321626866666667, 228.182147608712, -0.000223225697621653, 0.635,352.845489501953
0.0328295066666667, 228.194140132829, -9.46416562205613E-05, 0.64875,348.537841796875
0.0334961633333333, 228.206686868093, -0.000454821564745571, 0.66125,356.058319091797
0.0341642733333333, 228.217931153365, -0.0005328611448915, 0.675,351.601898193359
0.034830035, 228.230505644885, -0.000783552552930187, 0.68875,346.547210693359
0.0354963433333333, 228.242037045922, -0.000742060137021489, 0.70125,346.547210693359
0.0361630116666667, 228.253601072199, -0.000753038085641802, 0.715,354.082214355469
0.0368301983333333, 228.265117508834, -0.000622963119171331, 0.7275,357.919250488281
0.0374962683333333, 228.277253430534, -0.000798346309827502, 0.74125,424.832427978516
0.0381634866666667, 228.288864568615, -0.000739439768663915, 0.755,359.690979003906
0.0388299183333333, 228.301063503799, -0.000835196458900462, 0.7675,359.690979003906
0.0394963116666667, 228.312729471687, -0.00083666938491951, 0.78,360.156341552734
0.0401630216666667, 228.324399806154, -0.000935922399535166, 0.79375,364.211151123047
0.0408297216666667, 228.335652141036, -0.000819672238691235, 0.8075,362.913482666016
0.0414964116666667, 228.346981525569, -0.000532235676287817, 0.82,366.026672363281
0.042163425, 228.358012761165, -0.000649654278454426, 0.83375,366.026672363281
0.04283007, 228.367290149701, -0.000816297408146282, 0.84625,368.869720458984
0.0434961533333333, 228.375969967305, -0.000517294926756474, 0.86,377.486145019531
0.0441630666666667, 228.385312999852, -0.000498424374608464, 0.87375,378.186370849609
0.0448295433333333, 228.394996723517, -0.000895278941029998, 0.8875,372.904113769531
0.0454968883333333, 228.404812975995, -0.000724671510460201, 0.9,372.904113769531
0.0461632266666667, 228.41690514981, -0.000733978542955219, 0.91375,378.037506103516
0.046829785, 228.429616259722, -0.0010521725604216, 0.92625,378.137145996094
0.0474979183333333, 228.441420887264, -0.00110069962295056, 0.94,385.347564697266
0.0481630683333333, 228.453155889701, -0.00104889822483292, 0.95375,372.69580078125
0.048829725, 228.465780865741, -0.00132600930585897, 0.9675,372.69580078125
0.0494962316666667, 228.477420609091, -0.00138621478181083, 0.98,378.729187011719
0.0501630266666667, 228.488969876668, -0.00111115859757856, 0.99375,374.553344726563
0.0508297016666667, 228.500914610931, -0.00108577687244829, 1.0075,376.108001708984
0.0514962266666667, 228.512662033073, -0.00114873021039576, 1.02,375.540161132813
0.052162765, 228.523348064468, -0.000934023494879322, 1.03375,375.540161132813
0.05283078, 228.53428669295, -0.000430021810368778, 1.0475,380.269317626953
0.0534965533333333, 228.54474215834, -0.000338050929963677, 1.06,375.624420166016
0.054163, 228.555141012476, -0.000114431662134038, 1.07375,450.632019042969
0.05482971, 228.565719371287, 0.000317363649255042, 1.0875,371.844848632813
0.0554965483333333, 228.576506862017, 0.000563778772097402, 1.10125,371.844848632813
0.0561628083333333, 228.587301777862, 0.000267891634224513, 1.11375,367.998382568359
0.0568302233333333, 228.598071528586, 8.85711413084035E-05, 1.1275,374.9853515625
0.0574964283333333, 228.608731725228, 0.000167852659051517, 1.14125,371.501190185547
0.0581627133333333, 228.618875301697, -3.57021166138318E-05, 1.155,379.802490234375
0.05883045, 228.629570342559, -0.000335951035459051, 1.1675,379.802490234375
0.0594969066666667, 228.639451093964, -0.000454475082102148, 1.18125,379.03515625
0.0601631866666667, 228.649705058966, -0.000495330030033191, 1.19375,371.869873046875
0.0608315466666667, 228.659495819023, -0.000746804398716649, 1.20875,378.0224609375
0.0614962, 228.669297480271, -0.000893306540078395, 1.22125,376.0205078125
0.06216296, 228.678029839882, -0.000573606598277343, 1.23375,376.0205078125
0.06282968, 228.687355673873, -0.000181274304718033, 1.2475,382.330505371094
0.0634964083333333, 228.696152827164, -5.23182820224253E-05, 1.26,384.21826171875
0.0641632966666667, 228.705367665368, -6.24059646907445E-06, 1.27375,380.109680175781
0.0648295366666667, 228.713984292295, 0.000225020787555425, 1.2875,379.362701416016
0.0654964283333333, 228.722629045409, -0.000105042133733079, 1.30125,379.362701416016
0.0661627266666667, 228.73206994498, -0.000348046427887315, 1.315,385.158966064453
0.0668299733333333, 228.740472048316, -0.000459837312736467, 1.3275,381.93212890625
0.067496415, 228.749312779737, -0.000750999687952692, 1.34125,383.109741210938
0.068163245, 228.757386956919, -0.000811901128933932, 1.35375,379.269195556641
0.0688310016666667, 228.766186402463, -0.00070702039695831, 1.3675,379.269195556641
0.0694972583333333, 228.77328276692, -0.000425700527397845, 1.38125,380.431823730469
0.0701642166666667, 228.781554548998, -0.000549261321079754, 1.39375,380.957061767578
0.0708309016666667, 228.789000247023, -0.000221502284057228, 1.4075,446.3583984375
0.0714980566666667, 228.79696181854, -0.000311541261512121, 1.42,375.0478515625
0.0721627816666667, 228.804653393501, -0.00050870485821123, 1.43375,375.0478515625
0.072829805, 228.81263271959, -0.000855724427769121, 1.44625,378.012603759766
0.0734968583333333, 228.819967438046, -0.000679633272645832, 1.46,374.866729736328
0.0741627116666667, 228.827322370196, -0.000860038211096784, 1.47375,376.47265625
0.0748295483333333, 228.834397527715, -0.000703102593821886, 1.48625,376.417724609375
0.0754963133333333, 228.840732872434, -0.000338646400036787, 1.5,376.417724609375
0.076162835, 228.848112332447, -0.000276930499955799, 1.5125,375.953948974609
0.0768302933333333, 228.855416784691, -0.000332021232799876, 1.525,374.158508300781
0.077496865, 228.862578681845, -0.0002325537289733, 1.53875,371.126312255859
0.07816275, 228.870325976779, -0.000350525803350982, 1.5525,383.213836669922
0.0788301733333333, 228.877714366787, -0.000561619200363605, 1.565,383.213836669922
0.07949637, 228.884678774274, -0.000363264663518277, 1.57875,376.654937744141
0.0801629066666667, 228.892124761024, -0.000484005598790709, 1.59125,385.330505371094
0.0808296083333333, 228.899363730247, -0.00091178861169969, 1.605,381.316284179688
0.0814963783333333, 228.906550255898, -0.000902154595621, 1.61875,381.408477783203
0.0821627166666667, 228.91465733166, -0.00123106407485211, 1.63125,381.408477783203
0.0828296783333333, 228.922660942533, -0.00132890416042485, 1.645,387.364318847656
0.0834968416666667, 228.930055334463, -0.0012238044394651, 1.65875,386.910125732422
0.08416273, 228.937690153179, -0.00105701731700927, 1.67,384.919067382813
0.0848301716666667, 228.948042329756, -0.00103815876425649, 1.68375,370.632507324219
0.085496395, 228.957821742991, -0.00116445992029074, 1.69875,370.632507324219
0.086163015, 228.96692998895, -0.00117177055310747, 1.7125,382.307098388672
0.0868295733333333, 228.976162100324, -0.00114669631256488, 1.725,377.375579833984
0.0874968516666667, 228.985677269031, -0.00101129811345206, 1.7375,455.535552978516
0.0881630666666667, 228.992300445548, -0.000969994688060685, 1.75125,371.723114013672
0.088830215, 228.999854886168, -0.00101096363022512, 1.765,371.723114013672
0.08949685, 229.007127100037, -0.00151769067784398, 1.77875,379.390655517578
0.09016274, 229.014737513782, -0.00136976210814094, 1.79125,380.906280517578
0.0908300283333333, 229.021986059464, -0.00125318646361648, 1.805,377.719116210938
0.0914961733333333, 229.029224821929, -0.00118159805941292, 1.81875,372.324432373047
0.0921635283333333, 229.035736753702, -0.000594839531679295, 1.83125,372.324432373047
0.0928296816666667, 229.04306120081, -0.000451473732818622, 1.845,376.478576660156
0.0934962083333333, 229.05049234, -0.000900369685262311, 1.85875,368.247344970703
0.0941627333333333, 229.057706000257, -0.000912819059956015, 1.87125,375.629272460938
0.0948302316666667, 229.064304381221, -0.000907351834592214, 1.885,380.376098632813
0.0954968633333333, 229.071252191785, -0.00113334398325289, 1.89875,380.376098632813
0.096162965, 229.07817389657, -0.000997209321173059, 1.91125,370.667083740234
0.0968297133333333, 229.084739711477, -0.000770233221912561, 1.925,377.590240478516
0.0974971483333333, 229.09157502121, -0.000748187329228994, 1.93875,372.617950439453
0.0981627383333333, 229.099476049161, -0.000951166133838475, 1.9525,375.946594238281
0.0988309516666667, 229.107171863778, -0.000929244734944141, 1.96625,375.946594238281
0.0994966416666667, 229.114912267789, -0.00110503890497182, 1.98,366.889617919922
0.100162838333333, 229.123025390824, -0.000939976695898557, 1.9925,371.629638671875
0.100830238333333, 229.1313381997, -0.000873755022145036, 2.00625,373.437347412109
0.101496851666667, 229.139922902097, -0.00110327799344609, 2.02,376.148986816406
0.102162848333333, 229.148554072499, -0.00091236008304611, 2.03375,376.148986816406
0.102829725, 229.157495632827, -0.000615037517285508, 2.04625,369.21337890625
0.103496553333333, 229.166027583929, -0.000689283787935467, 2.06,374.724182128906
0.104163093333333, 229.174863962383, -0.000955947893686225, 2.0725,443.304077148438
0.104830188333333, 229.183054410345, -0.000807788335582576, 2.08625,379.782196044922
0.105496365, 229.191345867339, -0.00100665734660449, 2.1,379.782196044922
0.106162821666667, 229.199618381875, -0.00110435793916522, 2.1125,373.383514404297
0.106829645, 229.208658372875, -0.00133184851258105, 2.125,378.774780273438
0.107496823333333, 229.217768206847, -0.00151639924278399, 2.13875,378.901824951172
0.108162713333333, 229.22665020346, -0.00177870156762618, 2.1525,381.487213134766
0.108829776666667, 229.235420630329, -0.00178739813076155, 2.16625,381.487213134766
0.109496571666667, 229.244235622317, -0.00186713712553267, 2.17875,390.103576660156
0.110162921666667, 229.252401618329, -0.0014317599940735, 2.1925,376.126983642578
0.110829593333333, 229.260281796479, -0.00139784969736228, 2.20625,385.608703613281
0.111496988333333, 229.268658769294, -0.00104943219802675, 2.22,382.547119140625
0.112162728333333, 229.277080116125, -0.00133716274565572, 2.2325,382.547119140625
0.112830175, 229.285808440493, -0.00144420936880971, 2.245,386.028747558594
0.113496095, 229.293862330133, -0.00195648763760146, 2.25875,383.830413818359
0.114162826666667, 229.301939261641, -0.00198642763375838, 2.27125,384.914245605469
0.11483017, 229.309117728613, -0.00192021945930323, 2.28625,384.222564697266
0.115496836666667, 229.316917011508, -0.00186046396073611, 2.29875,384.222564697266
0.11616305, 229.324380511505, -0.00185665715196302, 2.3125,383.634857177734
0.116829895, 229.332358721229, -0.00161552926357733, 2.325,380.703796386719
0.117497048333333, 229.340032311993, -0.00143077604355869, 2.33875,376.759460449219
0.11816279, 229.349203686573, -0.00151470732778081, 2.35125,375.719421386719
0.118829481666667, 229.357272649532, -0.00139132502510289, 2.36375,375.719421386719
0.119496845, 229.36543067312, -0.00118562835700712, 2.3775,376.877136230469
0.120162878333333, 229.374371899829, -0.00120649080912397, 2.39,455.029083251953
0.120830096666667, 229.383698384758, -0.00100297653143877, 2.40375,379.240447998047
0.121496895, 229.393001739635, -0.00105725580505316, 2.4175,374.921722412109
0.122162978333333, 229.402923749747, -0.00112516489407915, 2.43,374.921722412109
0.122830406666667, 229.413207883644, -0.00103020916360147, 2.44375,373.683563232422
0.123496473333333, 229.423464215316, -0.000883953009863113, 2.45625,379.246643066406
0.124162875, 229.43393426783, -0.00100926271567552, 2.47,384.001495361328
0.124829745, 229.444227474862, -0.000965844396514232, 2.48375,382.126251220703
0.125496425, 229.455470694972, -0.00112061712243831, 2.49625,382.126251220703
0.126162868333333, 229.466498244944, -0.0014925504406489, 2.51,380.332427978516
0.12683004, 229.478436991527, -0.0016885785943622, 2.5225,382.947540283203
0.127496928333333, 229.490446004192, -0.00201216784082103, 2.53625,371.143463134766
0.128162793333333, 229.5022043606, -0.00169566873827039, 2.55,369.813446044922
0.128829878333333, 229.513917354016, -0.00141240346639758, 2.56375,369.813446044922
0.129496381666667, 229.525297128846, -0.00106744629323423, 2.57625,364.201507568359
0.130162783333333, 229.535949235812, -0.000825499445954326, 2.59,367.685119628906
0.130829655, 229.546676040264, -0.000635111008953709, 2.6025,362.387512207031
0.131496345, 229.557283389912, -0.000556126476263695, 2.61625,364.803649902344
0.13216272, 229.567564736093, -0.000202871719877502, 2.63,364.803649902344
0.132830165, 229.578667822032, -0.000400191308714549, 2.64375,368.856109619141
0.133496228333333, 229.589290759338, -0.000642396143055578, 2.65625,369.579132080078
0.134163111666667, 229.599758216545, -0.000560677247710835, 2.67,366.027496337891
0.134829718333333, 229.610594009705, -0.000756360418747624, 2.68375,366.752410888672
0.135496623333333, 229.622038693108, -0.00135754672176041, 2.69625,366.752410888672
0.136162941666667, 229.632233909257, -0.00117560886029303, 2.71,369.079071044922
0.136830081666667, 229.642840293726, -0.00104320301091732, 2.72375,438.791320800781
0.137496378333333, 229.653251056743, -0.000878748271354899, 2.73625,368.233764648438
0.138163413333333, 229.663590591216, -0.000779378262593281, 2.75,370.263702392578
0.138830225, 229.672844997525, -0.000414682080924915, 2.76375,370.263702392578
0.139496876666667, 229.683204039072, -0.000832403599194006, 2.77625,372.770141601563
0.140163043333333, 229.693276663292, -0.000804262012715402, 2.79,364.936492919922
0.14082943, 229.703808053016, -0.00124089008131818, 2.80375,368.309020996094
0.141496256666667, 229.713993778263, -0.00160210193802392, 2.8175,368.199798583984
0.142163135, 229.724525513248, -0.00192789157392239, 2.83125,368.199798583984
0.142830238333333, 229.734259883285, -0.00172286837205371, 2.84375,370.639465332031
0.143496193333333, 229.744395285476, -0.00171721965577336, 2.8575,371.826416015625
0.14416272, 229.754109246415, -0.00175520824763842, 2.87,362.313751220703
0.144829588333333, 229.763751068452, -0.00149021655791611, 2.88375,366.801910400391
0.14549687, 229.773470781845, -0.00124211551974693, 2.8975,366.801910400391
0.14616275, 229.783576288882, -0.00135111204496522, 2.91,372.788055419922
0.146829681666667, 229.793081655221, -0.00146049705066772, 2.92375,365.257690429688
0.147496813333333, 229.802844620329, -0.00127704876509246, 2.9375,365.207275390625
0.148162923333333, 229.813054155585, -0.00135394540263057, 2.95,360.484954833984
0.14882949, 229.823068345389, -0.00119884119337086, 2.96375,360.484954833984
0.149496855, 229.833049218876, -0.00123532836063196, 2.97625,363.824981689453
0.150162706666667, 229.843081354641, -0.00129095306664861, 2.99,363.016937255859
0.150830208333333, 229.852987279716, -0.00128157403776098, 3.00375,362.325378417969
0.151496483333333, 229.862941487155, -0.00140503733635668, 3.01625,359.527893066406
0.152162733333333, 229.872849109137, -0.00177699915310967, 3.03,359.527893066406
0.152829776666667, 229.883125717655, -0.00155008755064102, 3.04375,358.489135742188
0.153496106666667, 229.89315805979, -0.00127881567635831, 3.05625,426.128997802734
0.1541627, 229.903529407231, -0.00135176151235936, 3.07,357.447418212891
0.154829858333333, 229.913723454725, -0.00127160253864905, 3.0825,353.604705810547
0.155496311666667, 229.92387554418, -0.00130323744965796, 3.09625,353.604705810547
0.156162751666667, 229.933916593163, -0.00123488438296609, 3.10875,363.178527832031
0.15683031, 229.944224867713, -0.00139425137808124, 3.1225,353.362762451172
0.157496101666667, 229.954746547425, -0.00132290446177037, 3.135,348.809112548828
0.158162903333333, 229.964633965639, -0.00130451988521403, 3.14875,347.332672119141
0.15882983, 229.974981769548, -0.00110505540409775, 3.1625,347.332672119141
0.159496913333333, 229.984869439896, -0.00122878268938842, 3.175,355.412139892578
0.160162731666667, 229.994801301712, -0.00107985217005648, 3.18875,350.132873535156
