Time (min), Depth (µm), Load (N), Position (µm), Acoustic (aJ)
1.17583333333333E-05, 240.993174137142, -0.000447530250604892, 0,262.396881103516
0.000663526666666667, 240.993433709473, -0.000550668070105117, 0.00375000000000028,265.759948730469
0.001330095, 240.994579078502, -0.000531385038703703, 0.0137499999999999,258.230285644531
0.00199695166666667, 240.996894958649, -0.000319796666574243, 0.028750000000001,268.513336181641
0.00266490833333333, 241.000960480857, -0.000322880511742456, 0.0425000000000009,272.477264404297
0.00333004, 241.006562098611, -0.000339276188200008, 0.0575000000000003,272.477264404297
0.00399735666666667, 241.01427227658, -0.000747650175993939, 0.0712500000000001,272.165008544922
0.00466349, 241.022783393045, -0.000603618410549441, 0.085,283.116607666016
0.00533011333333333, 241.031376226145, -0.000639148625849976, 0.0975000000000004,287.589233398438
0.00599740833333333, 241.040600162547, -0.000663613896957318, 0.1125,304.196075439453
0.00666349333333333, 241.049999029162, -0.000432706495198258, 0.125,304.196075439453
0.00733010333333333, 241.059141976245, -0.000111521627982932, 0.13875,308.924377441406
0.00799677, 241.069226285046, 2.73518965673447E-05, 0.1525,310.027709960938
0.00866351333333333, 241.079773413988, -0.000217369811347433, 0.16625,305.881896972656
0.00933006833333333, 241.08994302112, -0.0002179877803291, 0.177500000000001,310.026306152344
0.00999702166666667, 241.100318326121, -0.000226607847341156, 0.19125,310.026306152344
0.0106636933333333, 241.108658705592, -0.00036748227136419, 0.203750000000001,306.708251953125
0.01133011, 241.116974274028, -0.000640734046220523, 0.217500000000001,319.32666015625
0.0119969233333333, 241.125429030541, -0.000425664348955987, 0.231250000000001,321.813598632813
0.01266353, 241.134757117685, -0.000858511107521784, 0.243750000000001,396.185882568359
0.0133304983333333, 241.143955837623, -0.00104380430045312, 0.257500000000001,396.185882568359
0.0139973183333333, 241.155154484031, -0.000846045233702153, 0.271250000000001,334.700958251953
0.01466341, 241.166341017097, -0.000915577241166271, 0.285000000000001,333.162933349609
0.01533003, 241.177194732026, -0.000981606924574921, 0.297500000000001,338.806579589844
0.0159970133333333, 241.187905924335, -0.000910681487063873, 0.311250000000001,349.072326660156
0.01666392, 241.198933917815, -0.00107013997761013, 0.323750000000001,349.072326660156
0.0173302416666667, 241.209727758294, -0.00118019994937911, 0.337500000000001,344.258056640625
0.017996795, 241.220905415971, -0.00106892353870655, 0.351250000000001,347.347320556641
0.0186634333333333, 241.231960984523, -0.000930234504900382, 0.363750000000001,346.129425048828
0.019330235, 241.24311764533, -0.000779073597555715, 0.377500000000001,341.133697509766
0.0199971216666667, 241.254090288492, -0.000657260216101159, 0.391250000000001,341.133697509766
0.02066396, 241.265226815126, -0.000412523508984856, 0.405000000000001,346.042572021484
0.02133008, 241.275711734029, -0.000208508256463945, 0.418750000000001,340.798889160156
0.0219972866666667, 241.287051935416, -0.000377185284007938, 0.431250000000001,343.286560058594
0.0226640216666667, 241.298186970173, -0.000372126038124332, 0.445000000000001,348.061859130859
0.0233300183333333, 241.309338105005, -0.000115007452933726, 0.458750000000001,348.061859130859
0.0239970566666667, 241.320601132172, -0.000298476737450631, 0.472500000000001,345.392150878906
0.0248302233333333, 241.331794697377, -0.000265464895584486, 0.488750000000001,340.345764160156
0.0254969233333333, 241.342600396073, -0.000150795655295384, 0.50125,273.2265625
0.0261637, 241.353310832744, 2.3260102072618E-05, 0.515,342.52685546875
0.0268301766666667, 241.364027874147, 0.000134383520477303, 0.528750000000001,341.146057128906
0.0274968866666667, 241.374874733956, 0.000377182324924531, 0.542500000000001,341.146057128906
0.0281635333333333, 241.385727850941, -0.000120980152927695, 0.555,340.264282226563
0.028830075, 241.396639651333, -0.000210075677784161, 0.56875,350.380340576172
0.0294972533333333, 241.406946830859, -0.00029001866233789, 0.582500000000001,414.213226318359
0.0301640116666667, 241.417172274751, -0.000360359129246651, 0.595,342.918487548828
0.0308316416666667, 241.427918944205, -0.000696775731348806, 0.60875,342.918487548828
0.0314972216666667, 241.43848732995, -0.000304920413813494, 0.6225,348.986785888672
0.0321635683333333, 241.448837142796, -0.000563987401143997, 0.636250000000001,341.904998779297
0.0328301216666667, 241.459857055388, -0.000736706725592393, 0.647500000000001,340.160003662109
0.033497465, 241.470857171134, -0.00103376230476671, 0.6625,347.155090332031
0.0341637066666667, 241.481857869445, -0.000989009052695228, 0.675,347.155090332031
0.03483021, 241.492453381089, -0.00136688507239046, 0.68875,346.035217285156
0.03549748, 241.503484380359, -0.00102097094728781, 0.7025,338.828308105469
0.036163485, 241.514303273232, -0.000797806156637371, 0.715,338.265411376953
0.0368300433333333, 241.525302191153, -0.000596453270442341, 0.72875,339.85791015625
0.0374971816666667, 241.535648454331, -0.000514887367429238, 0.742500000000001,339.85791015625
0.0381644166666667, 241.546695479211, -0.000324456932587837, 0.755,340.808227539063
0.0388300233333333, 241.557212430243, -0.000363924450169564, 0.76875,336.526458740234
0.0394969183333333, 241.568158161648, -0.000614009888643064, 0.781250000000001,336.227233886719
0.040164145, 241.57820005509, -0.000732290947490325, 0.795000000000001,333.899871826172
0.0408315783333333, 241.589168367732, -0.000811567965481483, 0.807500000000001,333.899871826172
0.0414983266666667, 241.599493083856, -0.000804848302985913, 0.821250000000001,333.825988769531
0.0421634966666667, 241.610558155308, -0.000672163467607437, 0.835000000000001,332.911499023438
0.04283043, 241.620972205543, -0.000349520673617095, 0.846250000000001,327.576873779297
0.04349859, 241.631756289326, -0.000119513226648768, 0.861250000000001,331.665435791016
0.044163625, 241.641351409357, 4.38375683828219E-05, 0.87375,331.665435791016
0.044831705, 241.651729253101, 0.000140284223929884, 0.8875,336.202819824219
0.04549683, 241.661250291116, -0.000196591355145939, 0.900000000000001,331.478790283203
0.0461640933333333, 241.671364056562, -0.000637318717865461, 0.912500000000001,402.735534667969
0.046830225, 241.680913328962, -0.000658422657853749, 0.926250000000001,332.294677734375
0.04749681, 241.691411056303, -0.000986919657767695, 0.940000000000001,335.302642822266
0.0481649616666667, 241.701163123873, -0.00138371572707374, 0.9525,335.302642822266
0.04883021, 241.711275555461, -0.0012461051391048, 0.966250000000001,336.168060302734
0.0494967233333333, 241.721098538157, -0.00108637966197225, 0.97875,337.992370605469
0.0501634616666667, 241.731784144003, -0.00132956544700054, 0.9925,341.720275878906
0.0508300616666667, 241.742007413119, -0.00116274082641338, 1.00625,341.720275878906
0.0514968866666667, 241.752663391079, -0.000910703985993684, 1.01875,348.859436035156
0.05216344, 241.763200890117, -0.000952659878606752, 1.03125,340.294677734375
0.0528300783333333, 241.776017101001, -0.000962403389209388, 1.045,340.902374267578
0.05349673, 241.788663370288, -0.00083976654908741, 1.05875,348.178314208984
0.0541634733333333, 241.801092443077, -0.00100475976165938, 1.0725,348.178314208984
0.0548300316666667, 241.813324406841, -0.000841165978831953, 1.08625,342.207458496094
0.0554968416666667, 241.825822779066, -0.00119436373804831, 1.1,340.000946044922
0.0561638616666667, 241.836117222802, -0.00128094838900739, 1.1125,339.684387207031
0.056831525, 241.846555827018, -0.00150535511734003, 1.12625,341.724945068359
0.0574983383333333, 241.856732574044, -0.00118907350382786, 1.13875,341.724945068359
0.058164955, 241.867049779943, -0.00121472221548066, 1.1525,336.315612792969
0.0588301766666667, 241.877220563733, -0.000882314911967289, 1.16625,335.099578857422
0.0594976333333333, 241.887366576687, -0.000975619225400681, 1.17875,335.397827148438
0.0601635733333333, 241.897047351641, -0.000613841897067391, 1.1925,334.032806396484
0.0608303466666667, 241.90712183586, -0.000834456815785952, 1.20625,334.032806396484
0.0614968916666667, 241.917157841497, -0.000919448546752464, 1.22,340.492401123047
0.0621636466666667, 241.927585948424, -0.000888568097867176, 1.2325,402.361724853516
0.062830045, 241.937556373556, -0.000872652397282428, 1.24625,333.538879394531
0.0634974366666667, 241.948777840006, -0.0012012963898304, 1.26,336.137054443359
0.0641633466666667, 241.959768042669, -0.0012336077668727, 1.2725,338.863586425781
0.064830405, 241.970830820025, -0.00119650413057559, 1.28625,338.863586425781
0.0654971366666667, 241.98140422753, -0.00123630913121181, 1.3,335.007507324219
0.0661637683333333, 241.992320464753, -0.00122572566281583, 1.3125,336.101379394531
0.06683061, 242.0023596015, -0.000960687475415758, 1.32625,333.880584716797
0.0674969416666667, 242.012536351401, -0.000950870468496108, 1.34,333.880584716797
0.0681641916666667, 242.022459090085, -0.000896297209656172, 1.35375,337.560302734375
0.0688300766666667, 242.032596417151, -0.000907264658741899, 1.3675,336.275909423828
0.0694972566666667, 242.042884519336, -0.000924932271305955, 1.38,336.333618164063
0.07016347, 242.052933964339, -0.000896088720079102, 1.39375,336.279113769531
0.070830065, 242.063418138108, -0.00108230286674281, 1.40625,336.279113769531
0.0714972366666667, 242.07326804708, -0.00105435777038229, 1.42125,333.756072998047
0.07216361, 242.084216300412, -0.000851785445392363, 1.43375,338.830352783203
0.0728301766666667, 242.094793217573, -0.00100075046300683, 1.44625,340.374450683594
0.073496895, 242.105772705423, -0.00105922352597537, 1.46,341.933776855469
0.0741636066666667, 242.116079538811, -0.000697546692619605, 1.47375,341.933776855469
0.0748304183333333, 242.12711524707, -0.000711019015926364, 1.4875,342.239990234375
0.0754969316666667, 242.137498585771, -0.000887048674149118, 1.5,346.124725341797
0.076163695, 242.148283043503, -0.000537203246547899, 1.5125,340.392486572266
0.0768300566666667, 242.159102094495, -0.000656037777627487, 1.52625,342.594024658203
0.0774969383333333, 242.170205555778, -0.000953316845601649, 1.54,342.594024658203
0.0781635666666667, 242.181347786953, -0.0010056762156398, 1.55375,341.503570556641
0.0788300833333333, 242.191921400217, -0.00103527422894776, 1.56625,415.470367431641
0.079496845, 242.202509514169, -0.00115503271360854, 1.58,342.246917724609
0.0801642433333333, 242.212605152028, -0.000936064712139804, 1.59375,343.550140380859
0.080830445, 242.223150447903, -0.000726687228942065, 1.60625,338.346893310547
0.0814970583333333, 242.233103745955, -0.000619148630498789, 1.62,338.346893310547
0.0821648066666667, 242.243557618003, -0.000622160479231883, 1.6325,350.561737060547
0.0828307816666667, 242.253568980864, -0.000670587046847072, 1.64625,342.783599853516
0.083498195, 242.263962259251, -0.00081609623804132, 1.65875,341.610076904297
0.0841641533333333, 242.274076796801, -0.000971527430884701, 1.6725,341.610076904297
0.084831645, 242.284688134297, -0.000926214706883282, 1.68625,336.189178466797
0.0854969216666667, 242.294674631615, -0.000782014949863111, 1.69875,338.692047119141
0.0861635383333333, 242.305138833354, -0.000818287627892037, 1.7125,334.517608642578
0.086830135, 242.315548243345, -0.00102655516686133, 1.725,329.415710449219
0.087496725, 242.326133748328, -0.000921465945372404, 1.73875,329.415710449219
0.0881637316666667, 242.336519198477, -0.000912845878339094, 1.7525,333.607940673828
0.0888301216666667, 242.346714859146, -0.00114816455855454, 1.765,335.768920898438
0.0894971216666667, 242.357003906049, -0.00104875255190963, 1.7775,330.846984863281
0.09016362, 242.366931019148, -0.000862554904435607, 1.79125,334.893829345703
0.0908301, 242.376629364909, -0.000736618230095109, 1.80375,334.893829345703
0.0914971783333333, 242.386445461688, -0.000779696066374354, 1.8175,331.636901855469
0.0921634983333333, 242.396466298217, -0.000580351579231589, 1.83125,339.487213134766
0.0928301016666667, 242.406205723393, -0.000533150450108911, 1.845,335.426177978516
0.0934969216666667, 242.416023321479, -0.000550933556852018, 1.8575,336.117614746094
0.0941643, 242.425744548516, -0.000796954199512558, 1.87125,336.117614746094
0.0948300316666667, 242.435834902175, -0.000623153429335619, 1.8825,339.10888671875
0.0954968516666667, 242.445634250099, -0.000811189984446846, 1.8975,399.545379638672
0.0961634266666667, 242.455525461181, -0.00109761709749308, 1.91125,322.404754638672
0.09683072, 242.465261806493, -0.000858583103935649, 1.925,321.288146972656
0.097496685, 242.475277691973, -0.000732418441064602, 1.9375,321.288146972656
0.0981635866666667, 242.484560815389, -0.000945325246999575, 1.95125,319.349517822266
0.09883148, 242.493727506598, -0.000826201230446396, 1.965,323.121063232422
0.0994970766666667, 242.502491696138, -0.000542523479298927, 1.9775,322.685272216797
0.100163745, 242.511969267674, -0.000637332217163836, 1.99,326.560180664063
0.10083048, 242.520316925207, -0.000634039882524824, 2.00375,326.560180664063
0.10149692, 242.529269309731, -0.000593081439831211, 2.0175,323.902069091797
0.102163503333333, 242.5382171433, -0.000688130165600641, 2.03125,324.413360595703
0.102830133333333, 242.547071682817, -0.000476520794508281, 2.045,322.924194335938
0.103497065, 242.555130029512, -0.000278305750632456, 2.0575,319.487121582031
0.104163403333333, 242.563557959723, -0.000276090361906271, 2.07125,319.487121582031
0.104830513333333, 242.571793947956, -0.000171766101990528, 2.085,324.627410888672
0.105496683333333, 242.579927969331, 0.000189684242716582, 2.0975,323.139282226563
0.10616476, 242.587928154243, -0.000182816047003452, 2.11,323.792785644531
0.106831565, 242.596061565975, -0.00028737879494182, 2.12375,323.905822753906
0.107497383333333, 242.603740525789, 3.53179963482929E-05, 2.1375,323.905822753906
0.108163686666667, 242.611677117907, -6.16536328674337E-05, 2.15125,323.065124511719
0.108830231666667, 242.619824582576, -0.000244657940755567, 2.165,326.147186279297
0.109497238333333, 242.62812105387, -0.000256531344350895, 2.1775,326.435089111328
0.110163413333333, 242.636489033385, -0.000464659390265671, 2.19125,323.97998046875
0.110830151666667, 242.644808651026, -0.000633124928405042, 2.205,323.97998046875
0.111496863333333, 242.652744866368, -0.00077703220012407, 2.2175,323.565032958984
0.112163545, 242.660428060361, -0.000729834070871453, 2.23125,385.587738037109
0.112830068333333, 242.668073422713, -0.000741926463514673, 2.245,325.377838134766
0.113496921666667, 242.675294431632, -0.000394114933744337, 2.2575,321.633514404297
0.114163805, 242.68310949433, -0.000654086375702546, 2.27125,321.633514404297
0.11483043, 242.690664019883, -0.000683384404066094, 2.285,313.616027832031
0.115497523333333, 242.698236441145, -0.000606441268828979, 2.29875,317.683807373047
0.116163813333333, 242.705783088045, -0.000416426313068535, 2.31125,309.163116455078
0.116830373333333, 242.713552463157, -0.000518698676081809, 2.32375,312.542327880859
0.117497428333333, 242.721408872157, -0.000491971518528019, 2.3375,312.542327880859
0.118164245, 242.729135655996, -0.000436324313645317, 2.35125,320.243835449219
0.118830426666667, 242.737189521899, -0.000359000197546013, 2.365,304.048156738281
0.119496773333333, 242.745370664589, -0.000361152589404753, 2.3775,307.049743652344
0.120163468333333, 242.753723715487, -0.000301736073816534, 2.39,307.642669677734
0.120830096666667, 242.761628882262, -9.63948878893472E-05, 2.40375,307.642669677734
0.121497683333333, 242.769700420978, 8.93767809903868E-05, 2.4175,301.963653564453
0.122163365, 242.777247836643, 0.000131221679176359, 2.43125,295.161254882813
0.122830396666667, 242.78445387387, 0.000719591125974135, 2.44375,305.557708740234
0.123498468333333, 242.791622543435, 0.000654203410337604, 2.45625,301.129699707031
0.124165085, 242.799503810609, 0.000590623103904556, 2.47,301.129699707031
0.12483052, 242.80695277129, 0.000472868518565346, 2.48375,302.942840576172
0.125496958333333, 242.814528521522, 0.000539783157520697, 2.49625,295.483306884766
0.126163541666667, 242.822957553911, -4.49414723607941E-05, 2.51,290.885559082031
0.12683038, 242.830916610238, -3.43700033387805E-05, 2.5225,296.90380859375
0.12749697, 242.838747642411, 1.83778472048334E-05, 2.53625,296.90380859375
0.12816362, 242.846672246978, 4.68053523758622E-06, 2.55,295.987396240234
0.128830083333333, 242.855089171504, -0.000272172558727338, 2.5625,349.937744140625
0.129497103333333, 242.862994826021, -0.000165740904706207, 2.575,295.377532958984
0.130164136666667, 242.870908528332, -0.00022642935640093, 2.58875,299.562286376953
0.130831786666667, 242.878628380393, -0.000190657653143946, 2.6025,299.562286376953
0.131497063333333, 242.886588264774, 6.70993329525962E-06, 2.615,300.319152832031
0.132163698333333, 242.894137021953, 3.07207272446519E-05, 2.62875,300.110992431641
0.132830236666667, 242.901616313384, 6.62104446288074E-05, 2.64125,303.518188476563
0.1334969, 242.909355922231, 0.00013067270675975, 2.655,304.995635986328
0.134163635, 242.917324080737, -9.64173867553961E-05, 2.6675,304.995635986328
0.134830128333333, 242.925023172461, -0.000148373277065311, 2.68125,307.94775390625
0.135496991666667, 242.933094361805, -7.09837318409918E-06, 2.69375,315.454528808594
0.136163465, 242.941761175555, -4.2785148171302E-06, 2.7075,311.25048828125
0.136830031666667, 242.950660787991, -0.000109748717168248, 2.72125,313.357543945313
0.137496865, 242.959630929249, -2.0515199266683E-05, 2.73375,313.357543945313
0.138163491666667, 242.968292191128, -9.15711301795602E-05, 2.7475,323.288421630859
0.138830138333333, 242.976806672313, -0.000578112191714952, 2.76125,306.902618408203
0.139496858333333, 242.98533660062, -0.000644908336599937, 2.77375,296.853729248047
0.14016383, 242.994224885953, -0.000668413655961669, 2.7875,301.840515136719
0.140830131666667, 243.003488145696, -0.000959805519632847, 2.8,301.840515136719
0.141497758333333, 243.013431146551, -0.000742049457294486, 2.81375,298.690704345703
0.142163365, 243.023922447184, -0.000271559089561389, 2.8275,302.298309326172
0.142830141666667, 243.034529034577, -0.000181493113488491, 2.84125,298.02783203125
0.143496961666667, 243.044906548767, 7.18306623242489E-05, 2.855,294.459442138672
0.144163526666667, 243.054794056199, 0.000440281155411593, 2.8675,294.459442138672
0.14483022, 243.065199981996, 0.000400608148122858, 2.88125,353.413726806641
0.14549728, 243.07528807497, 0.000193416055141985, 2.895,293.227630615234
0.14616353, 243.085219656743, 0.000240546687860218, 2.9075,287.402709960938
0.146830596666667, 243.095654496254, 0.00017099818120641, 2.92125,285.562957763672
0.147497135, 243.105979096018, 0.000113135587618778, 2.935,285.562957763672
0.148164728333333, 243.116282180935, -0.000119547724952551, 2.94875,283.862335205078
0.14883009, 243.126516126651, -2.4627992639293E-05, 2.96125,286.119384765625
0.14949831, 243.13675626193, -8.68838656117238E-05, 2.97375,289.089202880859
0.150163611666667, 243.146546391947, 0.000221592139881864, 2.98875,289.448577880859
0.150830378333333, 243.156469165593, 4.39770613098166E-05, 3.00125,289.448577880859
0.151498536666667, 243.165754308011, 0.000276769868362583, 3.015,289.366821289063
0.152163428333333, 243.175197312092, 0.000571895044532347, 3.02875,281.123077392578
0.152830013333333, 243.184677590157, 0.000574263425568919, 3.04125,284.795227050781
0.15349689, 243.195086090633, 0.000365458913642004, 3.055,285.3798828125
0.154163446666667, 243.205169606246, 0.00076526083198353, 3.06875,285.3798828125
0.154830421666667, 243.215921422191, 0.000792703453583945, 3.0825,287.124267578125
0.15549799, 243.226725212486, 0.00058960615496786, 3.09625,285.543151855469
