Time (min), Depth (µm), Load (N), Position (µm), Acoustic (aJ)
8.83166666666667E-06, 240.952673587097, -0.000779280350586279, 0,286.294830322266
0.000666493333333333, 240.952865776203, -0.000816757468123563, 0.00625000000000105,286.294830322266
0.001333035, 240.953864627607, -0.000766380998465327, 0.0175000000000002,284.782379150391
0.00200026166666667, 240.956146476085, -0.000705509555950898, 0.0325000000000013,297.734588623047
0.00266645, 240.959733153953, -0.000440465368853216, 0.0475000000000007,302.489410400391
0.00333321166666667, 240.965879233152, -0.000427338028222969, 0.0612500000000005,296.915405273438
0.004000055, 240.97371711762, -0.000673726152404816, 0.0750000000000004,296.915405273438
0.00466666, 240.982209414711, -0.000534438648676732, 0.0887500000000003,304.746643066406
0.00533404166666667, 240.991735228232, -0.000614863109070177, 0.1025,314.122772216797
0.00599976833333333, 241.001655408347, -0.000707496956146535, 0.11625,324.000213623047
0.00666642, 241.011440395991, -0.000711009779694079, 0.12875,323.814910888672
0.00733334166666667, 241.021072994782, -0.000357309545696357, 0.1425,323.814910888672
0.00799979166666667, 241.031015067841, -0.000247219575418057, 0.15625,324.652099609375
0.00866689333333333, 241.040921231709, -0.000305848630503279, 0.17,323.727203369141
0.00933298666666667, 241.051510104006, -0.000290837384503729, 0.1825,331.607788085938
0.0100001466666667, 241.061303891805, -0.000434524167292969, 0.195000000000001,327.494903564453
0.0106663016666667, 241.070361172918, -0.000806307493020721, 0.207500000000001,327.494903564453
0.011333155, 241.079056021776, -0.00104030773943065, 0.225000000000001,347.607147216797
0.0121667233333333, 241.092181149537, -0.00132449546496024, 0.238750000000001,358.700012207031
0.01283313, 241.101144385687, -0.00128319203961137, 0.252500000000001,364.051147460938
0.0134997466666667, 241.111141076443, -0.000811867713740032, 0.266250000000001,370.186828613281
0.0141662683333333, 241.121941108769, -0.000667757952205311, 0.2775,372.253967285156
0.0148337516666667, 241.132828562562, -0.000502506752572219, 0.29125,372.253967285156
0.0154998733333333, 241.143669576703, -0.000397251039495783, 0.306250000000001,380.454559326172
0.0161670016666667, 241.154353347279, -0.000769499341831053, 0.318750000000001,383.671112060547
0.0168330333333333, 241.165441301806, -0.00105362857030892, 0.332500000000001,389.212677001953
0.0174997083333333, 241.176412339055, -0.00103126769350067, 0.345,384.651306152344
0.01816626, 241.187451505175, -0.00111259660845806, 0.358750000000001,384.651306152344
0.018833315, 241.198748506299, -0.000832166194196247, 0.372500000000001,387.548492431641
0.019500675, 241.21014703211, -0.000519262411014078, 0.386250000000001,391.418273925781
0.0201663133333333, 241.221567883583, -0.000383304739992579, 0.39875,382.815612792969
0.020833205, 241.233113355689, -0.000549959869100915, 0.412500000000001,377.586547851563
0.0215005216666667, 241.244631081505, -0.000648003944456257, 0.426250000000001,377.586547851563
0.0221669166666667, 241.255719601474, -0.00047948590889901, 0.43875,381.682342529297
0.0228332766666667, 241.266902181525, -0.000570865818961703, 0.4525,464.119781494141
0.0235007216666667, 241.277894745439, -0.00086773690745567, 0.466250000000001,383.50830078125
0.02416684, 241.289048323176, -0.000967930374799693, 0.480000000000001,382.319274902344
0.0248330833333333, 241.299767689345, -0.000900919740682533, 0.4925,382.319274902344
0.02550124, 241.310676882346, -0.000805566530216733, 0.50625,379.366851806641
0.026167075, 241.321236129825, -0.000774156607910824, 0.520000000000001,384.857452392578
0.02683353, 241.332110864706, -0.000616726015476581, 0.533750000000001,386.077392578125
0.0275010316666667, 241.342457364947, -0.00046039636776687, 0.54625,385.091430664063
0.0281668333333333, 241.353164238, -0.000250055932932207, 0.55875,385.091430664063
0.0288338983333333, 241.363870022932, -0.000611464279756026, 0.5725,381.231170654297
0.0295001716666667, 241.374798369202, -0.000377647024123293, 0.58625,382.660400390625
0.030166825, 241.38534133446, -0.000269202471191671, 0.601250000000001,386.024322509766
0.03083316, 241.39586070188, 3.02739864158375E-05, 0.6125,389.959167480469
0.0315003633333333, 241.406680355077, -4.37202969131201E-05, 0.627500000000001,389.959167480469
0.0321669583333333, 241.417575178975, 2.94685268625094E-05, 0.64,386.327362060547
0.0328331, 241.428759988028, -0.000194012747900776, 0.6525,389.049743652344
0.0334996866666667, 241.439784948909, -0.000365572630636674, 0.66625,389.242919921875
0.03416639, 241.451171615771, -0.000575205101046729, 0.678750000000001,388.042663574219
0.034833955, 241.462347303143, -0.000740852280743535, 0.6925,388.042663574219
0.0355005866666667, 241.473445178219, -0.000601255792545872, 0.70625,383.763977050781
0.0361664016666667, 241.48365020935, -0.000152235346397967, 0.72,377.676910400391
0.036833135, 241.494788692115, -0.00017220234345479, 0.7325,377.084320068359
0.0374999866666667, 241.505442068642, -0.000291818335276, 0.74625,378.475860595703
0.0381664016666667, 241.516131029405, -0.000227710055389243, 0.758750000000001,378.475860595703
0.0388337716666667, 241.5267436854, -0.000579896865409029, 0.772500000000001,375.160858154297
0.0395000266666667, 241.537830762983, -0.0011133435709384, 0.78625,447.6201171875
0.0401667033333333, 241.548206035846, -0.000830468279452947, 0.798750000000001,369.757598876953
0.04083315, 241.559129300889, -0.00078695846492431, 0.81125,366.643768310547
0.0414997133333333, 241.569290758376, -0.000481830291187638, 0.826250000000001,366.643768310547
0.04216689, 241.579656913259, -0.000371300842931659, 0.837500000000001,368.917236328125
0.0428332533333333, 241.590428631743, -0.000126154656346996, 0.85125,364.146179199219
0.0435012016666667, 241.600634085525, -0.000269592451642788, 0.865,367.436096191406
0.0441666933333333, 241.610659359782, -0.000326654085514065, 0.877500000000001,369.032806396484
0.0448337883333333, 241.620988331846, -0.000727052973895612, 0.891250000000001,369.032806396484
0.045499995, 241.631643318372, -0.00104756437492635, 0.903750000000001,374.385559082031
0.046166445, 241.641451466863, -0.00119746234573219, 0.917500000000001,372.603881835938
0.046832985, 241.651516383676, -0.00133125712533911, 0.931250000000001,370.873291015625
0.0474996283333333, 241.661417964638, -0.00145741728841569, 0.943750000000001,382.988189697266
0.048166305, 241.671465284887, -0.001168084821269, 0.957500000000001,382.988189697266
0.0488331366666667, 241.680916460488, -0.000964423550971015, 0.97,382.546020507813
0.0494998566666667, 241.690737962443, -0.00092817187186248, 0.98375,388.296661376953
0.0501663616666667, 241.700806654807, -0.000960055770364835, 0.997500000000001,390.723907470703
0.0508333733333333, 241.710750982935, -0.000988573837953673, 1.01,384.924835205078
0.0515001616666667, 241.721337973187, -0.0011078778454565, 1.0225,384.924835205078
0.05216634, 241.732828997417, -0.000790681277909565, 1.035,383.703125
0.0528345783333333, 241.745816373644, -0.000594692122252002, 1.05,384.176055908203
0.053500205, 241.758585446024, -0.000294014225006198, 1.06375,391.517303466797
0.0541669216666667, 241.771696081371, -0.000330762379177228, 1.07625,389.084686279297
0.05483347, 241.784248498891, -0.000507768488356536, 1.09,389.084686279297
0.0555000983333333, 241.796063521397, -0.000841104245245555, 1.10375,385.399291992188
0.0561662433333333, 241.806187020384, -0.000972772131729843, 1.1175,462.449768066406
0.0568345916666667, 241.816460131594, -0.0013554014126454, 1.13125,381.045684814453
0.0575002416666667, 241.825944279544, -0.000796635978853203, 1.14375,382.954528808594
0.0581663116666667, 241.836030489314, -0.00051364219333989, 1.15625,382.954528808594
0.058833085, 241.845839875179, -0.000152152850577041, 1.17,381.558258056641
0.0594996833333333, 241.855953132783, -5.53837111982629E-05, 1.18375,387.094055175781
0.060167225, 241.866371918031, 0.000109351514291329, 1.1975,382.940063476563
0.0608333733333333, 241.87735051151, -3.67756458845857E-05, 1.21125,383.086791992188
0.06149965, 241.887584034206, -0.000283349760692436, 1.22375,383.086791992188
0.0621664516666667, 241.898490116337, -0.000527466998923923, 1.2375,379.021301269531
0.0628339716666667, 241.90906328775, -0.000848098393928176, 1.25,379.702728271484
0.0635007616666667, 241.919442667611, -0.000932409159066831, 1.26375,382.152587890625
0.0641664216666667, 241.929852137578, -0.00117423001265436, 1.27625,380.655395507813
0.064833695, 241.94036472632, -0.00097004676860028, 1.29,380.655395507813
0.06549984, 241.950621646486, -0.00109114468600821, 1.305,378.036468505859
0.066166355, 241.960826173441, -0.000924420560334818, 1.3175,378.48974609375
0.0668336383333333, 241.971231585591, -0.000677337971026738, 1.33125,385.4912109375
0.0675001466666667, 241.981482442141, -0.00043022388330619, 1.34375,379.915802001953
0.0681668366666667, 241.992055517247, -0.000721305262540877, 1.3575,379.915802001953
0.0688334566666667, 242.00265399064, -0.000598572427278345, 1.3725,383.454650878906
0.0695000466666667, 242.013448395701, -0.000641542268979301, 1.385,379.165008544922
0.0701665866666667, 242.024249831117, -0.000802500684183867, 1.3975,381.865783691406
0.07083315, 242.035199886218, -0.00107226663413192, 1.41125,377.322631835938
0.0714998266666667, 242.045571315732, -0.000868098389321871, 1.425,377.322631835938
0.0721666416666667, 242.055839039629, -0.000804851066170109, 1.4375,458.032592773438
0.072833175, 242.066362748092, -0.000526481548335933, 1.45,378.319641113281
0.07349965, 242.076937319342, -0.000510652843451591, 1.465,377.003631591797
0.0741663616666667, 242.086865801342, -0.000313303256105224, 1.4775,380.121490478516
0.0748331516666667, 242.0977279014, -0.000565574084838099, 1.49125,380.121490478516
0.075500285, 242.107795147862, -0.000514450652720771, 1.505,389.298919677734
0.0761665866666667, 242.118274541055, -0.000672655206295874, 1.5175,385.712127685547
0.0768335033333333, 242.128161853458, -0.000695464560564461, 1.53125,389.730255126953
0.0775005883333333, 242.139376100327, -0.000654353125539207, 1.545,388.729034423828
0.0781668933333333, 242.149318030556, -0.000292835284170188, 1.5575,388.729034423828
0.0788346283333333, 242.160538817642, -0.000444210680725774, 1.57125,389.428283691406
0.07950043, 242.170702530182, -0.00059614104943809, 1.585,389.192108154297
0.080166625, 242.181355397638, -0.000731537748605246, 1.5975,388.720581054688
0.0808336033333333, 242.191599919588, -0.00102424354630873, 1.61125,387.16357421875
0.0815001916666667, 242.202129246258, -0.00128068416558404, 1.62375,387.16357421875
0.0821669116666667, 242.212017770004, -0.00124400650785997, 1.6375,386.173187255859
0.08283316, 242.222490473918, -0.0010616456676471, 1.65125,384.340972900391
0.0834996716666667, 242.232726367124, -0.000907931888543009, 1.665,382.319519042969
0.0841673333333333, 242.242858633677, -0.000552211256012778, 1.67625,380.670532226563
0.0848336233333333, 242.252875511495, -8.41342670270974E-05, 1.69,380.670532226563
0.0855013316666667, 242.263486027144, -0.000300301909146105, 1.70375,379.174377441406
0.0861663466666667, 242.274417157543, -0.000454618657987833, 1.7175,375.684295654297
0.0868329983333333, 242.285161059284, -0.000425067142293863, 1.72875,369.705596923828
0.0875000366666667, 242.295862920928, -0.000815313040625668, 1.7425,366.922088623047
0.0881679133333333, 242.307304996722, -0.00144327599871881, 1.75625,366.922088623047
0.08883321, 242.317879728877, -0.00119865478578156, 1.76875,451.729797363281
0.0894998016666667, 242.328157037512, -0.000905187026374949, 1.7825,367.358245849609
0.09016688, 242.339081746875, -0.00147365097301644, 1.795,373.746887207031
0.0908333883333333, 242.349435988844, -0.00128011719403209, 1.80875,372.640106201172
0.091500305, 242.359063561599, -0.00083701695048153, 1.8225,372.640106201172
0.09216702, 242.369222050645, -0.000785782523937107, 1.835,371.392578125
0.092833155, 242.379377545708, -0.000900666253437128, 1.84875,370.282043457031
0.09350016, 242.389268869931, -0.000319841427684238, 1.8625,372.331939697266
0.094166625, 242.399073700884, -4.54692091286385E-05, 1.87375,374.588500976563
0.0948332316666667, 242.410429399065, 0.000122471355363322, 1.8875,374.588500976563
0.0955011166666667, 242.421556278513, -0.000122970316350036, 1.90125,366.914794921875
0.096166665, 242.432280121282, 8.16164074747872E-05, 1.915,360.462066650391
0.0968331366666667, 242.442672519767, 0.000212358840432233, 1.92875,361.005676269531
0.0974998083333333, 242.453346264236, 3.07929602806188E-05, 1.94125,360.776580810547
0.0981665433333333, 242.462771665314, -0.000250705400326343, 1.955,360.776580810547
0.0988333533333333, 242.471725247325, -0.000244764198723588, 1.96875,361.896270751953
0.09950051, 242.481136478895, -0.000661389272083865, 1.98125,355.856262207031
0.100166363333333, 242.490694451262, -0.000868755356316769, 1.99625,361.307952880859
0.10083311, 242.49967313951, -0.000828669869753376, 2.00875,359.758850097656
0.101500503333333, 242.508260402867, -0.000680157829372453, 2.02125,359.758850097656
0.102167955, 242.517848272114, -0.000588021957282993, 2.035,360.216156005859
0.102834461666667, 242.527019876601, -0.000459277423992007, 2.04875,359.007537841797
0.10350119, 242.535871013974, -0.000582172251090091, 2.06125,359.682525634766
0.104167845, 242.545082936588, -0.000756093015219292, 2.075,360.37841796875
0.104834496666667, 242.553674962482, -0.000725959528793096, 2.08875,360.37841796875
0.10550117, 242.561855816115, -0.000631188289059523, 2.1025,435.079956054688
0.106167798333333, 242.569909856978, -0.000579529383845215, 2.115,361.272888183594
0.106834518333333, 242.578114603561, -0.000470474361553942, 2.12875,358.983276367188
0.107501245, 242.586091005952, -0.00055745949239245, 2.1425,365.931884765625
0.108166876666667, 242.594547042257, -0.0006446906108756, 2.155,365.931884765625
0.1088336, 242.602715812813, -0.00065463811119708, 2.16875,359.335571289063
0.109499643333333, 242.610602600311, -0.000655212582349798, 2.1825,357.260406494141
0.11016781, 242.618406066022, -0.000939410807392722, 2.19625,365.407928466797
0.110834715, 242.626005028852, -0.000862331178992402, 2.20875,362.179473876953
0.11150022, 242.63374243047, -0.00100535649499228, 2.2225,362.179473876953
0.112168336666667, 242.641267452844, -0.00101870132470351, 2.23625,357.189178466797
0.11283323, 242.648718661995, -0.00104142518328111, 2.24875,352.757202148438
0.113499808333333, 242.65640421316, -0.000850358780343951, 2.2625,351.050201416016
0.11416635, 242.664030477312, -0.000630430827108353, 2.27625,353.618133544922
0.114833161666667, 242.671698471277, -0.000806120002427806, 2.28875,353.618133544922
0.11549972, 242.679453631034, -0.000916086978883784, 2.3025,349.529998779297
0.11616635, 242.687266069683, -0.000927336413842341, 2.31625,348.083862304688
0.11683303, 242.6951410458, -0.000737765435790278, 2.32875,339.558074951172
0.117500251666667, 242.70355214547, -0.00107965976279082, 2.34125,338.687927246094
0.118166808333333, 242.711695424094, -0.00103377556750674, 2.35625,338.687927246094
0.118833595, 242.71948289165, -0.00102111470345092, 2.36875,338.595855712891
0.11950043, 242.727844643924, -0.00114001823105306, 2.3825,328.031921386719
0.120166358333333, 242.735421945606, -0.00139560239332409, 2.395,326.183807373047
0.120833451666667, 242.743249995983, -0.00134072914953974, 2.4075,328.152679443359
0.121499875, 242.750922195409, -0.00129908674121197, 2.4225,328.152679443359
0.122166786666667, 242.758945296499, -0.00135120462337869, 2.435,391.887603759766
0.122834075, 242.76640068985, -0.00110437252148846, 2.4475,319.940399169922
0.123499878333333, 242.774276769952, -0.000986887922626853, 2.46125,318.695129394531
0.124166686666667, 242.78195447947, -0.000882634159179318, 2.47375,320.264434814453
0.124832996666667, 242.790125826689, -0.000912697149137307, 2.4875,320.264434814453
0.125500266666667, 242.798211618108, -0.000831566224243657, 2.50125,322.631622314453
0.126166346666667, 242.806346359111, -0.000798410389634798, 2.51375,315.280090332031
0.126833188333333, 242.81450906982, -0.000626936002611139, 2.5275,313.797943115234
0.127501278333333, 242.822233192496, -0.00051868194007873, 2.54,318.890289306641
0.128167756666667, 242.829851764889, -0.000460255374809202, 2.55375,318.890289306641
0.128833055, 242.837319664815, -0.000334899171319036, 2.56625,321.1640625
0.129501128333333, 242.84504618897, -0.000321822828118499, 2.58,322.651153564453
0.130167765, 242.853232499596, -0.000466964537833949, 2.59375,320.464233398438
0.130834593333333, 242.861806025397, -0.00057759598094935, 2.60625,323.5625
0.131501156666667, 242.870672608876, -0.000390222392530633, 2.61875,323.5625
0.132167988333333, 242.880104397878, -0.000487643999152354, 2.6325,327.940307617188
0.132834458333333, 242.88985410779, -0.00016483471355325, 2.64625,332.019104003906
0.133500431666667, 242.899276786934, -0.000176397632754596, 2.65875,329.477630615234
0.134168485, 242.909324455123, -0.000277041077504612, 2.67125,332.601531982422
0.134834168333333, 242.919334420411, -0.000459982388546555, 2.68625,332.601531982422
0.135500916666667, 242.929001181426, -0.000117528589637328, 2.69875,335.654571533203
0.136167951666667, 242.939058271872, -0.000644867601912676, 2.7125,347.066009521484
0.136833691666667, 242.949609132596, -0.000844698064647113, 2.725,349.518829345703
0.13750016, 242.959183960355, -0.000677631956252285, 2.7375,354.846984863281
0.138166313333333, 242.967690415798, -0.000503006227526028, 2.75125,354.846984863281
0.138833468333333, 242.976731962822, -0.000741773234518422, 2.76625,399.990386962891
0.13950014, 242.985526596784, -0.000358032509450014, 2.77875,331.502349853516
0.140166833333333, 242.994430421442, 4.36323153616779E-05, 2.7925,332.134124755859
0.140833211666667, 243.003996154067, -2.67696483626002E-05, 2.805,325.931274414063
0.141499983333333, 243.015075778226, -1.05793982110208E-06, 2.81875,325.931274414063
0.142166358333333, 243.026438452526, -4.3619801999356E-05, 2.8325,329.705017089844
0.142833125, 243.037271777742, -4.87660434770975E-05, 2.84625,322.618713378906
0.14350028, 243.048249294905, -0.000223283777646319, 2.85875,321.858612060547
0.144166293333333, 243.05915271613, -1.34788159511441E-05, 2.87125,315.971343994141
0.144833493333333, 243.069757681194, -7.98309831702572E-05, 2.88625,315.971343994141
0.145501143333333, 243.080083403762, -0.000344191204655037, 2.89875,325.652282714844
0.146166893333333, 243.090793985116, -0.000796006010497564, 2.9125,321.685211181641
0.146832996666667, 243.101005912876, -0.00078481807248205, 2.92625,315.203918457031
0.147499641666667, 243.111014243838, -0.000488654948433944, 2.93875,317.971038818359
0.148167665, 243.121442823772, -0.000742884678713777, 2.9525,317.971038818359
0.148833385, 243.131839332086, -0.000242575808721677, 2.96625,313.296081542969
0.149499825, 243.141892617476, -0.000135875668147347, 2.97875,313.608856201172
0.150166323333333, 243.152197905046, -0.000151902363116681, 2.9925,319.570251464844
0.15083309, 243.162326267191, -0.000252830793609587, 3.00625,320.367340087891
0.151501955, 243.172055216097, 0.000118672046169739, 3.01875,320.367340087891
0.152168188333333, 243.181655004895, 6.54382200769614E-05, 3.0325,316.584442138672
0.152833553333333, 243.19139397845, 0.000125433706548601, 3.04625,318.56396484375
0.15350135, 243.201146512606, -3.14899113310707E-05, 3.05875,320.307189941406
0.1541667, 243.211083921135, -0.000334798676426526, 3.0725,374.768737792969
0.154833151666667, 243.221237123169, -0.000585875565079358, 3.0875,374.768737792969
0.155500073333333, 243.231246564198, -0.000646310529528676, 3.1,316.436981201172
0.156166426666667, 243.24135666372, -0.000602113749474568, 3.11375,318.728424072266
