Time (min), Depth (µm), Load (N), Position (µm), Acoustic (aJ)
7.65E-06, 227.775214250658, 0.000197401334812668, 0,236.696701049805
0.000666435, 227.775288957129, 0.000171503635623912, 0.00499999999999999,237.152648925781
0.00133330666666667, 227.775630910014, 8.83193138821363E-05, 0.01625,236.428527832031
0.00200021666666667, 227.77662737269, 4.37955502656097E-05, 0.03125,251.297958374023
0.00266648833333333, 227.777464491705, 6.84123137801886E-05, 0.04625,256.508697509766
0.00333300166666667, 227.77842582893, 0.000454719409948907, 0.06,256.508697509766
0.00399968666666667, 227.780232778986, 0.000412684021342467, 0.075,263.232269287109
0.00466634333333333, 227.782460742711, 0.000322727539751007, 0.08875,262.359954833984
0.005333325, 227.784743290708, 0.00028062615444957, 0.1025,290.472045898438
0.00599969, 227.787943032572, 0.000357687783714542, 0.11625,287.463775634766
0.00666633666666667, 227.791907233463, -9.10146784173643E-05, 0.12875,287.463775634766
0.00733333666666667, 227.796998574118, -0.00016997671224133, 0.14375,280.232940673828
0.00799966333333333, 227.803843915074, -0.000445533871288045, 0.15625,289.666534423828
0.00866653666666667, 227.812197982988, -0.00048472390281266, 0.17,284.413909912109
0.00933301, 227.821670351754, -0.00054073408950722, 0.18375,287.034820556641
0.00999968666666667, 227.832576765366, -0.000595335846910818, 0.19625,287.034820556641
0.0106663316666667, 227.843911653882, -0.000571623537960183, 0.21,284.316497802734
0.0113333416666667, 227.854984554541, -0.000461370075879419, 0.22375,345.070007324219
0.0119999033333333, 227.866135134551, -0.000295305917113492, 0.2375,291.114074707031
0.0126663833333333, 227.877760485927, -0.000263324523482417, 0.25,291.656097412109
0.0133331883333333, 227.888768428591, 0.00016725584890623, 0.26375,291.656097412109
0.0139998583333333, 227.900688447271, 0.000391598080425764, 0.2775,287.250335693359
0.014666345, 227.911966343315, 0.000641812512440452, 0.29,283.1748046875
0.015333165, 227.92393144464, 0.000578205207346891, 0.30375,287.19287109375
0.015999775, 227.935975455928, 0.000639519127602789, 0.3175,292.160919189453
0.016666305, 227.948065780984, 0.000276655853874015, 0.33,292.160919189453
0.0173329416666667, 227.960051229806, -0.000349102214963761, 0.34375,284.609954833984
0.0179997966666667, 227.972044892256, -0.000661984999161776, 0.35875,285.449249267578
0.0186664483333333, 227.983801067776, -0.000526814788600766, 0.37,289.574981689453
0.0193330066666667, 227.995328212772, -0.000690942544622023, 0.385,287.594116210938
0.0199998783333333, 228.007340242425, -0.0005512515611657, 0.3975,287.594116210938
0.0206663383333333, 228.018902180932, -0.000260927643818421, 0.41125,289.739135742188
0.0213329366666667, 228.031004679252, -0.000251544115136328, 0.42375,290.088623046875
0.02199985, 228.042687878085, -0.000271056635056457, 0.44,288.463745117188
0.0228331066666667, 228.06072828616, -0.00061601080839225, 0.45375,289.019317626953
0.02349962, 228.072804833425, -0.000681695509103135, 0.4675,287.632751464844
0.0241663866666667, 228.084443792821, -0.000954362313357182, 0.48,287.632751464844
0.0248333883333333, 228.096582675287, -0.000925364269874285, 0.495,281.844787597656
0.0255003616666667, 228.107812297567, -0.000790029067628917, 0.5075,282.816528320313
0.0261663616666667, 228.119710195035, -0.000563127964652343, 0.52125,283.834747314453
0.0268331016666667, 228.131753970971, -0.000506067830747978, 0.535,281.806060791016
0.02749965, 228.144179245057, -0.000182712572538564, 0.54625,281.806060791016
0.028166505, 228.156350431891, -0.000169688726713396, 0.56,332.683746337891
0.0288330333333333, 228.169220838871, -0.000523771441497712, 0.57375,275.067535400391
0.029499865, 228.181575671051, -0.000796561239531572, 0.58625,275.515228271484
0.0301664683333333, 228.193492036048, -0.000693030439795186, 0.6,276.085479736328
0.0308330633333333, 228.205239541818, -0.000957378661842232, 0.6125,276.085479736328
0.0314996433333333, 228.216740583534, -0.000792542941353859, 0.62625,268.359985351563
0.032166355, 228.227997807652, -0.000578241205490061, 0.63875,270.415649414063
0.0328339633333333, 228.239437308683, -0.000467180783952821, 0.6525,273.904266357422
0.0334997366666667, 228.250698213172, -0.000180879664535209, 0.66625,273.037536621094
0.034166435, 228.262329974135, 0.000228341780737849, 0.67875,273.037536621094
0.0348330316666667, 228.27434519774, -2.6297428989089E-05, 0.6925,280.069091796875
0.0354997016666667, 228.286764633123, 6.32000756074497E-05, 0.70625,274.582702636719
0.0361666216666667, 228.298728177884, 0.00016748833731626, 0.71875,273.349609375
0.0368329966666667, 228.311407589866, -0.000245562415595939, 0.7325,275.876770019531
0.037500055, 228.323377356417, -0.00077141650254203, 0.745,275.876770019531
0.0381663533333333, 228.335070172536, -0.000684023392223327, 0.75875,274.644287109375
0.0388330183333333, 228.345956349071, -0.000998514095700446, 0.77125,275.188171386719
0.0394998883333333, 228.357549302463, -0.00113376830200678, 0.785,278.110626220703
0.0401664216666667, 228.368289858867, -0.000887245184607391, 0.79875,281.083618164063
0.040833105, 228.379751870365, -0.000489894143102108, 0.81125,281.083618164063
0.0414996533333333, 228.390397417731, -0.000422565524947695, 0.825,283.821105957031
0.0421663466666667, 228.400565639357, 4.79225963738449E-07, 0.83625,284.17822265625
0.0428331366666667, 228.408842518548, 0.000134603989024391, 0.85125,290.902435302734
0.04349968, 228.418183591707, -9.34985536329871E-05, 0.865,351.666137695313
0.0441663666666667, 228.427342329221, -0.000446019846837208, 0.8775,351.666137695313
0.044833215, 228.437533466355, -0.000706349770706541, 0.89,291.556121826172
0.045499715, 228.448093799606, -0.000611004059841504, 0.90375,294.146392822266
0.0461665216666667, 228.460130736415, -0.000788173660802021, 0.9175,301.524932861328
0.0468330183333333, 228.471232570054, -0.000571752531416354, 0.93125,297.745971679688
0.0474998733333333, 228.482317800853, -0.000581140559914165, 0.94375,297.745971679688
0.04816632, 228.493502340369, -0.000470944094939471, 0.9575,301.525665283203
0.0488331516666667, 228.505137659017, -0.000709601607407919, 0.97125,295.111785888672
0.0494999666666667, 228.517282313643, -0.000815040311325315, 0.985,298.548400878906
0.05016641, 228.529645591902, -0.00120150339967448, 0.99875,298.886901855469
0.0508337833333333, 228.542073424251, -0.00110135043024684, 1.01125,298.886901855469
0.0514997233333333, 228.553962122725, -0.00107742063223647, 1.02375,303.28125
0.0521663566666667, 228.565640206394, -0.000746784739719656, 1.0375,295.773406982422
0.0528335516666667, 228.576873739242, -0.000542129019372283, 1.05125,295.540222167969
0.05349977, 228.588046300188, -0.000142052614801199, 1.065,297.328765869141
0.0541663233333333, 228.599715422023, 8.05902021143947E-05, 1.07875,297.328765869141
0.0548330333333333, 228.610357805027, 0.000173929013809062, 1.09125,294.4296875
0.0554997416666667, 228.621862613848, 0.000126186411849283, 1.105,292.140075683594
0.05616643, 228.633086322289, -4.65914096720936E-05, 1.11875,294.658508300781
0.0568333633333333, 228.64503565775, -0.000124965473044966, 1.1325,296.930603027344
0.0574997516666667, 228.656083598744, -0.000456661812306175, 1.145,296.930603027344
0.0581665333333333, 228.668025488199, -0.000537573748215696, 1.15875,293.689575195313
0.0588331033333333, 228.678778031304, -0.000895956747029299, 1.17125,298.236145019531
0.0594999566666667, 228.690082914845, -0.000853711368942641, 1.185,293.048858642578
0.0601665183333333, 228.700039836508, -0.000692979442386729, 1.19875,354.589630126953
0.0608335083333333, 228.710923994939, -0.000387288796892565, 1.21125,354.589630126953
0.061499805, 228.721634720099, -0.000488386718843039, 1.225,299.600189208984
0.0621667316666667, 228.732498286482, -0.0003302076640253, 1.23875,296.018096923828
0.062833375, 228.742775835808, -0.000393808969421248, 1.25125,298.727416992188
0.0634997966666667, 228.753444962762, -0.000555658339912636, 1.265,293.943115234375
0.0641664616666667, 228.763160127952, -0.000672278982169187, 1.27875,293.943115234375
0.0648330916666667, 228.773091238567, -0.000323642493785773, 1.29125,296.306060791016
0.065500065, 228.782818559199, -0.000519420160059968, 1.305,297.501129150391
0.0661665566666667, 228.793035040417, -0.000515886337549523, 1.31875,298.951812744141
0.0668332683333333, 228.802274260605, -0.000354872425099529, 1.33125,297.3935546875
0.0674999383333333, 228.811707513638, -0.000386114355872273, 1.34375,297.3935546875
0.06816632, 228.820692969468, -0.000652608970122954, 1.35875,298.664245605469
0.0688331583333333, 228.830076351046, -0.000822419940749606, 1.37125,296.216400146484
0.0694998266666667, 228.838801123567, -0.00114933002038986, 1.385,297.318084716797
0.0701664516666667, 228.848074377849, -0.00122633615243065, 1.39875,293.004119873047
0.0708331533333333, 228.85716421131, -0.00135545866673502, 1.41125,293.004119873047
0.0714997216666667, 228.866723558459, -0.00155911693720545, 1.42375,293.515747070313
0.07216651, 228.875463938972, -0.00112842257051965, 1.4375,298.665771484375
0.0728333083333333, 228.884262174288, -0.00108409979683692, 1.45125,297.657897949219
0.0734998, 228.892938467252, -0.00113366180739541, 1.46375,299.742706298828
0.0741665066666667, 228.900979854344, -0.0011072826324307, 1.47625,299.742706298828
0.074833025, 228.908901080018, -0.000965929732438008, 1.49,297.902923583984
0.075500185, 228.916667934319, -0.00110214389055372, 1.50375,293.330261230469
0.0761664966666667, 228.924931946032, -0.00106541973515189, 1.51625,294.273651123047
0.0768332233333333, 228.932822409824, -0.00105119444968842, 1.53,355.474273681641
0.077499785, 228.940574764905, -0.000763157917459938, 1.5425,355.474273681641
0.0781664066666667, 228.948207995581, -0.000661821507465584, 1.55625,300.284698486328
0.078833085, 228.955629582003, -0.000232573068159571, 1.57,292.901062011719
0.0794998083333333, 228.962813585853, 0.000105043473677731, 1.5825,293.439300537109
0.080166355, 228.970096076335, 0.000107401355264735, 1.59625,304.879058837891
0.08083317, 228.977792530706, 4.78550952060628E-06, 1.60875,304.879058837891
0.0814997983333333, 228.985028122281, 0.00018254608075977, 1.6225,300.247924804688
0.0821664333333333, 228.992802842593, 0.000111130167926348, 1.635,304.932495117188
0.0828330566666667, 229.000059242697, -0.000266891344457257, 1.64875,299.06982421875
0.083499845, 229.0078727538, -0.000195119949455248, 1.6625,301.782806396484
0.0841664166666667, 229.016075419147, -0.00011486948029258, 1.67375,301.782806396484
0.0848330483333333, 229.025813733575, -0.000365964368059506, 1.6875,299.071716308594
0.0854998533333333, 229.035255376602, -0.000836919712485137, 1.7025,288.25537109375
0.0861663566666667, 229.044774048628, -0.000358119762091459, 1.715,288.114288330078
0.0868329916666667, 229.054101899062, -0.000176886865242385, 1.72875,281.618896484375
0.0875006433333333, 229.063047563359, -0.000339726185988702, 1.7425,281.618896484375
0.0881663233333333, 229.070353383953, -9.24186079988793E-05, 1.755,285.310852050781
0.08883298, 229.077774248093, 0.00028437296614026, 1.76875,284.949859619141
0.08949991, 229.085230873077, 0.000172270096951468, 1.7825,282.724487304688
0.0901663483333333, 229.092643889052, -0.000165923915908613, 1.79625,285.215087890625
0.0908335433333333, 229.099843478659, -2.73833746821299E-05, 1.80875,285.215087890625
0.09149976, 229.107053598628, -0.000178938762229869, 1.8225,282.777008056641
0.09216645, 229.114721937409, -0.000430770112985065, 1.835,291.484558105469
0.0928329766666667, 229.121915311927, -0.000904714807235233, 1.85,285.177551269531
0.093499795, 229.128674041732, -0.00068873615561229, 1.8625,345.936218261719
0.09416637, 229.13552107388, -0.000697983191131178, 1.875,345.936218261719
0.094833305, 229.142779408224, -0.000687422221601241, 1.89,285.384826660156
0.0954997233333333, 229.149711995534, -0.000609696125676846, 1.9025,285.445434570313
0.0961663783333333, 229.156871301081, -0.000391038608623349, 1.91625,286.401977539063
0.096833085, 229.163936325421, -0.000147641334190442, 1.93,284.814178466797
0.0975004716666667, 229.171158193068, 7.35645548917808E-05, 1.9425,284.814178466797
0.0981663716666667, 229.178072731202, -3.85683127850759E-05, 1.95625,285.778015136719
0.0988331566666667, 229.184838695279, 0.000116919877185629, 1.97,282.45556640625
0.099499695, 229.192395262781, 0.000235574417315572, 1.98375,284.002624511719
0.100166498333333, 229.199885040673, 0.000155142457321364, 1.99625,287.068359375
0.100833095, 229.207638147787, 0.000159076759689986, 2.01,287.068359375
0.10149968, 229.215236156801, 9.97487396628133E-05, 2.0225,279.738464355469
0.102167198333333, 229.222745767677, 2.6648411426976E-05, 2.03625,287.490753173828
0.102832978333333, 229.229692698752, 0.000181878614357812, 2.05,284.647979736328
0.103499655, 229.237201772681, 7.05422066666097E-05, 2.0625,278.841918945313
0.104166371666667, 229.244351685169, -0.000277071333082496, 2.07625,278.841918945313
0.104833321666667, 229.251544497491, -5.55459600598709E-05, 2.09,281.651672363281
0.10549998, 229.259009622665, -4.35060648132728E-05, 2.10375,286.578918457031
0.106166345, 229.266633819424, -0.000416984305371755, 2.11625,291.850769042969
0.10683297, 229.274203816758, -0.000673561417789022, 2.13,288.295013427734
0.107499818333333, 229.281264779171, -0.000792176959841972, 2.1425,288.295013427734
0.108166388333333, 229.288983259446, -0.000879909053160827, 2.15625,292.921173095703
0.108833041666667, 229.296001994968, -0.000790030567638336, 2.17,293.692749023438
0.109499693333333, 229.303284721799, -0.000387318795423138, 2.18375,289.277679443359
0.110166365, 229.311202831602, -0.000247453820693529, 2.1975,345.20703125
0.110833051666667, 229.319790402136, 0.000230290182728968, 2.20875,345.20703125
0.111499795, 229.328212482544, 0.000124164513264847, 2.22375,291.984710693359
0.112166376666667, 229.33696988822, 9.13971591189409E-05, 2.23625,288.888061523438
0.112833035, 229.345696664866, -8.1610150921151E-05, 2.25,286.886688232422
0.113499655, 229.354005094397, 2.30185936909609E-05, 2.26375,294.230285644531
0.11416639, 229.362432399934, -8.6891385658948E-05, 2.275,294.230285644531
0.114833231666667, 229.370999152861, -0.000129891225805461, 2.28875,291.393096923828
0.115499988333333, 229.380138978414, -0.000340387652778063, 2.3025,289.127685546875
0.116166373333333, 229.389136480482, -0.00012085417970303, 2.315,289.707366943359
0.116833031666667, 229.398749322281, -0.000130117714390353, 2.32875,291.256500244141
0.117499853333333, 229.408524263264, -0.00025684184919134, 2.34125,291.256500244141
0.118166416666667, 229.418961373429, -0.00052774024223388, 2.355,288.273864746094
0.118833141666667, 229.428843595437, -0.000313341011305124, 2.36875,285.920532226563
0.119499918333333, 229.440004145361, -0.000677453722316861, 2.38125,293.165100097656
0.12016632, 229.45086892858, -0.000564011420402166, 2.39375,285.13818359375
0.120833195, 229.462158206644, -0.000352823528130883, 2.4075,285.13818359375
0.121499801666667, 229.473186487072, -6.23706173061776E-05, 2.42125,286.096771240234
0.122166375, 229.484711661132, 0.000160849670568432, 2.43375,288.074676513672
0.12283302, 229.495658496781, 0.000178230797550212, 2.4475,291.168823242188
0.123500108333333, 229.507201510436, -0.000151749627853605, 2.46,293.998046875
0.124166363333333, 229.518226675379, -4.84700661242691E-06, 2.47375,293.998046875
0.124833043333333, 229.529204608669, 4.75468617295099E-05, 2.4875,296.423858642578
0.125499796666667, 229.5404124933, 0.000145322450552907, 2.5,297.189270019531
0.126166381666667, 229.551319435371, 0.000364555938683527, 2.51375,358.376190185547
0.126833086666667, 229.562841973179, 0.000640276589532705, 2.52625,287.424774169922
0.127499766666667, 229.574359246732, 0.000305905884614151, 2.54,287.424774169922
0.128166481666667, 229.585612048356, 0.000234921950051376, 2.55375,276.714965820313
0.128833323333333, 229.596735694329, 0.000394516933803348, 2.5675,281.936370849609
0.129499668333333, 229.608695190884, 0.00010012372082739, 2.58,273.509185791016
0.130166353333333, 229.619392190695, -0.000178736272329159, 2.595,276.195190429688
0.130833038333333, 229.630229805362, -0.000201911608258412, 2.60625,276.195190429688
0.1314997, 229.64095925615, -0.000300464158071476, 2.62,281.257568359375
0.13216653, 229.652266160018, -0.000580414596439226, 2.63375,278.262084960938
0.13283309, 229.663201900853, -0.000723694899608913, 2.6475,279.582397460938
0.13349965, 229.674306916731, -0.000477570762143294, 2.66,280.157531738281
0.134166338333333, 229.685784411521, -0.000481965541409987, 2.67375,280.157531738281
0.1348331, 229.697468908569, -0.000451607066302049, 2.6875,274.817626953125
0.13549973, 229.708730220091, -0.000489454665273207, 2.7,275.678497314453
0.136166385, 229.71980387637, -0.000464468920291665, 2.71375,273.126037597656
0.136833043333333, 229.730859601847, -0.000701890494881795, 2.7275,279.169097900391
0.137499905, 229.74160420597, -0.000663913902369448, 2.74,279.169097900391
0.13816641, 229.752396387959, -0.00061457988034151, 2.75375,275.998931884766
0.138833026666667, 229.763255311298, -0.00102829509989188, 2.7675,282.783660888672
0.13949999, 229.773899996163, -0.00123430525220919, 2.78125,282.964965820313
0.140166373333333, 229.784309299838, -0.00137734706735625, 2.795,278.367950439453
0.140833038333333, 229.794805472018, -0.001569086936478, 2.8075,278.367950439453
0.141499748333333, 229.805195433074, -0.00186173123725969, 2.82,275.287567138672
0.142166376666667, 229.815161442494, -0.00147797701282914, 2.83375,277.684112548828
0.142833116666667, 229.825676822624, -0.00131496820058275, 2.84875,342.186218261719
0.143499653333333, 229.836398668785, -0.00121903151939656, 2.86125,274.714141845703
0.144166356666667, 229.847162395409, -0.00136895198900468, 2.875,274.714141845703
0.144833165, 229.857938411477, -0.00130149287740593, 2.8875,289.823333740234
0.145500051666667, 229.86851837376, -0.00147921745050192, 2.90125,276.441589355469
0.146166388333333, 229.879000261321, -0.00146022390451034, 2.915,280.183715820313
0.146833036666667, 229.889368810029, -0.00128787956120527, 2.9275,273.819854736328
0.147499938333333, 229.899865894774, -0.00088912909006171, 2.94125,273.819854736328
0.148166378333333, 229.910122969397, -0.000724957836190251, 2.95375,275.859680175781
0.148833608333333, 229.920821477726, -0.000745893784602867, 2.9675,273.639526367188
0.149499886666667, 229.931051448412, -0.000407413286160509, 2.98125,275.112274169922
0.150166431666667, 229.941896339851, -0.000552088519259022, 2.995,266.262939453125
0.150833213333333, 229.95257909838, -0.000584198906388777, 3.0075,266.262939453125
0.151499746666667, 229.963439191774, -0.000662854955591969, 3.02,268.619873046875
0.152166338333333, 229.974113245137, -0.00047604533881264, 3.03375,263.125579833984
0.152833025, 229.985224758415, -0.000749654095719457, 3.0475,263.952850341797
0.153499973333333, 229.99605413619, -0.00109708164480005, 3.06,264.895782470703
0.154166356666667, 230.006791157709, -0.00120578418477154, 3.07375,264.895782470703
0.15483297, 230.017774247386, -0.00151465917030518, 3.08625,262.894805908203
0.155499736666667, 230.028291020281, -0.00171303620605906, 3.1,264.134857177734
0.15616642, 230.038706802825, -0.00156555011411874, 3.1125,268.950866699219
0.156833073333333, 230.048746419552, -0.00112801609098511, 3.12625,263.005462646484
0.157499668333333, 230.058943108876, -0.00119352830038962, 3.13875,263.005462646484
0.158166351666667, 230.069213271575, -0.00080991056912228, 3.1525,265.117401123047
0.158833068333333, 230.079813134904, -0.000494111931352979, 3.16625,264.750518798828
0.159499718333333, 230.090640057176, -0.000538863683542563, 3.17875,325.422027587891
0.160166456666667, 230.101686349654, -0.000276855343947173, 3.1925,264.168518066406
