Time (min), Depth (µm), Load (N), Position (µm), Acoustic (aJ)
7.7E-06, 227.74700846336, 0.000896326588459155, 0,295.383636474609
0.000666375, 227.746899410624, 0.000716394126301501, 0.00499999999999999,298.792205810547
0.001333765, 227.74697609198, 0.000548596054627849, 0.01625,298.451324462891
0.00199982166666667, 227.747163886845, 0.000340249019686436, 0.03125,302.40576171875
0.00266625833333333, 227.74737855111, 3.20415006397771E-05, 0.04625,305.944976806641
0.00333304333333333, 227.747547934566, 7.91166360700731E-05, 0.06,305.944976806641
0.003999725, 227.748596190123, 0.000261621469025651, 0.075,312.834930419922
0.00466647833333333, 227.749815548582, 0.000221982960040699, 0.08875,374.516967773438
0.005333185, 227.751728341933, 0.000216170751957878, 0.10375,323.516571044922
0.005999935, 227.754669889564, 0.000247303188206676, 0.11625,320.220184326172
0.00666625166666667, 227.759652589231, -6.27102401403165E-05, 0.12875,320.220184326172
0.0073331, 227.765549619623, -0.000187580468060065, 0.1425,325.411865234375
0.00799997166666667, 227.772782100325, -8.34241997199956E-05, 0.15875,323.221740722656
0.00883308833333333, 227.781915656788, -0.000259350363137671, 0.1725,322.817932128906
0.00949983166666667, 227.79224997239, -0.000510283259026537, 0.18625,333.076416015625
0.010166265, 227.803128180569, -0.000776258899348675, 0.2,334.928375244141
0.0108329066666667, 227.814432139262, -0.000720676191194059, 0.21375,334.928375244141
0.0115001433333333, 227.825873383313, -0.000736860378268244, 0.2275,330.241912841797
0.0121665083333333, 227.837129532162, -0.000665856944688227, 0.24,332.523956298828
0.0128331833333333, 227.848601986478, -0.000313646135899242, 0.25375,330.488403320313
0.0134998833333333, 227.859227771616, 3.85991711722711E-05, 0.2675,337.049713134766
0.01416625, 227.870597746895, -3.6057089554993E-06, 0.28,337.049713134766
0.0148344483333333, 227.881605251225, -0.000142875213590744, 0.29375,335.466552734375
0.0154996166666667, 227.893134858047, -3.2066779374505E-05, 0.30625,342.703979492188
0.0161662416666667, 227.90444785643, -0.000467326916708972, 0.32125,330.313720703125
0.0168329483333333, 227.916176257315, -0.000281411255044017, 0.335,339.644195556641
0.0174998433333333, 227.92792763571, -0.000296238010299458, 0.3475,339.644195556641
0.0181662733333333, 227.939825873943, -0.000313670134710949, 0.36375,338.651794433594
0.0189998666666667, 227.957387596635, -0.00014234124037566, 0.3775,338.935607910156
0.0196663266666667, 227.969552999385, -0.000576776419139556, 0.39,331.135833740234
0.02033336, 227.981879574802, -0.000758360298362755, 0.40375,336.224792480469
0.0209997116666667, 227.994272046774, -0.00102317649690863, 0.41875,403.053680419922
0.0216662933333333, 228.00676631658, -0.00116069858933778, 0.43,403.053680419922
0.022333045, 228.018774284002, -0.00117393242460066, 0.445,330.914398193359
0.02299972, 228.03057422738, -0.000590997204872319, 0.4575,339.863861083984
0.0236664366666667, 228.042780101473, -0.000752666584392808, 0.47125,333.61474609375
0.0243330283333333, 228.055018236195, -0.000508691839000885, 0.485,332.325531005859
0.0249998683333333, 228.067563060394, -0.000296926475749332, 0.50125,332.325531005859
0.0258331016666667, 228.08053227037, -0.000324603085599164, 0.51375,327.743682861328
0.0264997566666667, 228.093358777561, -0.000392948652669018, 0.5275,333.886840820313
0.0271663216666667, 228.106104473917, -0.000366570977564949, 0.54,330.854736328125
0.0278330583333333, 228.119097962373, -0.000523412099602441, 0.55375,331.897735595703
0.0284996366666667, 228.137633077196, -0.00096659933872588, 0.57,327.696685791016
0.0293329533333333, 228.149872571845, -0.000873208029698353, 0.58375,330.790771484375
0.0299997866666667, 228.162269032387, -0.000595472980035534, 0.59625,330.790771484375
0.0306664033333333, 228.173738072532, -0.000501460702198787, 0.61,333.450866699219
0.03133309, 228.185752919076, -5.54716037374565E-05, 0.62375,338.492492675781
0.03200013, 228.197483310985, 6.73692260821102E-05, 0.63625,328.720123291016
0.03266622, 228.209449574012, 6.86756604498888E-05, 0.65,328.622711181641
0.0333331966666667, 228.221450014295, -0.000145573578059795, 0.6625,328.622711181641
0.03399994, 228.234012353056, -8.88464273942071E-05, 0.67625,330.978088378906
0.0346662916666667, 228.245789828196, -0.000260793290668655, 0.68875,327.896484375
0.0353331916666667, 228.257766265491, -0.000341558233901639, 0.705,329.634490966797
0.0361662116666667, 228.269358738442, -0.00023603403425075, 0.71875,337.828796386719
0.0368332816666667, 228.281146209648, -0.000163037200777483, 0.7325,396.173309326172
0.03749991, 228.2922143338, -0.000159128397102462, 0.745,396.173309326172
0.0381662416666667, 228.303903400589, -6.3947677964291E-05, 0.75875,337.847290039063
0.03883306, 228.315774954603, -0.000162635221016156, 0.77125,335.937347412109
0.0394997483333333, 228.327041545874, -5.69490295084605E-05, 0.785,336.562835693359
0.0401662683333333, 228.338534533752, -0.000248228421732138, 0.79875,335.292510986328
0.040833235, 228.350236463338, -0.000390455777779451, 0.81125,335.292510986328
0.0414995466666667, 228.361630486358, -0.000688657299452903, 0.825,337.850555419922
0.042166275, 228.376691688524, -0.000592519628332913, 0.84,336.071746826172
0.0429996183333333, 228.386757981468, -0.000501843182921618, 0.85375,349.037536621094
0.0436662666666667, 228.396312338368, -0.000355113053029323, 0.8675,347.209045410156
0.0443331666666667, 228.405893420619, -0.000388142893988308, 0.88125,354.97705078125
0.0449997033333333, 228.415481909022, 2.12015450645639E-05, 0.89375,354.97705078125
0.04566628, 228.427386657724, 0.000107790695775596, 0.9075,351.871612548828
0.0463330316666667, 228.439531066676, -0.000246401513511412, 0.92,357.23779296875
0.0469998416666667, 228.451264972141, -0.000100155859265132, 0.93375,349.720275878906
0.0476662783333333, 228.463008432861, 0.000111877990475858, 0.9475,352.295745849609
0.0483330333333333, 228.475071300678, -0.000247931436657784, 0.96,352.295745849609
0.0489997083333333, 228.486795570584, -0.000338402392425833, 0.97375,354.641265869141
0.0496662833333333, 228.497866737746, -3.78909867887896E-05, 0.9875,354.148590087891
0.050332965, 228.509715982905, -0.000375252541498792, 1.00125,351.442779541016
0.0509995966666667, 228.521152077305, -0.00046894683531954, 1.015,353.567565917969
0.051666255, 228.532924562499, -0.000285357556807865, 1.0275,353.567565917969
0.0523329366666667, 228.54399910229, -0.000102335249826893, 1.04125,348.898864746094
0.052999735, 228.555526900736, 0.000170661537817124, 1.05375,349.117919921875
0.0536670116666667, 228.565902534112, 0.000641738376140673, 1.06875,415.800109863281
0.0543329683333333, 228.577046230488, 0.0009458975985003, 1.0825,348.213897705078
0.05499961, 228.587688880742, 0.00118252271304101, 1.095,348.213897705078
0.05566627, 228.599097512552, 0.000873230748480767, 1.10875,352.883361816406
0.0563330833333333, 228.610301365146, 0.000572002378830188, 1.1225,348.755920410156
0.0569996166666667, 228.621923430725, 0.000320558008634795, 1.135,349.828887939453
0.057666265, 228.632500684811, 0.000129527603904567, 1.14875,353.883361816406
0.0583329333333333, 228.643216846556, -0.000169359383327445, 1.16125,353.883361816406
0.0589996783333333, 228.65309688429, -0.000108930418596993, 1.175,353.762817382813
0.05966645, 228.663160392061, -0.000265522553098528, 1.18875,348.102813720703
0.0603329733333333, 228.673029065797, -0.000256149523887259, 1.2025,351.505798339844
0.0609995566666667, 228.682985828346, -0.000406699961872274, 1.215,349.42333984375
0.0616661916666667, 228.692561913125, -0.000479263317065475, 1.2275,349.42333984375
0.062332945, 228.701582781782, -0.000441255226183167, 1.2425,349.936096191406
0.062999605, 228.71006768301, 4.7828207640828E-05, 1.255,346.933959960938
0.06366646, 228.71871483222, 0.000109869591338576, 1.26875,350.999298095703
0.0643334466666667, 228.727062840292, 0.0002882871296364, 1.28125,356.308227539063
0.064999575, 228.735747871857, 0.000173950872607329, 1.295,356.308227539063
0.0656662333333333, 228.744682910702, 2.80622004327865E-05, 1.30875,351.568267822266
0.06633336, 228.753186738757, -0.000117160505179185, 1.32125,356.700744628906
0.0669997316666667, 228.761402897361, 0.000172515444698362, 1.335,350.770904541016
0.06766628, 228.769564815913, 0.000522347373001206, 1.34875,355.018310546875
0.0683329366666667, 228.777222602529, 0.00083121785876163, 1.36125,355.018310546875
0.0689995866666667, 228.785217302133, 0.000879062455538321, 1.375,349.433013916016
0.06966625, 228.792874027361, 0.000811016873391627, 1.3875,352.971038818359
0.070332955, 228.801357955306, 0.000446326691399619, 1.40125,417.316467285156
0.0709998, 228.808945809444, 0.000396601189038668, 1.415,353.390594482422
0.071666375, 228.817092484004, 0.000345518254880228, 1.4275,353.390594482422
0.0723331766666667, 228.824274246425, 0.000725285679588038, 1.44125,353.446563720703
0.0729996033333333, 228.831827358709, 0.000512812351911877, 1.45375,356.466064453125
0.0736662316666667, 228.838973656564, 0.000659266495671464, 1.4675,344.616729736328
0.0743329733333333, 228.846538510653, 0.00032855710688014, 1.48125,352.120452880859
0.0749995766666667, 228.853256246195, 0.000568722043650164, 1.49375,352.120452880859
0.0756662666666667, 228.860777489002, 0.000301180481995976, 1.5075,357.148529052734
0.0763329633333333, 228.8678156021, 0.000338392112913883, 1.52,352.199920654297
0.0769998066666667, 228.874596718334, 0.000415830223267835, 1.53375,349.432342529297
0.077666365, 228.882027668229, 0.000480257987116249, 1.54625,350.330688476563
0.078332895, 228.889635569345, 0.000130577551220643, 1.55875,350.330688476563
0.078999595, 228.896665156083, 0.000413539838321487, 1.5725,354.256988525391
0.0796663233333333, 228.904275700119, 0.000302659407712637, 1.58625,352.109283447266
0.0803330166666667, 228.910867650766, 0.000258828609297941, 1.59875,351.965515136719
0.080999615, 228.917875521634, 7.00660906480121E-05, 1.6125,355.950531005859
0.0816662433333333, 228.924268334706, 9.6547260535906E-05, 1.625,355.950531005859
0.0823332083333333, 228.931329670337, 9.91196313125752E-05, 1.63875,356.707489013672
0.0829995783333333, 228.938228390101, 0.000219931063095723, 1.65125,356.728393554688
0.0836663483333333, 228.946215181767, 0.000312902393247829, 1.665,354.203704833984
0.0843329583333333, 228.95508760028, 0.000402168909465012, 1.6775,358.436614990234
0.08499975, 228.964709497131, 0.000453194846496129, 1.69125,358.436614990234
0.08566629, 228.973687453836, 9.3472414977875E-05, 1.705,349.059783935547
0.0863329833333333, 228.982920394666, 5.41788886481806E-05, 1.71875,351.311859130859
0.086999665, 228.991327110921, -0.000198427923193532, 1.7325,419.028564453125
0.0876662916666667, 228.998386810665, -0.000260685296047858, 1.745,350.471984863281
0.0883329466666667, 229.004799151967, -0.000315161059801582, 1.75875,350.471984863281
0.08899972, 229.011701835553, -0.000259743343395087, 1.7725,348.354675292969
0.0896664233333333, 229.018335147393, -0.000188781907719615, 1.785,349.028961181641
0.0903330216666667, 229.025220964394, -7.43886535632212E-05, 1.79875,348.195098876953
0.0909996516666667, 229.03227116107, 7.45148671719682E-05, 1.8125,349.698486328125
0.0916662366666667, 229.039269979556, 0.000112114978574081, 1.825,349.698486328125
0.09233311, 229.045719315573, 9.3559410593264E-05, 1.83875,352.581695556641
0.0929995833333333, 229.052503864436, -0.000167272988078685, 1.8525,343.639739990234
0.09366631, 229.059253485722, -0.000327907419569639, 1.86625,346.686798095703
0.0943329966666667, 229.065315952883, -0.000384565573670169, 1.88,349.210632324219
0.0949997033333333, 229.072376265357, -0.000332260200910533, 1.8925,349.210632324219
0.0956663383333333, 229.079379993622, -0.000389347333496665, 1.905,352.420257568359
0.0963329366666667, 229.086110741321, -0.000216367022117086, 1.91875,349.020935058594
0.0969998016666667, 229.092501024204, 0.000136728742239854, 1.9325,357.223968505859
0.0976662933333333, 229.099643670694, 0.0001785196431048, 1.945,350.035491943359
0.0983332016666667, 229.106534885371, 9.63387709800909E-05, 1.95875,350.035491943359
0.0989999383333333, 229.113517772035, 0.000356739191338885, 1.9725,353.974456787109
0.0996662516666667, 229.121188903369, 0.000391228458976035, 1.98625,346.241394042969
0.100333016666667, 229.129538777935, -0.000127412490218289, 2,344.988891601563
0.100999701666667, 229.137614614003, -0.000141400787626038, 2.01375,348.910308837891
0.101666286666667, 229.145897663721, -0.000167923955418478, 2.02625,348.910308837891
0.102332968333333, 229.154707076285, -0.000342234699956287, 2.04,354.514434814453
0.102999588333333, 229.16289888258, -0.000611130693622921, 2.0525,349.617095947266
0.103666238333333, 229.171495867343, -0.000670205226340927, 2.06625,420.167510986328
0.104332975, 229.179493430116, -0.000784857967440339, 2.08,351.380981445313
0.104999608333333, 229.187996534353, -0.000787757321800681, 2.09375,351.380981445313
0.10566626, 229.196023167275, -0.000535633485701833, 2.10625,355.028289794922
0.106333098333333, 229.204345310506, -0.00044444856579031, 2.12,350.452606201172
0.106999578333333, 229.212320414702, 3.77502138537567E-05, 2.1325,351.386444091797
0.107666295, 229.221264904318, -4.62865750479156E-06, 2.14625,347.895446777344
0.108332995, 229.229533373072, 1.88256644059756E-05, 2.16,347.895446777344
0.108999743333333, 229.237929501702, -0.000255594551730529, 2.17375,358.104339599609
0.10966631, 229.245848171828, -7.8238960144007E-05, 2.18625,363.343902587891
0.110332998333333, 229.254201779861, -0.000446723951535134, 2.2,348.576080322266
0.110999881666667, 229.261709291153, -0.000125440089287939, 2.21375,353.039703369141
0.111667145, 229.269163479544, -8.66970353417648E-05, 2.22625,353.039703369141
0.112333723333333, 229.276902600749, -0.000164634620607018, 2.23875,361.510009765625
0.112999926666667, 229.284832592335, -0.000285329058244204, 2.2525,356.757995605469
0.11366636, 229.292857328142, -0.000420614762984264, 2.26625,357.487518310547
0.114333, 229.300966384976, -0.00052701191874412, 2.27875,354.113952636719
0.114999671666667, 229.308700969341, -0.000383136145501323, 2.2925,354.113952636719
0.115666308333333, 229.316859421813, -0.000309971320473638, 2.305,352.522521972656
0.116332921666667, 229.325041689715, -0.000328814873961135, 2.31875,360.601623535156
0.116999586666667, 229.332723116883, -0.000230602807072627, 2.3325,348.471160888672
0.117666271666667, 229.341021122617, -0.000341286747520887, 2.345,349.733245849609
0.118333113333333, 229.350229196088, -0.000895808894432379, 2.35875,349.733245849609
0.118999771666667, 229.358903893011, -0.000953043019652539, 2.37125,355.146179199219
0.119666281666667, 229.367700480255, -0.000982083061018727, 2.385,423.280456542969
0.120333061666667, 229.377442459757, -0.00119316145876606, 2.3975,353.182373046875
0.120999973333333, 229.387502934976, -0.00125910414655932, 2.41125,351.070861816406
0.121666351666667, 229.397381581519, -0.00126321394014689, 2.42375,351.070861816406
0.122333, 229.408047624873, -0.00138421736225365, 2.4375,357.587005615234
0.122999616666667, 229.418763936839, -0.00105253452231207, 2.45,351.880493164063
0.123666233333333, 229.429242589852, -0.000831076645887596, 2.465,357.863891601563
0.12433294, 229.439651872795, -0.000801544629232123, 2.4775,353.259735107422
0.124999678333333, 229.450170826074, -0.000762356097631911, 2.49,353.259735107422
0.125666368333333, 229.459738244755, -0.000379902307871531, 2.50375,355.358703613281
0.126332935, 229.470638774002, -0.000421846201089372, 2.51625,357.180236816406
0.126999603333333, 229.481591442835, -0.000389653318117438, 2.53,348.499786376953
0.127666366666667, 229.493015032435, -0.000353157151309917, 2.545,335.335998535156
0.128333178333333, 229.504101381914, -3.46556492983559E-05, 2.55625,335.335998535156
0.12900001, 229.516059008532, -5.86469442092516E-05, 2.57,332.344879150391
0.129666591666667, 229.527244515602, -9.52841039744404E-05, 2.58375,338.979888916016
0.130333443333333, 229.538457034043, -7.48151418737809E-06, 2.5975,334.665557861328
0.130999676666667, 229.549381408299, 0.000256001251351464, 2.61,340.21240234375
0.131666355, 229.560467573315, 0.000319530560354801, 2.62375,340.21240234375
0.132333038333333, 229.571133106646, 0.000297604661687257, 2.6375,340.888977050781
0.132999775, 229.58170728928, 0.000329677550685676, 2.65,344.911254882813
0.133666376666667, 229.592435576737, 0.000221594479599001, 2.66375,342.373474121094
0.134332928333333, 229.60278509629, 0.000133095924782557, 2.6775,341.202819824219
0.135000478333333, 229.613575011891, 0.000173566891917587, 2.69125,341.202819824219
0.135666258333333, 229.624485584695, 7.21509859511143E-05, 2.70375,338.517272949219
0.136332931666667, 229.635818000983, -0.000187098992199094, 2.71625,407.156555175781
0.136999608333333, 229.646456680142, 2.03225892367302E-05, 2.73125,344.9287109375
0.13766626, 229.657314985186, -0.000258939383723654, 2.74375,337.276275634766
0.13833291, 229.668305143873, -0.000413782606115941, 2.7575,337.276275634766
0.138999646666667, 229.679185109769, -0.000599551275146869, 2.77,338.802368164063
0.139666328333333, 229.690030228945, -0.000523652087485708, 2.78375,343.920257568359
0.140333108333333, 229.700641771265, -0.000586819914644098, 2.7975,336.888092041016
0.140999573333333, 229.711558287062, -0.000528186359785666, 2.81125,345.045043945313
0.141666291666667, 229.721914428241, -0.000586713419990213, 2.82375,345.045043945313
0.142333968333333, 229.73249838165, -0.000492477653353619, 2.8375,334.027984619141
0.142999565, 229.742605278349, -0.000640835201499752, 2.85125,339.216766357422
0.143666293333333, 229.75351133477, -0.000719887230809167, 2.865,343.131988525391
0.144333331666667, 229.763838856743, -0.000523122614086342, 2.87875,342.340759277344
0.144999576666667, 229.77501205188, -0.000550563735762354, 2.89125,342.340759277344
0.145667286666667, 229.785814740269, -0.00058423854432101, 2.90375,341.644256591797
0.146333426666667, 229.796655326547, -7.72640091543649E-05, 2.91875,336.462097167969
0.146999756666667, 229.807316549786, 8.12315297762239E-05, 2.93125,342.830413818359
0.147666433333333, 229.8179573329, 0.000101375517997649, 2.94375,334.680145263672
0.148332913333333, 229.827989101184, 0.000274255334463464, 2.9575,334.680145263672
0.148999621666667, 229.838440739319, 0.0004951987366901, 2.97125,336.508728027344
0.14966632, 229.849415011695, 0.000131435508085576, 2.985,332.930725097656
0.150332965, 229.860112708924, 0.000296914696227963, 2.9975,334.341156005859
0.15099996, 229.870980162282, 0.000404645285037365, 3.01,329.323150634766
0.151666341666667, 229.881886909112, 0.000419946016489252, 3.02375,329.323150634766
0.152333058333333, 229.892658650072, 0.000353118373213052, 3.03625,340.975555419922
0.153000028333333, 229.902935703038, 0.000526143682367237, 3.05,403.139495849609
0.153666285, 229.913682069481, 0.000519824499793607, 3.06375,330.097747802734
0.154332928333333, 229.92435190933, 0.000495960698456988, 3.0775,332.587921142578
0.154999641666667, 229.935162158378, 0.000339713546546948, 3.09,332.587921142578
0.155666263333333, 229.946186182135, 0.000257928654549715, 3.10375,326.944122314453
0.156333371666667, 229.956937230467, 4.01680924168903E-05, 3.11625,332.858428955078
0.156999586666667, 229.967456694317, -0.000125680077213714, 3.13,331.764617919922
0.157666255, 229.977901245333, -0.000130764821812176, 3.14375,328.575439453125
0.158333018333333, 229.987993817969, -3.26322508957873E-05, 3.15625,328.575439453125
0.158999818333333, 229.998189631394, -0.000128951412932334, 3.16875,326.314758300781
0.159666495, 230.008591762611, 6.13350291876073E-05, 3.1825,334.992492675781
0.160333111666667, 230.018783040591, -3.15208067641946E-05, 3.195,331.669403076172
