Time (min), Depth (µm), Load (N), Position (µm), Acoustic (aJ)
7.45666666666667E-06, 227.874295511615, -0.00100043269612291, 0,237.580795288086
0.000663018333333333, 227.874136948353, -0.000779682784123038, 0.00499999999999999,234.477569580078
0.00132944166666667, 227.874876514012, -0.000864130042424898, 0.01625,240.33984375
0.001996365, 227.875587100083, -0.00098481398059126, 0.03,244.08430480957
0.002662845, 227.87665073672, -0.000966805885102648, 0.04625,244.08430480957
0.00332989, 227.877613419721, -0.00105462497405815, 0.06,245.924896240234
0.00399635166666667, 227.878868962972, -0.0011533725141074, 0.07375,253.954284667969
0.00466461333333333, 227.879456019873, -0.00114356300685227, 0.08875,248.861190795898
0.00532936333333333, 227.880631954272, -0.00118256254795642, 0.1025,208.483810424805
0.005996605, 227.882858220985, -0.00125686731570061, 0.11625,208.483810424805
0.00666284333333333, 227.88645473416, -0.000976231411731794, 0.12875,265.913238525391
0.00732936, 227.891364753221, -0.00116422896882979, 0.1425,269.262969970703
0.00799666166666667, 227.898459978196, -0.00101550993881746, 0.15625,272.626953125
0.00866277166666667, 227.907378276123, -0.000681344723563403, 0.17,271.306213378906
0.00932937333333333, 227.917546032963, -0.000816132453295311, 0.18375,271.306213378906
0.00999651166666667, 227.928339248479, -0.000877488371455755, 0.19625,274.005401611328
0.0106628916666667, 227.940118202722, -0.000564661084439406, 0.20875,317.248931884766
0.0113293633333333, 227.951830053006, -0.000828481333032743, 0.22625,266.135620117188
0.0121630016666667, 227.96323337324, -0.000797452391589024, 0.24,270.723114013672
0.0128293716666667, 227.974636386246, -0.000655094542054864, 0.25375,265.390441894531
0.0134964066666667, 227.986731151541, -0.000726105475256898, 0.2675,265.390441894531
0.0141628266666667, 227.999126627413, -0.00107177061288736, 0.28,274.747985839844
0.0148294016666667, 228.011632402437, -0.00100688237214088, 0.2925,270.092376708984
0.0154960616666667, 228.023929399114, -0.00150903164975835, 0.30625,270.90478515625
0.016163205, 228.036304450689, -0.00146676977254576, 0.32,260.881622314453
0.0168293966666667, 228.047887826318, -0.00150395290487875, 0.33375,260.881622314453
0.0174963333333333, 228.059599945575, -0.0013305796132205, 0.34625,273.911468505859
0.018163135, 228.070756593857, -0.00122492642009219, 0.36,271.996948242188
0.0188293766666667, 228.082534760283, -0.000877405875656084, 0.37375,272.785705566406
0.0194967416666667, 228.094419789316, -0.000939441259698727, 0.3875,266.628845214844
0.0201630666666667, 228.106050977608, -0.000552031718859819, 0.4,266.628845214844
0.0208294066666667, 228.117707811585, -0.000461718255217876, 0.41375,270.417602539063
0.0214962566666667, 228.129909882223, -0.000379580880900861, 0.4275,275.466339111328
0.0221627466666667, 228.14197943825, -0.000554899574807693, 0.44125,277.015075683594
0.0228295016666667, 228.15412043305, -0.000838707819420753, 0.45375,271.382232666016
0.02349643, 228.166702305543, -0.00132905118999853, 0.4675,271.382232666016
0.0241630516666667, 228.179049401265, -0.00148452438074646, 0.48,268.876739501953
0.0248294366666667, 228.191329943829, -0.00152611879147207, 0.495,264.158538818359
0.0256631416666667, 228.209916355638, -0.00112084964770298, 0.51,262.888580322266
0.0263293483333333, 228.222062684787, -0.000960839184870054, 0.52375,270.726623535156
0.02699623, 228.234204131721, -0.000605837016235255, 0.53625,326.2578125
0.02766286, 228.247044941258, -0.000847459879759041, 0.55,261.016418457031
0.0283300466666667, 228.259910195378, -0.000908719802736422, 0.56375,261.016418457031
0.0289963666666667, 228.272545296741, -0.00120783627846589, 0.57625,260.931182861328
0.0296628383333333, 228.285294505589, -0.00144507036246311, 0.59,262.299377441406
0.0303294166666667, 228.298169881623, -0.00185706066863092, 0.60375,260.610382080078
0.0309961616666667, 228.310304926206, -0.00162110902025354, 0.61625,260.610382080078
0.0316627083333333, 228.322720651798, -0.00191620719776279, 0.63125,257.195709228516
0.0323307916666667, 228.335355281976, -0.00181440581116092, 0.6425,265.183349609375
0.032996265, 228.347837431914, -0.00163869113712661, 0.655,260.795166015625
0.0336626783333333, 228.360266778464, -0.00157456635805016, 0.67,257.041625976563
0.034329435, 228.373041346932, -0.00188182442480078, 0.6825,257.041625976563
0.0349969083333333, 228.385389332978, -0.00187899256703858, 0.695,260.028137207031
0.035662775, 228.397408105196, -0.00198878255241498, 0.70875,267.1162109375
0.03632937, 228.408962213198, -0.0019233543387983, 0.72125,263.988922119141
0.0369962783333333, 228.42045291811, -0.00157241096630011, 0.735,262.761810302734
0.0376628183333333, 228.431924508422, -0.00122688082188719, 0.74875,262.761810302734
0.0383295933333333, 228.442987461397, -0.000849079798475879, 0.765,261.661743164063
0.0391628933333333, 228.454630049609, -0.000789027314834408, 0.7775,258.769226074219
0.0398293433333333, 228.466160681486, -0.000663330628462194, 0.79125,207.242324829102
0.0404963833333333, 228.477728019461, -0.000872096142418387, 0.80375,261.066955566406
0.0411628716666667, 228.489179223136, -0.000823399588389358, 0.8175,263.980285644531
0.0418295833333333, 228.50065638548, -0.000833929059506826, 0.83,263.980285644531
0.0424971083333333, 228.510253205741, -0.000878035844054231, 0.84375,269.919097900391
0.04316352, 228.520065235694, -0.00104555942951958, 0.8575,218.66716003418
0.0438294633333333, 228.529717210962, -0.000836106950101676, 0.87,332.947052001953
0.0444962466666667, 228.539866784621, -0.00105342503442927, 0.88375,285.597900390625
0.0451630366666667, 228.549686724237, -0.00110727232975176, 0.8975,274.240447998047
0.045829405, 228.561513714755, -0.000960620195970941, 0.91,274.240447998047
0.0464962433333333, 228.573476099471, -0.000794253052433047, 0.92375,287.874206542969
0.0471636933333333, 228.58588380814, -0.00103115115327892, 0.9375,281.477233886719
0.04782935, 228.59819515622, -0.00115342801141659, 0.95,280.788146972656
0.04849627, 228.610721139057, -0.00135701278557, 0.965,280.788146972656
0.0491634966666667, 228.622298895757, -0.00129616234199722, 0.9775,276.627868652344
0.0498297616666667, 228.634461178659, -0.00118812576856704, 0.99125,282.345916748047
0.0504961866666667, 228.645807668554, -0.000927783845302485, 1.00375,287.964324951172
0.0511628483333333, 228.657606527426, -0.000661806705034689, 1.0175,285.382354736328
0.05182964, 228.668827733432, -0.000328632939981222, 1.03125,285.382354736328
0.052496605, 228.681214760561, -0.000718932835655306, 1.04375,283.024536132813
0.0531630516666667, 228.692546154391, -0.000794679030984826, 1.0575,282.420776367188
0.053829435, 228.703632223091, -0.000683260127430191, 1.07,284.933685302734
0.0544962083333333, 228.714311705154, -0.000546293007157775, 1.08375,283.505187988281
0.055162775, 228.725600541406, -0.000582732176880479, 1.09875,283.505187988281
0.055829585, 228.736105622612, -0.000277232021828037, 1.11125,278.557373046875
0.0564969633333333, 228.747186115908, -0.000460333824823636, 1.125,273.042846679688
0.05716346, 228.758456403469, -0.000908176830123697, 1.13875,272.360687255859
0.0578296966666667, 228.769731549269, -0.00143511236271331, 1.15125,275.661376953125
0.0584962183333333, 228.780250042981, -0.00150825318888679, 1.165,275.661376953125
0.0591635716666667, 228.79065804725, -0.00151380441008093, 1.1775,278.767791748047
0.0598294133333333, 228.800933497823, -0.00141554884536348, 1.19125,334.373382568359
0.0604961033333333, 228.811351463979, -0.00135982514435746, 1.205,287.289642333984
0.0611635533333333, 228.821137642524, -0.00142286847774787, 1.21875,286.754669189453
0.0618293783333333, 228.831347611593, -0.00166288192213192, 1.23125,285.568206787109
0.0624966533333333, 228.841285643108, -0.00198104144129452, 1.245,285.568206787109
0.0631635066666667, 228.851110119952, -0.00231384322503222, 1.25875,280.872039794922
0.0638293516666667, 228.860450484338, -0.00245242876401205, 1.27125,282.901184082031
0.064496815, 228.86968887985, -0.00227733655871136, 1.285,283.384490966797
0.0651634783333333, 228.87855777957, -0.00213730209248168, 1.29875,283.384490966797
0.06582969, 228.887471207857, -0.00214409225144546, 1.31125,285.799865722656
0.0664964383333333, 228.895818389427, -0.00188790661938246, 1.325,283.525604248047
0.0671634283333333, 228.904761496968, -0.00179793963834143, 1.33875,279.066223144531
0.0678293633333333, 228.91319081243, -0.00154083905224366, 1.35125,291.372344970703
0.0684967833333333, 228.92182502657, -0.00120858924081389, 1.365,291.372344970703
0.06916341, 228.930044202372, -0.000936327416212482, 1.3775,287.733001708984
0.0698294533333333, 228.938630475171, -0.000804487038400565, 1.39125,281.274780273438
0.0704971733333333, 228.946841975639, -0.000578863871206854, 1.40375,277.795806884766
0.07116306, 228.955370547498, -0.000955298463274256, 1.4175,288.556274414063
0.07182941, 228.963803905785, -0.00120959419024909, 1.43125,288.556274414063
0.0724964316666667, 228.972466921844, -0.00127771026886399, 1.44375,281.716674804688
0.0731635116666667, 228.980581719981, -0.00138019862099133, 1.45625,281.295654296875
0.073829715, 228.988257360914, -0.0012433859929112, 1.47,275.171478271484
0.0744969083333333, 228.995868653079, -0.00102351803665173, 1.48375,284.80908203125
0.0751634916666667, 229.00329241641, -0.000717239420685217, 1.4975,284.80908203125
0.075831035, 229.010496263487, -0.000589997811901344, 1.50875,278.198394775391
0.0764976733333333, 229.01792220591, -0.00075187118116193, 1.52375,337.233489990234
0.0771636416666667, 229.025487344937, -0.000887824352410219, 1.53625,279.710388183594
0.077830865, 229.032748944547, -0.000742724640620569, 1.55,281.422454833984
0.0784964066666667, 229.040152345266, -0.00107405649816677, 1.5625,286.083923339844
0.07916297, 229.047318248995, -0.00127772676803242, 1.575,286.083923339844
0.0798293933333333, 229.054104520626, -0.00119673833599959, 1.58875,284.341247558594
0.0804969566666667, 229.060820845839, -0.00142887717588501, 1.6025,282.515869140625
0.0811629216666667, 229.06815688976, -0.0021649397041695, 1.615,289.301635742188
0.0818297133333333, 229.075070093183, -0.00210552618849385, 1.63,289.301635742188
0.0824961716666667, 229.08246769233, -0.00221646511611192, 1.64125,288.464874267578
0.0831630483333333, 229.089772507464, -0.00230318626017044, 1.655,282.939422607422
0.0838293916666667, 229.097808551619, -0.0023817163157025, 1.66875,289.064422607422
0.0844962083333333, 229.106437939157, -0.00210913200733314, 1.68,287.502868652344
0.0851627433333333, 229.115029067487, -0.002031312916117, 1.695,287.502868652344
0.0858294183333333, 229.123797785832, -0.00156810318267006, 1.70875,291.220153808594
0.0864977566666667, 229.13288183715, -0.00156910513236272, 1.72125,284.251861572266
0.0871629366666667, 229.141277972165, -0.00141986712842184, 1.735,287.23876953125
0.0878300683333333, 229.148472449853, -0.00127402645387071, 1.74875,277.856170654297
0.0884964016666667, 229.156226019521, -0.00163461284197276, 1.7625,277.856170654297
0.0891634466666667, 229.163308742281, -0.00193270486912227, 1.775,278.869354248047
0.0898296166666667, 229.170434317877, -0.00197897904483621, 1.78875,285.082397460938
0.0904960633333333, 229.177093778371, -0.00190722264909949, 1.8025,281.795104980469
0.091163045, 229.184539421498, -0.00164315941268906, 1.815,279.886322021484
0.0918293533333333, 229.191246488805, -0.0012071508129711, 1.82875,279.886322021484
0.0924961916666667, 229.198502909834, -0.00130766226439488, 1.84125,277.306884765625
0.0931631933333333, 229.20534726605, -0.00112141061959983, 1.855,335.513610839844
0.0938293766666667, 229.21255940096, -0.00147893116171153, 1.86875,285.715942382813
0.0944975083333333, 229.219445673923, -0.00157262695547794, 1.8825,280.288848876953
0.0951629616666667, 229.22662317656, -0.00180712517683226, 1.895,280.288848876953
0.0958296583333333, 229.233649394373, -0.00182069349532208, 1.90875,282.577789306641
0.0964964266666667, 229.240653079433, -0.00158865215052287, 1.9225,278.744415283203
0.0971626683333333, 229.247789141813, -0.0013350913866119, 1.935,282.139862060547
0.0978293916666667, 229.254876532739, -0.00117827576331052, 1.94875,278.070220947266
0.0984963, 229.261932077049, -0.00097422601254959, 1.9625,278.070220947266
0.0991634333333333, 229.26905215715, -0.000998164810127626, 1.975,279.246490478516
0.09982946, 229.276356439295, -0.00130856371911002, 1.98875,287.558410644531
0.100496138333333, 229.283700613596, -0.00120244854915923, 2.0025,280.826568603516
0.101162865, 229.291308502894, -0.00133696929228359, 2.01625,277.656646728516
0.101829678333333, 229.299333974853, -0.0011622115701886, 2.03,277.656646728516
0.10249663, 229.307070534731, -0.000855619469979297, 2.0425,283.226013183594
0.103162885, 229.315574157829, -0.000802061660151653, 2.05625,290.365478515625
0.103829418333333, 229.324047671988, -0.000839690270096174, 2.06875,278.220123291016
0.104496238333333, 229.332322932166, -0.0008019701647418, 2.0825,282.096099853516
0.105163535, 229.340605188469, -0.00103500145977469, 2.0975,282.096099853516
0.10582981, 229.349002874035, -0.00130091260334748, 2.10875,283.859313964844
0.106496233333333, 229.357251358855, -0.000851515676110598, 2.1225,284.429992675781
0.107162796666667, 229.365438855332, -0.000860036748154547, 2.13625,280.662048339844
0.107829931666667, 229.373786601126, -0.000635004551303244, 2.15,280.292205810547
0.10849628, 229.382771543257, -0.000402892710035827, 2.16375,280.292205810547
0.109163013333333, 229.391762401168, -0.000152715776152474, 2.175,285.779205322266
0.109829351666667, 229.400118895145, -0.000724658048037722, 2.19,346.782928466797
0.110496178333333, 229.409174136593, -0.000972495099448164, 2.20375,292.726013183594
0.111163, 229.418465468013, -0.00152336642976701, 2.21625,288.034393310547
0.111830808333333, 229.426655679752, -0.00183883658404949, 2.23,288.034393310547
0.112496231666667, 229.435025484391, -0.00196321633660436, 2.2425,290.312530517578
0.11316339, 229.444119862946, -0.00194214389507105, 2.255,290.876953125
0.113829571666667, 229.452484195528, -0.00155762770891612, 2.26875,281.597198486328
0.114496283333333, 229.460234303203, -0.00121994667026572, 2.2825,288.786163330078
0.115163045, 229.46853079006, -0.000884413523764604, 2.295,288.786163330078
0.11582967, 229.477355734743, -0.000979576243831191, 2.30875,287.551635742188
0.116496253333333, 229.485417362473, -0.000744401556400968, 2.32125,277.962280273438
0.117162836666667, 229.494205175285, -0.000917038385028439, 2.335,285.357940673828
0.117829708333333, 229.502908859172, -0.00120682532935434, 2.34875,278.809112548828
0.118496201666667, 229.511781552586, -0.00143186952557961, 2.36125,278.809112548828
0.11916291, 229.520616905506, -0.00150086306009794, 2.375,282.265441894531
0.119829923333333, 229.529850172438, -0.00183369484230245, 2.3875,283.953125
0.12049617, 229.538858525093, -0.0017271416943834, 2.40125,287.166564941406
0.121162906666667, 229.548323262694, -0.00145548883919599, 2.415,276.942443847656
0.121830876666667, 229.557961243172, -0.00157316692836938, 2.42875,276.942443847656
0.122496171666667, 229.567912785492, -0.0014527919746726, 2.44,280.8916015625
0.123163466666667, 229.577703179826, -0.0010120286137674, 2.45375,281.341156005859
0.123829391666667, 229.587641655891, -0.00090788734467136, 2.4675,288.505981445313
0.1244969, 229.598623934693, -0.00120996017186724, 2.48,287.162963867188
0.125163068333333, 229.609144238664, -0.000988859277535756, 2.49375,287.162963867188
0.12582942, 229.619757603136, -0.00103136864233864, 2.50625,283.676452636719
0.126496181666667, 229.63092856407, -0.00131962716342132, 2.51875,345.378448486328
0.127163455, 229.642996696234, -0.00136710427869796, 2.5325,282.467895507813
0.127829446666667, 229.654288247326, -0.000823893063603046, 2.54625,270.618377685547
0.128496393333333, 229.666262544182, -0.000689457816148411, 2.56,270.618377685547
0.129163135, 229.677990360889, -0.000539069369977693, 2.5725,277.026062011719
0.129829376666667, 229.690039470055, -0.00041251322675238, 2.58625,272.820983886719
0.130496785, 229.70151043851, -0.000803036611162549, 2.6,273.749938964844
0.131162918333333, 229.713195700364, -0.00101864178156657, 2.61375,276.865905761719
0.13182941, 229.723967669731, -0.000989736733417933, 2.62625,276.865905761719
0.132496483333333, 229.735217182468, -0.00100572293044963, 2.64,278.403442382813
0.133163115, 229.746225459811, -0.000990936673131826, 2.65375,278.641052246094
0.133829503333333, 229.757439190981, -0.000711686699566668, 2.66625,273.679290771484
0.134496271666667, 229.768834894238, -0.000909093284019104, 2.68,278.076263427734
0.135163453333333, 229.780598745126, -0.00127350747989966, 2.69375,278.076263427734
0.135829975, 229.791822379062, -0.00140555334735482, 2.70625,278.994079589844
0.136496808333333, 229.802919866739, -0.00126917269763035, 2.72,277.931488037109
0.13716305, 229.813614133875, -0.0011865463478516, 2.73375,274.732330322266
0.137829513333333, 229.824142264367, -0.000875482972252296, 2.7475,276.59814453125
0.138496281666667, 229.835081580731, -0.000716813442090929, 2.76125,276.59814453125
0.139163486666667, 229.846310469208, -0.000606628976532716, 2.77375,272.096069335938
0.13982966, 229.857446541711, -0.000744883032176922, 2.7875,277.676422119141
0.140496208333333, 229.868314801581, -0.000740086273063886, 2.80125,273.596313476563
0.141163595, 229.879202212884, -0.000737716392124165, 2.81375,274.949951171875
0.141829743333333, 229.890180318272, -0.000605255045503028, 2.8275,274.949951171875
0.142496045, 229.901131222866, -0.00080857733282211, 2.84125,332.182403564453
0.143162873333333, 229.912725619445, -0.000681376221997125, 2.85375,279.915618896484
0.143829651666667, 229.923880645221, -0.000593566132630555, 2.8675,276.296813964844
0.144496905, 229.935533582692, -0.0007059239889679, 2.88125,281.092041015625
0.14516337, 229.94675126337, -0.000919265773022326, 2.89375,281.092041015625
0.145829316666667, 229.95790868361, -0.00095622841642553, 2.90625,272.487945556641
0.146496258333333, 229.968347889789, -0.00122300201665773, 2.92,273.399291992188
0.147163413333333, 229.979756088652, -0.00136432641808675, 2.93375,270.898284912109
0.147829476666667, 229.990608522101, -0.00161305592468717, 2.9475,274.976989746094
0.148496306666667, 230.001940668123, -0.00153148852172841, 2.96,274.976989746094
0.14916348, 230.013124551754, -0.00146291946592247, 2.97375,271.9287109375
0.149829381666667, 230.024546147158, -0.00109484545390285, 2.9875,265.218078613281
0.150496225, 230.035703055948, -0.000943678546839316, 3,263.601104736328
0.15116306, 230.047024354978, -0.000843186594454029, 3.01375,271.303955078125
0.151829695, 230.057840769057, -0.00080012375744007, 3.0275,271.303955078125
0.152496246666667, 230.068639056001, -0.000771193210597828, 3.04,268.031829833984
0.153163468333333, 230.079840732661, -0.00118832825834023, 3.05375,267.673461914063
0.15382979, 230.090742354747, -0.00113580389657521, 3.06625,262.251403808594
0.15449665, 230.101389570739, -0.00116711032411855, 3.08,267.910583496094
0.155162873333333, 230.112299257164, -0.0012706471235738, 3.09375,267.910583496094
0.155829661666667, 230.123335042041, -0.00135829372120167, 3.105,272.184539794922
0.156496226666667, 230.133830258886, -0.00151386590696021, 3.11875,271.839294433594
0.157163053333333, 230.144649595493, -0.00166459933578619, 3.1325,276.580139160156
0.157829715, 230.155471050703, -0.00162191147993681, 3.145,271.196716308594
0.158496311666667, 230.166304499981, -0.0014729284632295, 3.16,271.196716308594
0.1591635, 230.177580693769, -0.00146099506261553, 3.17125,324.103363037109
0.15982939, 230.188466711919, -0.00125288651569674, 3.185,259.769805908203
0.1604962, 230.199297797689, -0.00114310253003922, 3.19875,266.295837402344
