Time (min), Depth (µm), Load (N), Position (µm), Acoustic (aJ)
8.28E-06, 228.012389108233, -0.000304089222536409, 0,158.391647338867
0.00066678, 228.01224065733, -9.17538879266014E-05, 0.00499999999999999,160.141876220703
0.00133288666666667, 228.012442729342, 0.000177791573091659, 0.01625,159.877288818359
0.001999, 228.012995258576, 0.000459570419604538, 0.03125,170.81689453125
0.00266558333333333, 228.014522370694, 0.000477517018150108, 0.04875,170.81689453125
0.00350111833333333, 228.014899464595, 0.000615855069560897, 0.06375,193.120101928711
0.00416578666666667, 228.015940972504, 0.000461854804832019, 0.07875,193.120101928711
0.00483222166666667, 228.016835092141, 0.000342525298635594, 0.0925,198.145767211914
0.00549891666666667, 228.018395721455, 0.000152294353718573, 0.10625,199.284423828125
0.00616595166666667, 228.020735697368, -5.01264789066264E-05, 0.12,214.386749267578
0.00683373, 228.025624791138, -6.27588443562736E-05, 0.13375,217.091690063477
0.00749904166666667, 228.031436334847, 0.000404376191934129, 0.14625,217.091690063477
0.00816562, 228.039034341051, 0.000320956382018533, 0.16,223.814102172852
0.008832565, 228.047458347275, 0.000427877011522651, 0.1725,218.668579101563
0.00949902, 228.057106240045, 0.000698229432018643, 0.18625,222.305206298828
0.0101659333333333, 228.066663684854, 0.000387362546516164, 0.2,263.359466552734
0.0108322633333333, 228.076960812241, -4.16144064090972E-05, 0.2125,263.359466552734
0.011499185, 228.087532050548, -1.07669558606804E-05, 0.22625,222.255462646484
0.01216577, 228.098832733026, -0.000135578686707448, 0.24,220.783905029297
0.0128322, 228.110743075172, -0.000577015513797235, 0.25375,222.82975769043
0.01350037, 228.122234443842, -0.000407657520467893, 0.2675,220.146621704102
0.0141657516666667, 228.133910440527, -0.000464680156262176, 0.28,220.146621704102
0.0148322616666667, 228.144758219436, -0.000302152819876754, 0.29375,215.318695068359
0.0154990183333333, 228.155995281674, -0.000220439924208369, 0.3075,219.421295166016
0.0161656866666667, 228.167228180647, -0.00013174337934944, 0.32125,219.265121459961
0.0168323783333333, 228.178782293684, -0.000233024292140874, 0.33375,225.581451416016
0.0174990883333333, 228.190388053328, -0.000226532618218361, 0.34625,225.581451416016
0.0181658183333333, 228.202649678117, -0.000283714246041899, 0.36,223.795394897461
0.0188322866666667, 228.214339558477, -0.000453936195955042, 0.37375,221.910049438477
0.0194989216666667, 228.225780521402, -0.000412602772075598, 0.3875,227.317169189453
0.020165955, 228.23728615319, -0.000467249527190039, 0.40125,216.554275512695
0.0208322483333333, 228.248733508901, -0.000512680745198061, 0.41375,216.554275512695
0.0215005816666667, 228.260308791844, -0.00056848394226121, 0.4275,220.427536010742
0.02216562, 228.271812882609, -0.000601911263272074, 0.44,221.523147583008
0.0228323466666667, 228.283603540821, -0.000353111260224707, 0.45375,224.216827392578
0.0234996033333333, 228.295554967458, -0.000342299803276918, 0.46875,230.365036010742
0.0241655933333333, 228.307109495153, -6.63151657115126E-05, 0.48,230.365036010742
0.0248322466666667, 228.318804528255, -0.000199740963851468, 0.49375,219.965927124023
0.0254991383333333, 228.330701659935, -0.000362311798087094, 0.50625,219.556442260742
0.02616559, 228.342536026585, -0.000463856697594755, 0.52,216.266220092773
0.02683291, 228.354300687675, -0.000523496701961568, 0.53375,257.396209716797
0.0274990133333333, 228.366387556179, -0.000575041612921228, 0.54625,257.396209716797
0.0281656083333333, 228.37857127136, -0.000596058557272874, 0.56,210.456848144531
0.028832245, 228.390702069944, -0.000378498985052593, 0.57375,212.681976318359
0.02949906, 228.402730944528, -0.000563811677001168, 0.58625,209.03254699707
0.0301656266666667, 228.41482509928, -0.000631357784257815, 0.6,207.01789855957
0.0308328783333333, 228.426398062531, -0.000550667837181231, 0.6125,207.01789855957
0.0314989833333333, 228.438017644174, -0.000414962153523242, 0.62625,208.760650634766
0.032166205, 228.448982707488, -0.000283016781003097, 0.64,207.53987121582
0.0328326116666667, 228.459849567272, 1.94745251863121E-05, 0.6525,208.66584777832
0.0334989083333333, 228.470940615291, 0.000281809848365375, 0.66625,202.238433837891
0.0341656416666667, 228.482133265146, 0.000289375468330653, 0.67875,202.238433837891
0.0348329433333333, 228.493267127839, 0.000275033188721226, 0.6925,207.666946411133
0.0354997866666667, 228.504890601203, 0.000147412098978313, 0.705,203.514739990234
0.0361658683333333, 228.515759963068, 0.00015789207256922, 0.71875,208.824295043945
0.0368322066666667, 228.527407639342, 7.46087557955747E-05, 0.73125,208.012069702148
0.037499555, 228.539103061262, -0.000186628622507762, 0.745,208.012069702148
0.0381656133333333, 228.550556624907, -0.000183237292836881, 0.7575,207.349868774414
0.0388322883333333, 228.562171647398, -0.000169084003744773, 0.77125,211.553573608398
0.0394991816666667, 228.573885748455, -0.000417255538318397, 0.785,214.766479492188
0.040165585, 228.584948925658, -0.000416793561538431, 0.79875,213.376037597656
0.0408324266666667, 228.595827386145, -0.000502170773097835, 0.81125,213.376037597656
0.0414991883333333, 228.606453760453, -0.000436936049792944, 0.82375,211.683013916016
0.04216568, 228.615717318985, -0.000476700552470278, 0.83625,217.737182617188
0.0428322516666667, 228.624713290674, -0.00035639759518736, 0.85125,222.749221801758
0.043499065, 228.633455201542, -0.000197030600029699, 0.865,278.196838378906
0.0441662816666667, 228.643171156451, -0.000190117447264855, 0.8775,278.196838378906
0.0448322916666667, 228.652637069399, -0.000268951987450781, 0.89,234.309585571289
0.0454989216666667, 228.663828142875, -0.000336363101404864, 0.90375,238.183029174805
0.0461656933333333, 228.675639166306, -0.000439997395967584, 0.9175,242.756927490234
0.04683277, 228.687236367503, -0.000543819181101964, 0.93125,238.692810058594
0.0474990383333333, 228.698219751154, -0.000226027143481922, 0.94375,238.692810058594
0.048165855, 228.709692295977, -0.000189815962353529, 0.9575,241.154022216797
0.0488322316666667, 228.720918971114, -5.27738458609502E-05, 0.97125,234.498260498047
0.0494989966666667, 228.732206216844, 0.000130845431117535, 0.985,240.786727905273
0.05016558, 228.743323614072, 0.00020957797644404, 0.99875,237.391387939453
0.0508323633333333, 228.754837436538, 0.000105477205306891, 1.01125,237.391387939453
0.0514994633333333, 228.76624679789, 0.00013673413528116, 1.025,236.192947387695
0.052165845, 228.777127901909, 0.000274875696573868, 1.0375,231.477081298828
0.052832395, 228.788685578115, -2.38237702244458E-06, 1.05125,230.289855957031
0.0534990266666667, 228.799831547927, -0.000346882073157781, 1.06375,234.137329101563
0.0541662683333333, 228.810623824709, -0.000480703851403958, 1.0775,234.137329101563
0.0548322933333333, 228.821574296164, -0.00069014433140538, 1.09,230.33642578125
0.0554990433333333, 228.832541340425, -0.000824407087532386, 1.105,235.539047241211
0.0561662316666667, 228.842802390294, -0.000563256704865692, 1.1175,233.194946289063
0.056832885, 228.853714057308, -0.000677562963385443, 1.13125,232.301956176758
0.0574995016666667, 228.863799766331, -0.000339949421396948, 1.145,232.301956176758
0.0581666866666667, 228.87420562276, -0.00023785854930023, 1.1575,229.456024169922
0.0588322366666667, 228.883862144705, -0.000328265008255176, 1.17125,234.265625
0.0594989633333333, 228.894059823709, -0.000533459201548334, 1.185,280.362121582031
0.06016568, 228.903752014709, -0.000711162775702682, 1.19875,231.945373535156
0.06083308, 228.913188448856, -0.000847211942091526, 1.21125,231.945373535156
0.06149921, 228.921888875695, -0.00106790785674912, 1.225,239.366287231445
0.0621657883333333, 228.93080332417, -0.0011571248755035, 1.23875,235.801498413086
0.0628340783333333, 228.939206883008, -0.00125951723242653, 1.25125,234.126754760742
0.0634990933333333, 228.947289866168, -0.00073603302648392, 1.265,234.99739074707
0.064166285, 228.955816702877, -0.000889491818439459, 1.2775,234.99739074707
0.0648339216666667, 228.964174829189, -0.000728380410903253, 1.29125,236.864196777344
0.06549896, 228.972409077637, -0.000843031652057007, 1.305,242.436050415039
0.0661663783333333, 228.979954589362, -0.000864608068317338, 1.31875,238.658432006836
0.0668324016666667, 228.987419421225, -0.00115871329574411, 1.3325,237.592163085938
0.0675006416666667, 228.994687075166, -0.00138947520477229, 1.345,237.592163085938
0.0681675316666667, 229.0013546263, -0.0015214235771625, 1.35875,245.128402709961
0.0688329483333333, 229.008024467708, -0.00144817475636823, 1.37125,233.557556152344
0.0695001483333333, 229.014556586331, -0.0015931469745836, 1.385,237.41081237793
0.0701657616666667, 229.021012729235, -0.00120848229587025, 1.3975,236.560211181641
0.0708337116666667, 229.02696511546, -0.000724399610856875, 1.41,236.560211181641
0.0714992783333333, 229.033503506544, -0.000466150082453672, 1.42375,235.86083984375
0.0721658766666667, 229.03948643157, -0.000391603826838045, 1.4375,235.750717163086
0.0728322583333333, 229.045666660631, -0.000111549893643962, 1.45,230.046096801758
0.073498885, 229.051917945855, -0.000421485325921986, 1.46375,237.368682861328
0.0741656883333333, 229.058435876254, -0.000795455541791007, 1.47625,237.368682861328
0.0748326033333333, 229.064370454574, -0.00102748638714065, 1.49,233.377258300781
0.0755000433333333, 229.070832492997, -0.000853400631305835, 1.50375,227.723419189453
0.076165785, 229.076562946411, -0.000885814003250065, 1.51625,277.730651855469
0.0768328483333333, 229.082108630982, -0.000662947697598386, 1.53,231.099792480469
0.077499105, 229.087868496151, -0.000533312209020578, 1.5425,231.099792480469
0.0781662066666667, 229.093747868035, -0.000601432787408689, 1.55625,233.507110595703
0.0788337316666667, 229.099826045424, -0.000747645443296844, 1.57,232.673034667969
0.0794991, 229.10616214686, -0.000883031642950669, 1.5825,233.806289672852
0.0801656116666667, 229.112941857112, -0.00101577197551081, 1.59625,236.968276977539
0.08083252, 229.119109008371, -0.00109375605845382, 1.60875,236.968276977539
0.0814989616666667, 229.124984654171, -0.00105440253510549, 1.6225,239.710494995117
0.082166895, 229.131083996971, -0.00136217807586025, 1.635,244.169845581055
0.08283223, 229.137113212833, -0.00160610932346573, 1.64875,240.277236938477
0.0834990166666667, 229.142153430933, -0.00140715481673157, 1.6625,237.677108764648
0.08416559, 229.149140685205, -0.000913108132207032, 1.67375,237.677108764648
0.0848325666666667, 229.157969148682, -0.000558672935124189, 1.6875,237.811401367188
0.085499135, 229.166290993125, -7.40862452667136E-06, 1.7025,229.292495727539
0.0861659033333333, 229.174277548916, 0.000497511013888699, 1.715,230.027893066406
0.086832215, 229.182726094151, 0.00012221186478585, 1.72875,231.30729675293
0.0874989533333333, 229.189467517056, -0.000451014342664889, 1.74125,231.30729675293
0.088165585, 229.194246440206, -0.000882140687663847, 1.755,233.111389160156
0.088832925, 229.199156863078, -0.00124879877083425, 1.76875,231.789886474609
0.0894995283333333, 229.204519401669, -0.00159498288235075, 1.7825,218.69743347168
0.0901666933333333, 229.209686781231, -0.00180939261277158, 1.795,223.93132019043
0.0908325766666667, 229.214563629313, -0.00155728527588368, 1.80875,223.93132019043
0.0914989233333333, 229.220204554047, -0.00145079512474706, 1.8225,229.310577392578
0.0921662666666667, 229.225785128228, -0.00102246013959391, 1.835,234.910720825195
0.0928325733333333, 229.231701893494, -0.000743753138769005, 1.84875,269.448791503906
0.093499045, 229.23789407724, -0.000383442736757149, 1.8625,230.101928710938
0.0941656233333333, 229.244840583514, -0.000340055916008325, 1.875,230.101928710938
0.09483252, 229.251702109081, -0.000365665629690401, 1.88875,225.608139038086
0.0954990966666667, 229.25832093279, -0.000646391529080906, 1.9025,228.226547241211
0.0961668783333333, 229.265593993081, -0.000474194178367352, 1.91625,229.659072875977
0.0968322266666667, 229.272878445128, -0.000325890627542245, 1.93,228.106964111328
0.097498925, 229.279872373625, -0.000256631606362028, 1.9425,228.106964111328
0.09816565, 229.287054953579, 5.63696719276071E-05, 1.95625,226.71467590332
0.0988327366666667, 229.294131738062, 0.000183441789232658, 1.96875,227.571304321289
0.0994991166666667, 229.30109183577, 0.000127791584479896, 1.9825,229.662292480469
0.100165636666667, 229.30810838356, 0.00038398171633736, 1.99625,226.009979248047
0.100832196666667, 229.315349557326, 0.000327710542775379, 2.01,226.009979248047
0.101499231666667, 229.322582097691, 0.000338163517748281, 2.0225,228.781936645508
0.102166288333333, 229.330189555128, 0.000594923620900237, 2.03625,232.047393798828
0.102832306666667, 229.337576960629, 0.000514029684126064, 2.05,229.300445556641
0.103499053333333, 229.345685097686, 0.000140851428469488, 2.0625,226.806564331055
0.104165633333333, 229.353986870427, -0.000214204737443829, 2.07625,226.806564331055
0.1048322, 229.36193071937, -8.63301604342573E-05, 2.09,234.872406005859
0.105498906666667, 229.371058558527, -0.000588108956596599, 2.10375,230.142196655273
0.106166295, 229.380480368999, -0.000425844107003, 2.11625,232.226181030273
0.106832208333333, 229.390333074042, -0.000308368507709067, 2.13,230.906341552734
0.10749907, 229.39974621094, 0.0004006728778811, 2.14375,230.906341552734
0.108165765, 229.41064766737, 0.000125099219665949, 2.15625,230.647384643555
0.108832523333333, 229.421068672947, 0.000337458553087463, 2.16875,232.035842895508
0.109498978333333, 229.432191943643, -7.27513424948675E-05, 2.18375,272.854278564453
0.110165773333333, 229.442810847162, -0.000488668451388028, 2.1975,236.108261108398
0.11083229, 229.453428692235, -0.000858923353872557, 2.20875,236.108261108398
0.111499245, 229.463909417707, -0.00112949026360072, 2.22375,229.499954223633
0.112165855, 229.474889902069, -0.00140121211531068, 2.23625,241.786117553711
0.112832873333333, 229.484549085202, -0.0010168519212937, 2.24875,233.988739013672
0.11349893, 229.495130058514, -0.00043501314641041, 2.2625,240.179885864258
0.114165726666667, 229.506073856959, -0.000608729920799514, 2.275,240.179885864258
0.114832241666667, 229.516495031033, -0.000463984191232794, 2.28875,233.545532226563
0.115499035, 229.526358050367, -0.000262601306464682, 2.3025,234.052658081055
0.116165695, 229.53722734779, -0.000513441207040546, 2.315,230.716217041016
0.116833723333333, 229.546960976269, -0.000780630286459969, 2.33,231.43669128418
0.117499106666667, 229.55721346581, -0.000719514356225301, 2.34125,231.43669128418
0.118165775, 229.567453532838, -0.000570630334528608, 2.355,230.669311523438
0.118832783333333, 229.578629970179, -0.000593714175069262, 2.3675,228.262802124023
0.119499586666667, 229.589417271669, -0.00074016381905564, 2.38125,227.344146728516
0.120165683333333, 229.600562133938, -0.000800325797178549, 2.39375,229.425094604492
0.12083221, 229.611743313558, -0.000665724058093898, 2.4075,229.425094604492
0.121498948333333, 229.622938388536, -0.000703076681926965, 2.42125,223.931564331055
0.122165885, 229.633956812217, -0.000880123289043908, 2.435,228.028656005859
0.122833685, 229.644998667908, -0.000836515979365296, 2.4475,229.629745483398
0.123500243333333, 229.655896706904, -0.000724894585994967, 2.46,228.494033813477
0.124165596666667, 229.666707648376, -0.000631999751987426, 2.47375,228.494033813477
0.124832348333333, 229.677829440002, -0.000874161088478253, 2.4875,230.561141967773
0.125499208333333, 229.688513920099, -0.000501090827442473, 2.5,229.843460083008
0.126165736666667, 229.699310898985, -0.000365331146505967, 2.51375,279.761962890625
0.126832966666667, 229.710384863156, -0.000468912943693318, 2.52625,223.030166625977
0.127499046666667, 229.722012663835, -0.000838630873156464, 2.54,223.030166625977
0.128165806666667, 229.73325278624, -0.000897351423672793, 2.55375,215.398391723633
0.128832576666667, 229.744295824231, -0.00102068272885724, 2.56625,216.820938110352
0.129499161666667, 229.755548936746, -0.00118176713775419, 2.58,218.998428344727
0.13016641, 229.766526005609, -0.0011063974235349, 2.59375,215.128524780273
0.13083253, 229.777132764825, -0.00102924429886008, 2.60625,215.128524780273
0.131499025, 229.787861033031, -0.000460343874132227, 2.62125,214.084426879883
0.132165743333333, 229.79884169388, -0.00044972740739937, 2.63375,218.837982177734
0.132832516666667, 229.809753364703, -0.000130814926037553, 2.64625,218.310989379883
0.133499538333333, 229.820256486298, -0.000234777704087094, 2.66125,211.0517578125
0.134165705, 229.830637615498, 3.33308291403046E-05, 2.6725,211.0517578125
0.13483223, 229.841211017855, -0.000471797298809627, 2.68625,213.897506713867
0.135499236666667, 229.85141666127, -0.000811243748780223, 2.7,216.821502685547
0.136165598333333, 229.861580101912, -0.00121691787220195, 2.71375,217.232315063477
0.136832798333333, 229.872202468141, -0.00128635688437432, 2.72625,217.683975219727
0.137499036666667, 229.882833061712, -0.00134882724657893, 2.74,217.683975219727
0.138165581666667, 229.893359503934, -0.00115700038179928, 2.75375,217.255401611328
0.138832243333333, 229.904210457929, -0.000865461525451571, 2.7675,212.48957824707
0.139499231666667, 229.914813105284, -0.000148833520911971, 2.78125,212.447799682617
0.140166221666667, 229.925491402896, -5.91769943603802E-06, 2.795,211.380706787109
0.140832615, 229.93613378427, -0.000210877904458526, 2.8075,211.380706787109
0.141499083333333, 229.946966951492, -0.000370114406214357, 2.82,217.217315673828
0.14216555, 229.95733557088, -0.000494147676147055, 2.83375,255.289947509766
0.142832286666667, 229.967977457142, -0.000919113830537873, 2.8475,221.444198608398
0.143499316666667, 229.978287439539, -0.000983076617736261, 2.86125,215.022506713867
0.14416579, 229.988660209367, -0.000938933835024432, 2.87375,215.022506713867
0.14483223, 229.999203344612, -0.0010518451635941, 2.8875,220.29801940918
0.14549901, 230.009928378106, -0.00125700035887403, 2.9,214.00325012207
0.146165576666667, 230.020134715169, -0.00132334202662232, 2.91375,218.169937133789
0.14683271, 230.03073912117, -0.00137428996754196, 2.9275,218.59651184082
0.14749914, 230.040924740159, -0.00148212705098399, 2.94,218.59651184082
0.14816561, 230.050665062551, -0.00144527390206223, 2.95375,207.442276000977
0.148832246666667, 230.060612943488, -0.0011656534471057, 2.9675,207.989929199219
0.149498908333333, 230.070732483478, -0.00134786129498693, 2.98125,210.02571105957
0.150166195, 230.080793160417, -0.00141449544805762, 2.995,200.834426879883
0.150833686666667, 230.090472795359, -0.00131145812353492, 3.0075,200.834426879883
0.151498923333333, 230.100417391613, -0.0012690462538395, 3.02,206.128890991211
0.152166288333333, 230.110309788411, -0.00140913171749889, 3.03375,199.967895507813
0.152832245, 230.120413583322, -0.00163250649760829, 3.0475,199.182510375977
0.153499798333333, 230.130058242568, -0.00157470840072749, 3.06,198.117340087891
0.154167283333333, 230.140579841442, -0.00168414140401089, 3.07375,198.117340087891
0.15483257, 230.150300800736, -0.00194628773667264, 3.08625,195.266082763672
0.155498916666667, 230.160355820188, -0.00201566825177203, 3.1,202.487762451172
0.156165785, 230.169716227638, -0.00140991617808932, 3.11375,199.294387817383
0.156832428333333, 230.179839110537, -0.00150817474267684, 3.125,195.003860473633
0.157498916666667, 230.189021284177, -0.00132809528788516, 3.13875,195.003860473633
0.158165788333333, 230.198788505597, -0.00065641702559888, 3.1525,197.118423461914
0.158832531666667, 230.20852072466, -0.0002991559704302, 3.165,237.982406616211
0.159498911666667, 230.21856822977, -0.000586432040816199, 3.17875,198.201248168945
0.160165721666667, 230.228585070606, -0.000284140224636186, 3.1925,201.609451293945
