Time (min), Depth (µm), Load (N), Position (µm), Acoustic (aJ)
7.81E-06, 226.837728019766, 0.000439056659262938, 0,105.672760009766
0.000665506666666667, 226.837550241626, 0.000149964180063274, 0,112.186614990234
0.00133233, 226.835947912875, -0.000186363926562851, 0.00375,103.961860656738
0.00199889833333333, 226.832303825125, 4.92247400664324E-05, 0.0125,108.275695800781
0.00266551, 226.830268503884, 0.000127066330191132, 0.02375,104.092018127441
0.00333288666666667, 226.829635275014, 2.32370454134808E-05, 0.03125,104.092018127441
0.00399908833333333, 226.830058109249, 0.000475947306252277, 0.0375,105.157279968262
0.004665405, 226.832896143498, 0.000685068302355805, 0.045,113.165969848633
0.005332395, 226.838767682563, 0.000685192796102529, 0.0525,109.213394165039
0.005998985, 226.84402215465, 0.000830387003087077, 0.05875,104.043159484863
0.00666559833333333, 226.848528372825, 0.000524547865098244, 0.06375,104.043159484863
0.00733226666666667, 226.853414095959, 0.000144874935670348, 0.07125,126.521224975586
0.00799872666666667, 226.857361119502, -7.13437038996249E-05, 0.07875,106.680404663086
0.00866545666666667, 226.861193096655, 4.04276819535384E-05, 0.085,105.894943237305
0.00933261, 226.865437870557, -0.000113736074535294, 0.09125,105.894943237305
0.00999901, 226.870109356581, 0.000400193611300741, 0.0975,103.283584594727
0.010665445, 226.873668683171, 0.000729190086168496, 0.105,105.445945739746
0.0113329566666667, 226.878478760439, 0.000766028235824975, 0.11125,101.662544250488
0.0119988483333333, 226.883599556268, 0.000391476049181219, 0.1175,109.641845703125
0.0126654283333333, 226.888184692937, 0.000352260518941748, 0.125,109.641845703125
0.0133323916666667, 226.892718526811, 0.000176946324786872, 0.13125,114.402244567871
0.0139990916666667, 226.898644184478, -0.000232078630304343, 0.13625,103.562858581543
0.0146661, 226.903749451331, -0.000314452992740835, 0.14375,103.747337341309
0.01533231, 226.908236526701, -0.000256186919382455, 0.15125,109.136299133301
0.01599928, 226.913676599739, -0.000208151832142788, 0.1575,105.633819580078
0.0166654316666667, 226.918834222142, -0.000253059576512819, 0.16375,105.633819580078
0.0173322866666667, 226.923399460637, 9.23085759795282E-05, 0.17,112.642555236816
0.0179990816666667, 226.928196445387, 5.8726762733874E-05, 0.1775,108.644653320313
0.0186654283333333, 226.933556878913, 1.33135438186909E-05, 0.18375,100.560218811035
0.0193326966666667, 226.938384663919, -4.22061674897336E-05, 0.19125,100.560218811035
0.0199994066666667, 226.943213119024, -8.3376099566715E-05, 0.1975,106.689491271973
0.02066542, 226.948479588764, -0.000196627911039689, 0.20375,112.677879333496
0.02133284, 226.954037021879, -0.000162620119199747, 0.21,106.296684265137
0.0219990066666667, 226.95831866188, 2.6760368410594E-05, 0.21625,105.5673828125
0.0226655333333333, 226.963485621723, 0.000120993135198382, 0.22375,105.5673828125
0.0233327466666667, 226.968442945862, 0.000374799886753987, 0.23,106.251823425293
0.02399912, 226.974304655519, 0.000112553059135971, 0.23625,130.518981933594
0.0246655933333333, 226.978991964701, 0.000391014072358745, 0.24375,111.370491027832
0.0253323083333333, 226.985371432388, 0.0004818525096481, 0.24875,107.753219604492
0.0259988083333333, 226.990990273453, 0.000386785784743322, 0.2575,106.106147766113
0.02683289, 226.996605307335, 8.15166180914898E-05, 0.265,108.495552062988
0.0274992233333333, 227.000883986769, 0.000486680767131097, 0.27125,108.495552062988
0.0281654983333333, 227.00637807847, 0.000293581966266202, 0.2775,104.909942626953
0.0288323866666667, 227.010576059914, -5.92828096901271E-05, 0.285,108.916923522949
0.0294990616666667, 227.015780890186, -0.00015106319967476, 0.29125,110.824249267578
0.0301662433333333, 227.020578151477, -6.21806641048114E-05, 0.2975,110.824249267578
0.0308322883333333, 227.025713067661, -0.000232263121069706, 0.30375,113.366958618164
0.0314996583333333, 227.030033150422, -0.000120533733142342, 0.31,104.434204101563
0.03216553, 227.034901795218, 0.00027115059296849, 0.3175,109.082382202148
0.032832455, 227.039543401648, 0.000219766173962486, 0.32375,107.62378692627
0.0334989533333333, 227.043789315348, 0.00022119710207699, 0.33,107.62378692627
0.0341654583333333, 227.047795021071, 0.00023181956850746, 0.33625,113.662315368652
0.03483225, 227.052451472015, 8.41369864703173E-05, 0.3425,113.38062286377
0.0354991083333333, 227.056397841642, -0.000187775355660112, 0.35,104.615745544434
0.036165475, 227.060387990169, -0.000118589830796909, 0.35625,106.421112060547
0.0368323166666667, 227.06458151546, -0.000515589889928067, 0.36375,110.260520935059
0.037499065, 227.069091709666, -0.000776492785068223, 0.36875,110.260520935059
0.0381655, 227.072538679706, -0.00107071650652285, 0.37625,103.569755554199
0.0388325016666667, 227.077206207125, -0.00105820113517666, 0.3825,105.109397888184
0.03949904, 227.080422313215, -0.0010932108766455, 0.39,105.199913024902
0.0401656933333333, 227.084218985815, -0.0007447153811985, 0.39625,105.199913024902
0.0408323783333333, 227.087677434847, -0.000640310125364981, 0.4025,127.424438476563
0.0414988366666667, 227.092493195207, -0.000418325775368689, 0.41,105.94214630127
0.0421656633333333, 227.095565216454, -0.000460100177107708, 0.41625,107.742362976074
0.042832395, 227.099389567476, -4.93758073700437E-05, 0.4225,105.739059448242
0.043499485, 227.10360880986, 6.5687913079623E-05, 0.42875,105.739059448242
0.0441655866666667, 227.107341642304, 0.000174535945760738, 0.435,104.283309936523
0.044832165, 227.110330275924, 0.000645741777561714, 0.44125,106.952049255371
0.0454992, 227.113459312705, 0.00106832755154199, 0.44875,108.118591308594
0.0461653916666667, 227.117087708545, 0.000862935368185091, 0.455,102.494483947754
0.0468324783333333, 227.121771881811, 0.000670859515997014, 0.46375,101.770286560059
0.0476659166666667, 227.125232153163, 0.000445530334007595, 0.47,108.681541442871
0.0483323233333333, 227.129242599301, 7.92307328758429E-05, 0.47625,108.681541442871
0.0489992016666667, 227.132957553193, -0.000149647270868052, 0.4825,109.75284576416
0.0496654633333333, 227.135934168727, 0.000169544196454024, 0.49,110.187507629395
0.05033223, 227.138889224505, 0.000368957680161847, 0.49625,110.83536529541
0.0509989766666667, 227.141554359793, 0.000593065923474473, 0.5025,105.32689666748
0.0516658466666667, 227.144417543848, 0.000743394372626552, 0.50875,105.32689666748
0.0523324116666667, 227.147524423931, 0.000896776668416271, 0.51625,110.793266296387
0.0529991966666667, 227.150933596448, 0.000738543616298761, 0.5225,112.644737243652
0.0536653783333333, 227.15420594932, 0.000484204391473728, 0.53,110.275390625
0.0543325616666667, 227.157325218792, 0.000651242001326149, 0.53625,110.275390625
0.05499889, 227.159884926171, 0.0010712539045841, 0.5425,106.528022766113
0.055665445, 227.162529315542, 0.000890739471630453, 0.54875,82.8213577270508
0.0563327483333333, 227.165156753281, 0.00117930697720396, 0.55625,104.522369384766
0.0569989316666667, 227.167875584724, 0.00134149983040495, 0.5625,124.38973236084
0.0576663816666667, 227.171533121275, 0.00125867999037818, 0.56875,124.38973236084
0.0583326733333333, 227.174671913083, 0.00105691312489907, 0.575,107.420875549316
0.0589994366666667, 227.178224338217, 0.00120770505077678, 0.5825,106.481727600098
0.0596660183333333, 227.181350273107, 0.00114374376350279, 0.58875,100.666427612305
0.0603326133333333, 227.184670595144, 0.00125656809647833, 0.595,108.494758605957
0.0609994366666667, 227.187389985203, 0.00105956049195967, 0.60125,105.622901916504
0.0616656183333333, 227.190322380523, 0.00112173386906867, 0.60875,105.622901916504
0.0623323233333333, 227.192334510475, 0.00110307030650956, 0.615,106.173240661621
0.0629990083333333, 227.19491577277, 0.00114842352846987, 0.62,106.19751739502
0.0636654383333333, 227.196913688728, 0.00122267579883869, 0.6275,108.836921691895
0.0643327716666667, 227.199268972435, 0.00160321118494724, 0.635,113.642784118652
0.0649994816666667, 227.201370852107, 0.00151003886486133, 0.64125,113.642784118652
0.0656654733333333, 227.204531510638, 0.00147319171567969, 0.6475,107.838081359863
0.066332865, 227.207527605062, 0.00141994888999798, 0.655,106.189933776855
0.0669988366666667, 227.210108994071, 0.00128847599370737, 0.66125,109.474502563477
0.0676654383333333, 227.212684134218, 0.00112976146575015, 0.6675,109.474502563477
0.0683324883333333, 227.21591714194, 0.000882192900892903, 0.675,109.464218139648
0.0689990683333333, 227.218469818226, 0.000718044145887493, 0.68125,101.779106140137
0.0696660833333333, 227.220985728273, 0.000577966181871368, 0.68625,115.819190979004
0.0703322816666667, 227.223617176255, 0.000544573359185541, 0.695,110.803230285645
0.0710002533333333, 227.226672148664, 0.000923254838434104, 0.70125,110.803230285645
0.0716654783333333, 227.229334871705, 0.00115750557226189, 0.70625,109.486114501953
0.0723335833333333, 227.232670579002, 0.00116056541857589, 0.71375,105.385719299316
0.07299948, 227.236296330938, 0.00118058791285688, 0.72125,101.247344970703
0.0736656583333333, 227.239625959852, 0.00122622912034512, 0.7275,127.079856872559
0.0743327516666667, 227.242285909845, 0.000945779207044819, 0.73375,106.05583190918
0.0749996, 227.245647815242, 0.000823199364092673, 0.74,106.05583190918
0.0756654983333333, 227.247403860605, 0.000882927863978024, 0.7475,107.325248718262
0.076332215, 227.250032665942, 0.000915056250221873, 0.7525,107.679695129395
0.076999055, 227.252500625146, 0.000577166722079415, 0.76,113.275253295898
0.0776655366666667, 227.255608352825, 0.000456373289389107, 0.7675,102.897163391113
0.0783323283333333, 227.2577493581, 0.000578344162906005, 0.77375,102.897163391113
0.0789989133333333, 227.260832025358, 0.000441227050193263, 0.78,111.292839050293
0.0796660066666667, 227.263580368294, 0.000594180367476126, 0.78625,104.68140411377
0.0803328916666667, 227.266334628889, 0.000783025381989488, 0.7925,104.180320739746
0.0809988783333333, 227.268284876156, 0.000775111779498891, 0.8,106.65168762207
0.0816655516666667, 227.271083137325, 0.000665126803950074, 0.80625,106.65168762207
0.0823323283333333, 227.273756885825, 0.000867414143239621, 0.8125,104.770278930664
0.0829995116666667, 227.275833537675, 0.000763191878247062, 0.82125,106.624610900879
0.0836656583333333, 227.278880909332, 0.000737450171217499, 0.8275,110.940788269043
0.0843335233333333, 227.282073660275, 0.000454768370022572, 0.8325,108.127227783203
0.0849990866666667, 227.284972270135, 0.000498410177962458, 0.83875,108.127227783203
0.0856659883333333, 227.287964785207, 0.000254280940314492, 0.84625,103.95809173584
0.0863337833333333, 227.290853659347, 0.0002780727452585, 0.8525,108.755882263184
0.086998895, 227.293700772642, 0.000489958102462313, 0.86,113.274932861328
0.0876668316666667, 227.296407781673, 0.000385864830989689, 0.8675,108.243270874023
0.0883333483333333, 227.299839764258, 0.000181281107013673, 0.87375,108.243270874023
0.0889989483333333, 227.30255960628, 0.00016671683857131, 0.88,109.875213623047
0.089666845, 227.305338109892, 0.000248956207769, 0.88625,132.1875
0.0903336233333333, 227.30787017816, 0.00029023113455421, 0.8925,108.736778259277
0.0909989083333333, 227.310887208513, 0.00062248394583279, 0.89875,105.025718688965
0.0916660216666667, 227.313209477238, 0.00106219585954002, 0.905,105.025718688965
0.09233234, 227.315859063633, 0.0012000779338472, 0.91375,103.689590454102
0.0929989516666667, 227.318793709126, 0.00102634466033217, 0.92,120.622688293457
0.093665575, 227.321710907524, 0.00106713061171941, 0.92625,105.316864013672
0.09433356, 227.324002039545, 0.000921130945117772, 0.93125,112.573684692383
0.0949993933333333, 227.326985585349, 0.000457124751685172, 0.93875,112.573684692383
0.0956658933333333, 227.329779015663, 0.000443638929080038, 0.945,104.745819091797
0.0963322333333333, 227.332276592192, 0.000349998632537808, 0.95125,109.899406433105
0.0969988416666667, 227.334610954299, 0.00018935070170597, 0.95875,102.496139526367
0.0976654583333333, 227.337097972946, 0.000160990126221983, 0.96625,108.449531555176
0.09833226, 227.339145344364, 0.000263598472301587, 0.9725,108.449531555176
0.0989990516666667, 227.341447749138, 8.31095380840529E-05, 0.98,103.907234191895
0.0996655483333333, 227.34408087821, 0.000213752975945867, 0.98625,109.864166259766
0.10033223, 227.346971073323, 0.000209793174862389, 0.9925,104.879806518555
0.100998883333333, 227.349290789766, 0.000196929820969624, 0.9975,104.041923522949
0.101665438333333, 227.35173012647, 0.000408954671185448, 1.005,104.041923522949
0.102333691666667, 227.354867952842, 0.00064144749333631, 1.0125,105.946685791016
0.102999453333333, 227.357257208952, 0.000709373081551998, 1.01875,104.328559875488
0.103665438333333, 227.360034790528, 0.000911067950638495, 1.02625,108.126770019531
0.10433233, 227.363435900744, 0.00078864110001799, 1.03125,110.806800842285
0.104998908333333, 227.366439199455, 0.000854289802521943, 1.0375,110.806800842285
0.10566691, 227.368847329895, 0.000875305246906676, 1.045,101.289939880371
0.106332135, 227.371986408405, 0.000872189903347249, 1.05125,126.60147857666
0.10699897, 227.375268995608, 0.000533542913232368, 1.05875,104.994331359863
0.107665528333333, 227.378235723362, 0.00060184048267881, 1.065,106.459869384766
0.108332345, 227.381215567811, 0.000645300799744648, 1.07125,106.459869384766
0.108999326666667, 227.384614710944, 0.000521696508297552, 1.0775,112.885513305664
0.109665426666667, 227.388126201222, 0.000415891822761999, 1.08375,109.086135864258
0.110333583333333, 227.391172719879, 0.000733761856493519, 1.09,112.677513122559
0.110998888333333, 227.395060973169, 0.000705780761968572, 1.09875,111.18367767334
0.111665358333333, 227.398730903307, 0.000450565581164512, 1.105,111.18367767334
0.112333533333333, 227.402686349495, 0.000514214884077602, 1.11125,108.836921691895
0.112999588333333, 227.405830463549, 0.000456734771276562, 1.1175,108.553901672363
0.113665608333333, 227.409624475591, 0.000287187787451155, 1.1225,100.60041809082
0.114332775, 227.413417435162, 0.000434702377955133, 1.13,109.519515991211
0.114999153333333, 227.417333553328, 0.0006447053297353, 1.1375,109.519515991211
0.115665801666667, 227.421487228792, 0.000816359707751113, 1.14375,105.214775085449
0.116332886666667, 227.425803940394, 0.000974355771749146, 1.15,105.583847045898
0.116998968333333, 227.429266422515, 0.000898677072975264, 1.15625,108.322853088379
0.117665398333333, 227.432663357197, 0.00126835600436142, 1.16375,105.095886230469
0.118333646666667, 227.436080173809, 0.00123885548613967, 1.17125,105.095886230469
0.118999528333333, 227.439513457282, 0.00110782356772988, 1.17625,108.764678955078
0.119665501666667, 227.443222727856, 0.0012068305947009, 1.1825,103.696754455566
0.120332613333333, 227.447562730058, 0.00127596212232809, 1.19,108.206497192383
0.120998918333333, 227.451611335769, 0.000843329852973215, 1.19625,106.885971069336
0.121665906666667, 227.455130310307, 0.000753668856531704, 1.20375,106.885971069336
0.122333641666667, 227.459503657603, 0.000778710098716167, 1.21,108.826217651367
0.122998948333333, 227.463665336416, 0.000658065158605544, 1.21625,126.804512023926
0.12366544, 227.46734796935, 0.000624718833554964, 1.2225,110.957473754883
0.124332335, 227.471527540594, 0.00074183895074407, 1.22875,108.781578063965
0.124998976666667, 227.476287233486, 0.000762908392471084, 1.235,108.781578063965
0.125665561666667, 227.480231160755, 0.000874558284426329, 1.2425,109.173133850098
0.126332708333333, 227.484542048219, 0.00102021146842705, 1.24875,106.546714782715
0.12699911, 227.489358951635, 0.000992209374939206, 1.25625,109.935470581055
0.127665838333333, 227.493600969519, 0.00100918402234394, 1.2625,109.579490661621
0.12833292, 227.497871139654, 0.000849166059867742, 1.27,109.579490661621
0.128998966666667, 227.502071354882, 0.000818618594242485, 1.275,104.308670043945
0.129665426666667, 227.506416993257, 0.000447207249830503, 1.28125,111.000244140625
0.13033273, 227.509567892749, 0.000702929405189135, 1.28875,104.82006072998
0.130998966666667, 227.513600827855, 0.00067864862476214, 1.295,107.305450439453
0.131665445, 227.517693794962, 0.00103366429271657, 1.30125,107.305450439453
0.132332258333333, 227.522002580664, 0.000753128883704023, 1.30875,113.416725158691
0.132999055, 227.525763831156, 0.0010929713138021, 1.31625,110.12971496582
0.13366606, 227.530624323973, 0.000682333939679821, 1.32125,106.562423706055
0.134332823333333, 227.53521636536, 0.000802714893074217, 1.32625,114.01139831543
0.134999551666667, 227.539747469931, 0.000305317376837685, 1.335,114.01139831543
0.135666863333333, 227.54444471719, 0.000469427133787356, 1.34125,102.729331970215
0.136334396666667, 227.549363048306, 0.000359052177808675, 1.3475,104.406021118164
0.136999405, 227.553754437487, 0.000572006981303298, 1.35375,108.672096252441
0.137665991666667, 227.558084908887, 0.000587547700659707, 1.36125,114.479034423828
0.138333636666667, 227.563437078737, 0.000594372357863505, 1.3675,114.479034423828
0.138999158333333, 227.567450167333, 0.000517780205000515, 1.37375,106.959518432617
0.13966699, 227.571896043735, 0.000380541598347347, 1.38,132.265502929688
0.140333688333333, 227.576550598235, 0.000213736476819939, 1.3875,103.955238342285
0.14099874, 227.581553483411, -0.000162879606142765, 1.39375,106.879379272461
0.1416654, 227.585727711075, -5.76868898700116E-05, 1.4,106.879379272461
0.142332835, 227.590334662126, -0.000272059122159508, 1.40625,108.508476257324
0.142999518333333, 227.595579204835, -0.00036933523605035, 1.4125,104.857925415039
0.143665588333333, 227.601683154339, -0.000228879290978334, 1.4175,106.768898010254
0.144332723333333, 227.607336993801, -4.84548534888859E-05, 1.4275,111.246841430664
0.144999536666667, 227.613388765191, 0.000257723267478845, 1.43375,111.246841430664
0.145666051666667, 227.619275094881, 0.000362221518667874, 1.44,106.387420654297
0.146332753333333, 227.62505535197, 0.00068940158470071, 1.44625,103.191223144531
0.14699939, 227.629878362977, 0.000481824011126946, 1.455,109.331802368164
0.147665426666667, 227.635037210916, 0.000680960008713896, 1.46,104.666397094727
0.148332251666667, 227.640031880808, 0.000438183703132717, 1.46625,104.666397094727
0.148999465, 227.645293065975, 0.00036054160299616, 1.4725,105.608383178711
0.149665405, 227.649884926824, 0.000382627993638615, 1.48,108.097106933594
0.15033285, 227.654776506011, 0.000889673025273467, 1.48625,105.614204406738
0.15099947, 227.659133943917, 0.000810605996741273, 1.4925,113.020858764648
0.151665688333333, 227.663916601181, 0.000952941347366875, 1.5,113.020858764648
0.152332271666667, 227.668303128188, 0.00137685905440853, 1.50625,103.490592956543
0.153000588333333, 227.673479323916, 0.00129513865916064, 1.5125,103.745536804199
0.153666023333333, 227.678747433712, 0.00100470974710513, 1.51875,108.534149169922
0.154332443333333, 227.684333743029, 0.00107494221939309, 1.52625,101.072364807129
0.154999578333333, 227.689025870824, 0.00129037939822144, 1.5325,101.072364807129
0.155666291666667, 227.694243572072, 0.000964598761848134, 1.54,109.61905670166
0.156332751666667, 227.698867588728, 0.00133999840592851, 1.545,127.879989624023
0.157000173333333, 227.703421847552, 0.00110982896708212, 1.5525,112.645286560059
0.157666133333333, 227.70749347101, 0.00100289033846391, 1.55875,101.909736633301
0.158332458333333, 227.712832814554, 0.000908941057409594, 1.565,101.909736633301
0.159000196666667, 227.717463374915, 0.00118555266350309, 1.5725,106.415664672852
0.159665888333333, 227.722242183203, 0.00108423275267717, 1.57875,111.782104492188
0.160332048333333, 227.727659344864, 0.00138499314582891, 1.585,108.176727294922
0.160999376666667, 227.733294620645, 0.001150337432391, 1.5925,108.670036315918
