Time (min), Depth (µm), Load (N), Position (µm), Acoustic (aJ)
7.50166666666667E-06, 226.973011841034, -0.000316194486036226, 0,108.484039306641
0.000664801666666667, 226.972671524551, -0.000215255556093751, 0,109.799461364746
0.00133094166666667, 226.97187718407, -0.000628255311554985, 0.00375,111.968856811523
0.00199870666666667, 226.969678269968, -0.000563116583411902, 0.0125,107.111312866211
0.00266560833333333, 226.968057653191, -0.000772288576902632, 0.0225,107.111312866211
0.00333195333333333, 226.967055031675, -0.000827080824726698, 0.03125,109.321235656738
0.003997855, 226.967651060612, -0.00121068055692245, 0.0375,104.742515563965
0.00466547333333333, 226.969821058406, -0.00114662627429296, 0.045,106.568496704102
0.00533221, 226.974089564632, -0.00125102853025642, 0.0525,137.457107543945
0.00599868666666667, 226.979090866088, -0.00111732224616804, 0.05875,137.457107543945
0.006663985, 226.984300319685, -0.00123815467689283, 0.06375,112.127059936523
0.00733065666666667, 226.989226622153, -0.00130694722151987, 0.07125,103.139511108398
0.00799806166666667, 226.993973881168, -0.00136775266731805, 0.07875,114.061050415039
0.00866470166666667, 226.998913802747, -0.00116127003870744, 0.08375,104.707061767578
0.009330555, 227.003625000005, -0.0011675262245199, 0.09125,104.707061767578
0.00999875166666667, 227.008570189313, -0.00111901566113813, 0.09875,103.691497802734
0.0106643283333333, 227.013019744772, -0.000966431325322227, 0.105,105.367485046387
0.011330575, 227.018366041609, -0.00092446643316274, 0.11125,106.812133789063
0.011998275, 227.023402380465, -0.00123113502953786, 0.1175,107.497718811035
0.0126639666666667, 227.027863331222, -0.00140588375204393, 0.12375,107.497718811035
0.013331195, 227.032787593242, -0.00150134345720612, 0.13125,109.957054138184
0.0139977533333333, 227.03817537314, -0.00149135395893759, 0.1375,115.519340515137
0.0146639433333333, 227.042618345433, -0.00138033403535924, 0.145,115.786514282227
0.0153305983333333, 227.047998425533, -0.00108755474131749, 0.15125,100.515579223633
0.015997215, 227.053903379556, -0.00102215652621014, 0.1575,100.515579223633
0.016663965, 227.060015592429, -0.000755246432857243, 0.16375,105.068214416504
0.0173305933333333, 227.065161221846, -0.000581322668857982, 0.17125,113.323471069336
0.0179978933333333, 227.070884945149, -0.000721609122429922, 0.1775,110.427124023438
0.0186645716666667, 227.076212227103, -0.001075877827904, 0.18375,109.344604492188
0.01933205, 227.081805952864, -0.000928171247055156, 0.19,109.344604492188
0.0199979016666667, 227.087195575432, -0.00104971764188092, 0.1975,114.147560119629
0.02066409, 227.093197682784, -0.0014291145851761, 0.2025,106.672256469727
0.0213310566666667, 227.098095451778, -0.00155561373125284, 0.21125,112.716239929199
0.0219974833333333, 227.104282455396, -0.00138750517520646, 0.21625,129.186767578125
0.0226640216666667, 227.109228837223, -0.00154075397763927, 0.22375,129.186767578125
0.023330515, 227.11408613673, -0.0012317035009292, 0.23,112.414833068848
0.0239974733333333, 227.119124665496, -0.000722953054929037, 0.23625,107.429718017578
0.0246643683333333, 227.123752746034, -0.000454609033570326, 0.24375,109.798278808594
0.025330545, 227.127855342916, 0.000101572030071234, 0.25,110.800712585449
0.0259978233333333, 227.132876285721, -5.34541830982505E-05, 0.25625,110.800712585449
0.026663905, 227.138465750136, -0.000297715414114958, 0.2625,104.518852233887
0.0273310383333333, 227.142918216709, -0.000286587473054319, 0.27,114.232978820801
0.0279980183333333, 227.148250653231, -0.000108516417378665, 0.27625,108.380867004395
0.0286655483333333, 227.15357498775, -0.000448379846397129, 0.2825,101.462669372559
0.029330555, 227.158429531875, -0.000330410771889508, 0.29,101.462669372559
0.0299973183333333, 227.162823663735, -0.000192779185021432, 0.29625,105.064025878906
0.0306641366666667, 227.167824698468, -0.000244615081357833, 0.30125,102.391899108887
0.0313311316666667, 227.172689539488, -0.000365536007643672, 0.30875,109.810890197754
0.0319974216666667, 227.177421486019, -0.000480403237975258, 0.31625,107.284439086914
0.0326646583333333, 227.182501918656, -6.72459904729359E-05, 0.32125,107.284439086914
0.0333320433333333, 227.186148933165, 3.04561020972101E-05, 0.3275,107.01912689209
0.0339972516666667, 227.191366295794, -6.8528426007754E-05, 0.335,109.909111022949
0.0346644266666667, 227.19609912466, -0.000155017081783767, 0.34125,109.203567504883
0.0353311333333333, 227.201353298672, 5.56668358030037E-05, 0.3475,109.27619934082
0.0359972233333333, 227.206166709425, -0.00034644646644777, 0.355,109.27619934082
0.036663975, 227.212049155204, -0.000559825748633532, 0.36125,110.560417175293
0.037330605, 227.217068077806, -0.000395616996673245, 0.3675,110.565269470215
0.0379977883333333, 227.221786634928, -0.000615436955351809, 0.375,105.919128417969
0.0386645716666667, 227.225834960559, -0.000761909098204236, 0.38125,125.993507385254
0.0393311483333333, 227.230135128346, -0.000654811477620533, 0.38875,125.993507385254
0.0399973633333333, 227.234775814593, -0.000547185883540614, 0.39375,109.758720397949
0.04066403, 227.239288638055, -0.000831810087135317, 0.40125,113.637512207031
0.041331225, 227.244168172614, -0.000437211407398857, 0.4075,105.54402923584
0.0419979433333333, 227.248763980996, -0.000719942706056583, 0.415,109.240585327148
0.04266453, 227.254167026779, -0.000530958198552464, 0.42,109.240585327148
0.0433321116666667, 227.258205704684, -0.000730649168296144, 0.4275,109.245498657227
0.043997355, 227.262666730228, -0.000382702645287007, 0.43375,106.462608337402
0.0446642633333333, 227.266923143336, -0.000557578861452369, 0.44125,107.392593383789
0.0453320216666667, 227.272101039378, -0.000201681237842554, 0.4475,110.462448120117
0.04599733, 227.27599665479, -0.000405333508615369, 0.45375,110.462448120117
0.0466639983333333, 227.27990693107, -0.000162609700388304, 0.46,108.75464630127
0.0473311033333333, 227.284145165573, -0.000236660980887094, 0.4675,108.258445739746
0.0479979216666667, 227.28835669472, -0.00027659947481646, 0.47375,107.958694458008
0.0486640916666667, 227.291984030667, -0.000478993308781146, 0.48,104.354209899902
0.0493320533333333, 227.295849603589, -0.000409830282762738, 0.48625,104.354209899902
0.0499980083333333, 227.300428089963, -0.0006554579451021, 0.4925,108.155075073242
0.050664625, 227.304114798451, -0.000866671336066983, 0.5,114.003463745117
0.0513312866666667, 227.30831952874, -0.000972444523190068, 0.505,103.208351135254
0.05199868, 227.311973080786, -0.000986201832175954, 0.5125,108.758018493652
0.0526638833333333, 227.316514907689, -0.000977923747970349, 0.52,108.758018493652
0.053330515, 227.319883471097, -0.00112590631499441, 0.52625,104.045875549316
0.0539978633333333, 227.324101863654, -0.00107083808101639, 0.5325,105.896430969238
0.0546641166666667, 227.327325063997, -0.000818924234419011, 0.53875,112.957550048828
0.0553305533333333, 227.331323059546, -0.000635844930310715, 0.54625,128.066986083984
0.0559979583333333, 227.334694991544, -0.000564322522823409, 0.5525,128.066986083984
0.0566639033333333, 227.338511794145, -0.000375237520341763, 0.55875,109.031036376953
0.0573306033333333, 227.341910781651, -0.00059145316006293, 0.565,110.593627929688
0.0579985316666667, 227.345378662358, -0.000638369303485226, 0.5725,101.031845092773
0.0586641933333333, 227.348954142708, -0.000730257688026894, 0.57875,103.967933654785
0.0593305283333333, 227.352029960768, -0.00099110658582477, 0.585,103.967933654785
0.0599977783333333, 227.355431008306, -0.00102017062598141, 0.5925,104.833648681641
0.0606640033333333, 227.358865111984, -0.00127631426011861, 0.5975,106.628746032715
0.061331255, 227.363467235072, -0.00166109443305353, 0.605,105.931495666504
0.0619972283333333, 227.366725582986, -0.00186325577867195, 0.6125,113.559791564941
0.0626641, 227.370883340595, -0.0017412174085569, 0.61875,113.559791564941
0.06333106, 227.374239654091, -0.0017645742353602, 0.625,113.126831054688
0.063997295, 227.377532440065, -0.00119313743806261, 0.63125,104.241348266602
0.0646640183333333, 227.380866526065, -0.000999147681910898, 0.6375,109.647567749023
0.065330575, 227.384949426276, -0.000828085774204405, 0.645,117.945571899414
0.0659979283333333, 227.388979478568, -0.00112197651235649, 0.65125,117.945571899414
0.0666644666666667, 227.392941728941, -0.00101797923606693, 0.6575,106.212745666504
0.06733119, 227.39646889699, -0.00125846815655057, 0.665,107.845489501953
0.06799736, 227.400262300416, -0.00137152497785112, 0.67,110.499061584473
0.06866564, 227.402801603336, -0.00149998902519368, 0.67625,106.964149475098
0.0693309066666667, 227.405791853471, -0.00132768667979315, 0.68625,106.964149475098
0.069997315, 227.40964921819, -0.00149174993904381, 0.69125,107.361976623535
0.0706645366666667, 227.412963897907, -0.00144901858540799, 0.69625,111.295593261719
0.0713310416666667, 227.415324623327, -0.00108803321732965, 0.70375,132.692230224609
0.0719978533333333, 227.419103919425, -0.000918817716861128, 0.71,106.417953491211
0.072664065, 227.421566441229, -0.00113327844469042, 0.7175,106.417953491211
0.0733305283333333, 227.424296386342, -0.00104232301327635, 0.72375,105.856468200684
0.0739979333333333, 227.426865213205, -0.00100999063729241, 0.73125,108.808464050293
0.0746640516666667, 227.430511737263, -0.00148554025097288, 0.7375,104.533683776855
0.0753314166666667, 227.432884675818, -0.00150916406434121, 0.74375,117.442855834961
0.075997835, 227.435395920746, -0.00124977759309156, 0.75,117.442855834961
0.07666389, 227.437729626354, -0.00123845766168605, 0.75625,107.108619689941
0.0773305383333333, 227.440155337286, -0.0013440343586698, 0.7625,107.494636535645
0.0779973566666667, 227.44187867414, -0.000932197044812377, 0.77,106.367309570313
0.0786645566666667, 227.445166884918, -0.000979527167497497, 0.77625,112.135765075684
0.0793311066666667, 227.448484141052, -0.000858831229914655, 0.785,112.135765075684
0.0799973583333333, 227.451159862375, -0.00077709133564952, 0.79125,102.88744354248
0.0806639666666667, 227.453794740987, -0.000560964191489399, 0.79625,104.947769165039
0.0813305683333333, 227.456656587818, -0.000859242209286164, 0.8025,112.54239654541
0.0819979333333333, 227.457997205152, -0.000721096148220246, 0.81,105.775756835938
0.0826639166666667, 227.459456016637, -0.000747737810040543, 0.81625,105.775756835938
0.0833305616666667, 227.462042463965, -0.000556195930961279, 0.8225,110.148902893066
0.0839989666666667, 227.464985906068, -0.000644348003198063, 0.83,112.930511474609
0.0846640283333333, 227.467157509821, 4.16965375093472E-05, 0.83625,104.955543518066
0.0853305683333333, 227.470372489389, 0.000191018537195554, 0.8425,107.415733337402
0.0859973966666667, 227.47337897807, 0.000362873905081403, 0.85125,107.415733337402
0.0866644483333333, 227.476386932657, 0.000297867170307061, 0.8575,104.581649780273
0.08733054, 227.479607095312, 0.000410084033771754, 0.8625,107.566635131836
0.0879988716666667, 227.482917226477, 0.000123983904309196, 0.87,128.664886474609
0.0886645033333333, 227.486176706531, 0.00020111902993369, 0.87625,128.664886474609
0.0893306316666667, 227.489628989142, 0.000149409127268418, 0.8825,112.200660705566
0.0899978216666667, 227.492291575528, 6.87386792515842E-05, 0.89,107.265449523926
0.0906640383333333, 227.494833514988, 0.000136599770632916, 0.89625,103.586044311523
0.0913305416666667, 227.497457875003, 0.000137700715357448, 0.90375,107.625442504883
0.09199722, 227.50058757865, 8.9967112965343E-05, 0.91,110.54264831543
0.0926645216666667, 227.50383047896, -0.000261960210090172, 0.91625,110.54264831543
0.0933310966666667, 227.507044736401, -0.000255888515085587, 0.9225,110.172340393066
0.09399885, 227.509075026258, -0.000645373951617415, 0.92875,108.538047790527
0.09466544, 227.511547065384, -0.000967050794164535, 0.935,105.973472595215
0.095330505, 227.513311061135, -0.00113357842967734, 0.9425,108.552551269531
0.0959974766666667, 227.514757942886, -0.00089078262503641, 0.95,108.552551269531
0.0966655383333333, 227.516977967992, -0.00102365795085661, 0.955,106.838813781738
0.0973311066666667, 227.520465924974, -0.000837841284202268, 0.96125,109.284446716309
0.09799784, 227.522621894555, -0.000676536386354279, 0.96875,101.594795227051
0.0986645583333333, 227.525334869712, -0.000582113129146023, 0.97625,107.116203308105
0.0993306583333333, 227.527572080167, -0.000528043844969344, 0.9825,107.116203308105
0.0999978366666667, 227.530009556895, -0.000267517430939422, 0.9875,110.845748901367
0.100664316666667, 227.531727414969, -0.000146625003259753, 0.99625,107.071937561035
0.101330581666667, 227.534021113376, -0.0002503852914936, 1.0025,109.520118713379
0.101997218333333, 227.536429145216, 0.000171958994615242, 1.00875,108.734420776367
0.10266422, 227.539347510769, 0.000119896609672696, 1.015,108.734420776367
0.103330528333333, 227.541381985636, 0.000189167630248139, 1.02125,108.689033508301
0.103997415, 227.544181581881, 0.000328195647054459, 1.0275,106.138557434082
0.104664126666667, 227.546338118138, 0.000746562132944476, 1.03625,127.293914794922
0.105330653333333, 227.548543755726, 0.000643692799976197, 1.0425,105.385078430176
0.105997933333333, 227.551100552799, 0.000737180104186787, 1.04875,105.385078430176
0.106663946666667, 227.553119186157, 0.000878374012171477, 1.055,110.203132629395
0.107330551666667, 227.555908550964, 0.000774487730266502, 1.06,110.744895935059
0.107997398333333, 227.558885748157, 0.000461288461934383, 1.0675,106.351890563965
0.108663998333333, 227.56189452419, 5.57973293323577E-05, 1.075,107.331474304199
0.10933207, 227.564101868392, 3.98141321282095E-05, 1.08125,107.331474304199
0.109997833333333, 227.566683235422, 0.000185312823894143, 1.08875,109.312950134277
0.110665553333333, 227.569411059271, -0.000125644057093786, 1.0925,103.608985900879
0.11133052, 227.571498008555, -0.000142378716530237, 1.1,109.068115234375
0.111997833333333, 227.573308220112, 9.68637665830061E-05, 1.1075,109.208465576172
0.112664536666667, 227.576395563232, -0.000309795807341698, 1.115,109.208465576172
0.113331143333333, 227.579125605166, -0.000728279287377677, 1.12125,107.797073364258
0.113997356666667, 227.580817660692, -0.000362684650800472, 1.1275,104.631805419922
0.114663905, 227.583803274689, -0.000194139616667728, 1.13375,103.131607055664
0.115330603333333, 227.586641224624, -0.000671570135826182, 1.14,107.312774658203
0.115997933333333, 227.589586763781, -0.000419351804468676, 1.1475,107.312774658203
0.116663955, 227.592580401527, -0.000561100684567588, 1.15375,109.238372802734
0.117331258333333, 227.596034522566, -0.000642230109515581, 1.16125,108.445747375488
0.117997913333333, 227.600359359788, -0.00123280444556872, 1.16625,113.340980529785
0.118664401666667, 227.603571564716, -0.00121615828169332, 1.1725,115.190299987793
0.11933057, 227.606827102698, -0.00129064754020287, 1.18125,115.190299987793
0.11999892, 227.610684990022, -0.00119371190915157, 1.1875,100.481315612793
0.120664006666667, 227.614433897895, -0.00130956009025543, 1.1925,109.73957824707
0.121331068333333, 227.617447756845, -0.00103105857909502, 1.2,124.007339477539
0.121997771666667, 227.62164810326, -0.000900136155187929, 1.20625,107.086624145508
0.122663958333333, 227.625697271319, -0.000717329837321026, 1.2125,107.086624145508
0.123331268333333, 227.629795161022, -0.000898504237139627, 1.22,107.113639831543
0.123997371666667, 227.634212368123, -0.000741009147956044, 1.22625,110.045066833496
0.124663891666667, 227.638866896425, -0.000727533824800479, 1.23375,106.90119934082
0.125331111666667, 227.643203503048, -0.00104558384946039, 1.23875,111.191368103027
0.12599722, 227.647346346593, -0.00142411533624737, 1.245,111.191368103027
0.12666393, 227.652133796638, -0.00144698618748026, 1.2525,109.604476928711
0.127331198333333, 227.65592948148, -0.001715438203396, 1.25875,107.070587158203
0.127997906666667, 227.659750907285, -0.0016542577764545, 1.26625,104.523834228516
0.128664573333333, 227.663796987084, -0.00141512028807074, 1.2725,104.520225524902
0.129330536666667, 227.668416164253, -0.00105350795148557, 1.27875,104.520225524902
0.129997251666667, 227.671272047922, -0.00111953313509976, 1.285,102.921348571777
0.1306655, 227.675212344951, -0.00123562880375141, 1.29125,109.186820983887
0.131331183333333, 227.679153313605, -0.00138594825333581, 1.2975,109.283279418945
0.131997878333333, 227.682955784461, -0.00168167339937315, 1.305,110.564178466797
0.132663961666667, 227.686354955706, -0.00187993194105667, 1.31125,110.564178466797
0.133330555, 227.690851767985, -0.00200944143589959, 1.3175,111.269332885742
0.133997831666667, 227.694872945915, -0.00202125484251879, 1.32625,106.182159423828
0.134664026666667, 227.698925577636, -0.00196485317553372, 1.3325,110.874351501465
0.135330601666667, 227.702995281317, -0.00180068342160792, 1.3375,107.66926574707
0.135998781666667, 227.70696183784, -0.00179444973472527, 1.345,107.66926574707
0.136663963333333, 227.710792117941, -0.00171767009131188, 1.35125,111.419395446777
0.137331296666667, 227.714706685807, -0.00179711960063066, 1.3575,113.703315734863
0.137997231666667, 227.719338607027, -0.00171211437036578, 1.36375,127.366516113281
0.138664626666667, 227.722659649357, -0.00145169445096849, 1.37125,107.300941467285
0.139330501666667, 227.726923900754, -0.00160312684467265, 1.3775,107.300941467285
0.13999794, 227.731665071375, -0.0016662541738509, 1.38375,109.40113067627
0.140664506666667, 227.735959219401, -0.00145629022016898, 1.39,101.620269775391
0.141330568333333, 227.739858194048, -0.00143550426421794, 1.3975,111.278778076172
0.141997931666667, 227.745128374031, -0.00142399084254316, 1.40375,108.76424407959
0.142664335, 227.749484906876, -0.00115177851548957, 1.41,108.76424407959
0.143332055, 227.753388300354, -0.00092580286599733, 1.41625,110.422569274902
0.143997943333333, 227.757744663495, -0.00105482638526983, 1.4225,105.470596313477
0.144664413333333, 227.761606887862, -0.000940700117699724, 1.43,101.644096374512
0.145332038333333, 227.765870353931, -0.0010766052913246, 1.4375,104.721374511719
0.145997881666667, 227.76966169907, -0.00128171398890552, 1.44375,104.721374511719
0.146663981666667, 227.774052428701, -0.00142353486539704, 1.45,108.96800994873
0.14733051, 227.778044846245, -0.00141297689569466, 1.45625,109.541999816895
0.147997358333333, 227.782413940958, -0.00184194334917035, 1.46375,104.229209899902
0.14866399, 227.786366647249, -0.00179515019950661, 1.47,106.690406799316
0.149331398333333, 227.790253046024, -0.00173215336379396, 1.47625,106.690406799316
0.149997233333333, 227.794253611268, -0.00163837507418537, 1.4825,117.663619995117
0.150665488333333, 227.798361479515, -0.00177236484402848, 1.49,107.910224914551
0.151330543333333, 227.802751818678, -0.00164991849439073, 1.49625,109.175651550293
0.151997285, 227.80706820695, -0.00157282836658335, 1.5025,113.377159118652
0.152664025, 227.811135846921, -0.00156878006991757, 1.51,113.377159118652
0.15333051, 227.815403628125, -0.00185157736529155, 1.51625,106.041038513184
0.153998868333333, 227.819911106017, -0.00171522971386144, 1.52375,121.895751953125
0.154664133333333, 227.823563584961, -0.00168186988951249, 1.53,110.328269958496
0.155331136666667, 227.827725343787, -0.00176122940334582, 1.53625,109.33519744873
0.155997401666667, 227.832107282803, -0.00179106740460081, 1.5425,109.33519744873
0.15666462, 227.836608083228, -0.00142460581154849, 1.54875,111.436973571777
0.157330608333333, 227.840860561952, -0.00118772420989231, 1.555,105.412933349609
0.157997368333333, 227.846038464145, -0.00127994707759716, 1.5625,107.795852661133
0.15866458, 227.850531372469, -0.00134233494395959, 1.57,108.792259216309
0.159331306666667, 227.855245609513, -0.00119552531807392, 1.57625,108.792259216309
