Time (min), Depth (µm), Load (N), Position (µm), Acoustic (aJ)
7.64333333333333E-06, 226.779235327079, 0.000137366256402708, 0,108.588943481445
0.000664561666666667, 226.778878489023, 0.000271699508997922, 0.00125,125.53490447998
0.00133091833333333, 226.777434182192, 8.7417170852369E-06, 0.0025,108.369964599609
0.00199806, 226.774297564975, -0.000361423189935096, 0.01125,106.358604431152
0.00266477833333333, 226.77149232029, -0.000412912603670582, 0.0225,106.358604431152
0.00333117166666667, 226.769481301951, -0.000656125387338125, 0.03125,107.888000488281
0.00399781333333333, 226.769183779159, -0.000802947012661527, 0.0375,106.808326721191
0.004665115, 226.771643762966, -0.00101671477533149, 0.04375,106.808326721191
0.00533122, 226.776189493541, -0.000727517301381094, 0.0525,102.963531494141
0.005997885, 226.782402359141, -0.0010448593616164, 0.05875,105.970336914063
0.00666457166666667, 226.787963549813, -0.000969900626747365, 0.06375,106.175193786621
0.007330915, 226.793410753072, -0.0013993905538823, 0.07,113.266410827637
0.00799810666666667, 226.79700241706, -0.00119353189397223, 0.07875,113.266410827637
0.00866515666666667, 226.802119198355, -0.00133602173687513, 0.085,108.063636779785
0.00933069, 226.806493652038, -0.000742107068602075, 0.09125,104.583183288574
0.00999791333333333, 226.811216779893, -0.000959872130465602, 0.09625,111.658020019531
0.010664505, 226.815625929124, -0.000985073864582467, 0.10375,108.028465270996
0.0113309566666667, 226.821493275611, -0.00134176494835038, 0.11125,105.433441162109
0.01199804, 226.826071971124, -0.0015070731451108, 0.1175,105.433441162109
0.0126646133333333, 226.83051204631, -0.00175993644402547, 0.125,107.468811035156
0.0133310216666667, 226.835170772315, -0.00172335178167816, 0.13125,103.026763916016
0.0139979233333333, 226.840153765778, -0.00140612221579435, 0.1375,104.568687438965
0.0146645433333333, 226.844540458298, -0.00105596480383224, 0.14375,107.052139282227
0.0153313816666667, 226.849434295293, -0.000931193570986869, 0.15125,107.052139282227
0.01599812, 226.854764744006, -0.00111056356140829, 0.1575,107.362548828125
0.01666474, 226.858879062441, -0.000708261268597685, 0.16375,107.40209197998
0.0173308966666667, 226.863696480343, -0.000845414379559867, 0.17125,132.874145507813
0.0179980183333333, 226.868393596795, -0.000812576528967008, 0.1775,106.852401733398
0.0186644683333333, 226.875647692794, -0.000836506326998624, 0.185,108.716316223145
0.0194973766666667, 226.880398957528, -0.000773456993889345, 0.1925,106.465507507324
0.02016473, 226.885881662157, -0.000954298410384153, 0.19875,106.465507507324
0.020831415, 226.89045566091, -0.000802857017176077, 0.205,111.515174865723
0.02149779, 226.895051770184, -0.00100587931959325, 0.21125,106.403633117676
0.022165195, 226.899729019334, -0.000839719165644263, 0.2175,106.403633117676
0.0228310716666667, 226.903700309121, -0.000899758149987359, 0.225,104.784072875977
0.0234979166666667, 226.907711277032, -0.000917767745400374, 0.23125,102.574104309082
0.0241649166666667, 226.911739704356, -0.000802144553020768, 0.2375,105.243255615234
0.0248308116666667, 226.916354023471, -0.00100858818357564, 0.245,104.577926635742
0.025498935, 226.920599840664, -0.00120235295096059, 0.25125,113.227653503418
0.0261640483333333, 226.92550718443, -0.00154259736081999, 0.2575,113.227653503418
0.0268307183333333, 226.93004925457, -0.00152988099954, 0.265,105.350868225098
0.0274981183333333, 226.934599114498, -0.00181459219881386, 0.27,102.066246032715
0.028164555, 226.938086642316, -0.00162396227396306, 0.2775,103.169486999512
0.0288311433333333, 226.941887380228, -0.00144407330959185, 0.285,103.169486999512
0.029498185, 226.945549910398, -0.0010269397617951, 0.29125,107.828399658203
0.0301645683333333, 226.948950692931, -0.00082411394951726, 0.29625,105.137321472168
0.0308313916666667, 226.952415222916, -0.000672932043209694, 0.3025,105.019355773926
0.0314977866666667, 226.956432749578, -0.0006239580031023, 0.31,108.600006103516
0.0321644116666667, 226.959731236016, -0.000754709435627419, 0.3175,109.119323730469
0.032831005, 226.962472281875, -0.000951097571240011, 0.3225,109.119323730469
0.0334981083333333, 226.965644493301, -0.00103552383057897, 0.33,107.422203063965
0.0341643183333333, 226.968621966439, -0.00130941907311057, 0.33625,129.717376708984
0.034830885, 226.970762727742, -0.00136761614992515, 0.3425,111.686904907227
0.0354978716666667, 226.97380432878, -0.00149375231425379, 0.35,105.472778320313
0.036164865, 226.97677959333, -0.00177658860770476, 0.35625,105.472778320313
0.0368310416666667, 226.980027525955, -0.00180336976255832, 0.3625,104.039649963379
0.0374979416666667, 226.983003483611, -0.00174140337505948, 0.36875,109.213447570801
0.0381645716666667, 226.985985469715, -0.00159050045475468, 0.3775,108.255584716797
0.03883086, 226.988800035505, -0.00111091754369498, 0.3825,109.24658203125
0.039498315, 226.991596995749, -0.00091083659354269, 0.38875,109.24658203125
0.0401644616666667, 226.994563254154, -0.000934752892233423, 0.39625,106.820381164551
0.04083096, 226.997229214989, -0.000755580891833237, 0.4025,111.219604492188
0.0414979233333333, 227.000052743464, -0.000986312802394608, 0.41,110.528060913086
0.04216465, 227.003084593359, -0.00131524178064296, 0.415,109.23998260498
0.0428312083333333, 227.005667037845, -0.00146765062532493, 0.42125,109.23998260498
0.0434973666666667, 227.007802799449, -0.00151547422320249, 0.42875,108.176780700684
0.0441643783333333, 227.010061494638, -0.00176287029677461, 0.435,102.436141967773
0.0448309933333333, 227.012292492718, -0.00181849050303931, 0.44125,108.95418548584
0.0454978566666667, 227.014593036816, -0.00173780355585404, 0.44875,106.876182556152
0.0461651583333333, 227.016898296289, -0.00172360676895424, 0.455,106.876182556152
0.0468310133333333, 227.019419333123, -0.00170608464907855, 0.46125,106.206687927246
0.04749788, 227.021931172694, -0.00125938908613827, 0.46875,109.293350219727
0.0481644916666667, 227.024593108141, -0.00095726976126463, 0.475,113.403709411621
0.0488309316666667, 227.027271803625, -0.000795945364420652, 0.48125,103.984298706055
0.0494977933333333, 227.029973275312, -0.000514018025306834, 0.49,103.984298706055
0.050330675, 227.032745076467, -0.000533002571752, 0.49625,108.827941894531
0.050997725, 227.035948490115, -0.000740817133423986, 0.5025,129.425689697266
0.05166452, 227.039610532114, -0.000943009977454874, 0.5075,101.967636108398
0.052331005, 227.042776718234, -0.00110307143773877, 0.51625,111.32022857666
0.052997775, 227.045995426201, -0.00107691875140146, 0.5225,110.101623535156
0.0536647916666667, 227.04944627513, -0.000875946846026108, 0.52875,110.101623535156
0.0543311733333333, 227.053028923699, -0.000700128677207975, 0.53625,109.50691986084
0.0549981383333333, 227.055777122622, -0.000250250274152628, 0.5425,108.399871826172
0.0556643333333333, 227.059024472552, -0.00022214618580536, 0.54875,105.729034423828
0.0563308466666667, 227.062245152206, -0.000448633309561618, 0.555,105.945724487305
0.056998, 227.06597648611, -0.000555684432488819, 0.5625,105.945724487305
0.0576642866666667, 227.069679710608, -0.000822932008874952, 0.56875,101.736129760742
0.0583311966666667, 227.072927032198, -0.00120497931905829, 0.575,108.575057983398
0.0589976766666667, 227.076249117777, -0.00140151294731674, 0.5825,107.337760925293
0.0596647733333333, 227.080347706854, -0.00117605027205543, 0.58875,105.514465332031
0.0603310833333333, 227.083391513452, -0.00146101045880148, 0.595,105.514465332031
0.0609981466666667, 227.086602837229, -0.00115876814012678, 0.60125,107.201393127441
0.061664555, 227.089617785173, -0.00138594822910612, 0.60875,111.688629150391
0.0623309416666667, 227.092366620716, -0.00130358886595617, 0.615,105.291534423828
0.0629977883333333, 227.095635501684, -0.00122789966777522, 0.62125,106.378791809082
0.0636648266666667, 227.098833084823, -0.000654823452786064, 0.6275,106.378791809082
0.0643311316666667, 227.102194067144, -0.000986956270112384, 0.635,109.246871948242
0.064997855, 227.105842795107, -0.000398250840142007, 0.64,103.77946472168
0.06566441, 227.110182598187, -0.000115561539346318, 0.6475,106.786354064941
0.0663313283333333, 227.114199899869, -0.000187770912359095, 0.655,102.930824279785
0.0669982883333333, 227.118353984565, -0.000568205803490117, 0.66125,102.930824279785
0.0676648433333333, 227.122495817396, -0.000491498156448075, 0.6675,131.006454467773
0.0683308866666667, 227.126997788179, -0.000988217706748065, 0.67375,103.060371398926
0.0689976966666667, 227.130984410934, -0.00136205592924834, 0.68125,106.176727294922
0.06966457, 227.135017248862, -0.00124245493667117, 0.6875,106.624938964844
0.0703313783333333, 227.138258236229, -0.00102578931958652, 0.69375,106.624938964844
0.0709980066666667, 227.141746629695, -0.00100690976789209, 0.70125,105.892227172852
0.0716647666666667, 227.145324632367, -0.000721621097659216, 0.7075,109.466537475586
0.0723311433333333, 227.148852013122, -0.000317200911251149, 0.7125,106.622421264648
0.0729977933333333, 227.152147504054, -0.000473338568594735, 0.72,105.151329040527
0.0736655683333333, 227.155920014181, -0.000556729879925414, 0.72625,105.151329040527
0.0743308433333333, 227.159622013381, -0.000516633893912452, 0.7325,105.354591369629
0.074998, 227.163836173305, -0.000739842182391836, 0.74,103.932838439941
0.0756645816666667, 227.167550677811, -0.00128569626473162, 0.7475,101.391189575195
0.0763333583333333, 227.171182513853, -0.00133877559861086, 0.75375,104.852760314941
0.07699777, 227.17547585331, -0.00153770460660891, 0.76,104.852760314941
0.0776640916666667, 227.179554069962, -0.00179172134760223, 0.76625,104.797973632813
0.0783309433333333, 227.183052636664, -0.00163579067982629, 0.77375,103.67667388916
0.0789985866666667, 227.186833734513, -0.00121802866357706, 0.78,107.761833190918
0.0796642783333333, 227.190834791577, -0.00116596027889439, 0.7875,108.096778869629
0.0803311666666667, 227.194336814995, -0.000837956754194132, 0.7925,108.096778869629
0.0809973816666667, 227.197323276122, -0.00035660543196543, 0.80125,107.228088378906
0.0816647616666667, 227.201170777794, -6.66234974883641E-05, 0.80625,110.448852539063
0.0823310733333333, 227.203978249748, -8.79374268931086E-05, 0.81125,107.885925292969
0.0829979716666667, 227.206864502082, 0.000193043459730967, 0.82,127.287803649902
0.083664745, 227.209975806116, 0.000112723994109512, 0.82625,127.287803649902
0.0843324266666667, 227.213274560678, -0.000181597222431327, 0.8325,103.623954772949
0.08499814, 227.216079881201, -0.000606287390668184, 0.84,106.120803833008
0.085664325, 227.219900305822, -0.000536875377156326, 0.84625,102.770462036133
0.0863311583333333, 227.223566615762, -0.00117905312126336, 0.8525,110.415023803711
0.0869978016666667, 227.226564993947, -0.00118627225864898, 0.85875,110.415023803711
0.0876647516666667, 227.229501619667, -0.00128228393607659, 0.8675,104.176918029785
0.0883311266666667, 227.233159186043, -0.00128143197886676, 0.87375,109.949249267578
0.0889978066666667, 227.235844281643, -0.0017352281851648, 0.87875,104.109443664551
0.0896647016666667, 227.238704849701, -0.00132836162162994, 0.885,103.238845825195
0.09033115, 227.241968111368, -0.0014159647214076, 0.89375,103.238845825195
0.0909981033333333, 227.244828319215, -0.00142375683002154, 0.9,103.51488494873
0.0916647916666667, 227.24718017985, -0.00118526580918311, 0.905,105.498611450195
0.092331095, 227.250520570237, -0.000965325856573536, 0.91125,114.840072631836
0.0929977983333333, 227.253216503173, -0.000983735931844729, 0.91875,106.825813293457
0.093664245, 227.256694347313, -0.00116368039341886, 0.925,106.825813293457
0.0943320166666667, 227.260156521125, -0.00110381690027346, 0.9325,106.71851348877
0.09499749, 227.263886603673, -0.00133080199905912, 0.94,108.373573303223
0.095664615, 227.266229197249, -0.00137326636612991, 0.94625,105.124885559082
0.096331155, 227.269435887883, -0.00177117987937143, 0.95125,109.001708984375
0.096998085, 227.271960666296, -0.00162321981127718, 0.9575,109.001708984375
0.0976647716666667, 227.2746656188, -0.00191341773493207, 0.965,106.787826538086
0.0983308483333333, 227.276847137525, -0.00212231074246254, 0.9725,107.228736877441
0.0989979733333333, 227.280520724511, -0.00215464311844649, 0.97875,105.444381713867
0.099664445, 227.283433799161, -0.00202155630324292, 0.98625,133.792572021484
0.100330998333333, 227.28613243379, -0.00198125332759855, 0.9925,105.561744689941
0.1009987, 227.289223253292, -0.00206601407016445, 0.99875,105.561744689941
0.101665298333333, 227.291815509667, -0.00170652262702556, 1.005,102.993339538574
0.10233086, 227.294133578441, -0.00160188638277017, 1.01125,105.931228637695
0.102997981666667, 227.296506429152, -0.00156664715278262, 1.0175,105.736671447754
0.10366476, 227.299499885133, -0.00142678817777187, 1.025,105.736671447754
0.104331156666667, 227.302292514652, -0.0011251533285655, 1.0325,107.074035644531
0.104997615, 227.304788470374, -0.00102136754163806, 1.03875,109.060050964355
0.105664655, 227.307436374447, -0.000764119962906262, 1.045,107.867034912109
0.106331151666667, 227.310422461524, -0.000668900245691098, 1.05,105.822830200195
0.106997595, 227.312497789315, -0.000866785306134444, 1.0575,105.822830200195
0.107664515, 227.314897588888, -0.000946767288743912, 1.06375,113.001754760742
0.108331061666667, 227.317552234773, -0.00117744670192991, 1.07125,105.509254455566
0.108998005, 227.320507410577, -0.00158945500716931, 1.07875,105.953651428223
0.10966403, 227.322692784782, -0.00179551915676514, 1.08375,104.820587158203
0.110330753333333, 227.325768449352, -0.00166083792166586, 1.09,104.820587158203
0.110998156666667, 227.328566745677, -0.00147379581660402, 1.0975,105.615455627441
0.111664275, 227.330931826008, -0.0017390634924803, 1.105,103.689926147461
0.112331205, 227.333313834721, -0.00148358132508995, 1.11,109.027801513672
0.112998323333333, 227.336062064045, -0.00136240091186109, 1.11625,105.507743835449
0.11366471, 227.338730402326, -0.0015562076771506, 1.12375,105.507743835449
0.1143308, 227.341274394159, -0.00166338479374893, 1.13125,107.611259460449
0.114998133333333, 227.344320396309, -0.00142589122280869, 1.13625,110.127830505371
0.11566463, 227.347914088136, -0.00153605618937092, 1.1425,104.679100036621
0.116331156666667, 227.350845461344, -0.0014184275977666, 1.15125,132.341918945313
0.11699793, 227.353723212633, -0.00125583126479486, 1.1575,104.142265319824
0.117664531666667, 227.356350660187, -0.00118281493234686, 1.16375,104.142265319824
0.1183314, 227.35963471758, -0.00100303696240274, 1.17125,105.265777587891
0.118998358333333, 227.362234538872, -0.00117801667335193, 1.17625,98.8725280761719
0.119664876666667, 227.365403758109, -0.0012089991171179, 1.1825,113.900184631348
0.120330886666667, 227.368787662413, -0.00118134950592858, 1.18875,113.900184631348
0.120997791666667, 227.372659421233, -0.00108938162537228, 1.1975,106.549942016602
0.121665265, 227.376720129828, -0.00135150245929792, 1.20375,113.614631652832
0.12233095, 227.380917291419, -0.00124264692699478, 1.21,102.136611938477
0.122997891666667, 227.385230065517, -0.00145581471977592, 1.21625,111.836776733398
0.123664446666667, 227.388746769891, -0.00140807661763186, 1.2225,111.836776733398
0.124330871666667, 227.392728607847, -0.00125420684636858, 1.22875,111.508033752441
0.124997796666667, 227.397060466347, -0.00125785766304624, 1.23625,104.053283691406
0.125665688333333, 227.401570719615, -0.000953998425567264, 1.2425,109.653694152832
0.126330716666667, 227.406233488539, -0.000504364510210902, 1.24875,108.094825744629
0.126997818333333, 227.411112023799, -0.000612545076383788, 1.255,108.094825744629
0.127664466666667, 227.415831337968, -0.000719107223891765, 1.26125,112.847999572754
0.128330871666667, 227.41962880189, -0.000483389563742547, 1.26875,100.428764343262
0.128998615, 227.423821313886, -0.000870115138947299, 1.27625,112.205635070801
0.12966454, 227.428672262988, -0.0013299470420855, 1.2825,103.050079345703
0.130331135, 227.432867847011, -0.00129544127525866, 1.2875,103.050079345703
0.130998651666667, 227.437477467042, -0.0013209429943412, 1.295,110.40544128418
0.131664156666667, 227.442047648511, -0.00119295292313132, 1.30125,104.419151306152
0.132331303333333, 227.446170951203, -0.000572887068381594, 1.3075,111.176116943359
0.132998035, 227.450267292955, -0.000179123846686527, 1.315,123.703521728516
0.133664436666667, 227.454608339338, -0.00034644494233618, 1.32125,107.177764892578
0.134330878333333, 227.458900608518, -0.000230503765940575, 1.3275,107.177764892578
0.134998071666667, 227.463555931204, -0.000295714490476268, 1.33375,106.041076660156
0.135664941666667, 227.467948408678, -0.000598687272484139, 1.34125,105.129814147949
0.136332381666667, 227.471939512555, -0.000457112383658513, 1.3475,109.886932373047
0.136998558333333, 227.476213776545, -0.00019668046488725, 1.35375,109.886932373047
0.137664805, 227.48068246717, -0.000148441387864977, 1.36125,109.853202819824
0.13833091, 227.485211217136, -0.000227484417606718, 1.3675,103.618049621582
0.138997665, 227.489384746474, -0.000282917133257246, 1.37375,107.754653930664
0.139665558333333, 227.493820852514, -0.000515346958519408, 1.38,105.427139282227
0.140330938333333, 227.498298660045, -0.000641123140927502, 1.3875,105.427139282227
0.140997993333333, 227.503105092327, -0.00102305045709481, 1.39375,115.08177947998
0.141664611666667, 227.507389616157, -0.00110163300995974, 1.4,101.702987670898
0.142331153333333, 227.512815247572, -0.0015012204391116, 1.40625,105.440635681152
0.142999628333333, 227.517555480332, -0.00144764613009427, 1.41375,110.61971282959
0.143664715, 227.522882697502, -0.00141021401026783, 1.41875,110.61971282959
0.144331213333333, 227.527996302824, -0.0012590486031712, 1.42625,109.466186523438
0.144998171666667, 227.533357008015, -0.00121513230906552, 1.43375,106.828735351563
0.145665498333333, 227.537256285331, -0.000808213248176546, 1.44,109.498222351074
0.146330833333333, 227.542178701553, -0.000908486211577703, 1.44625,112.325569152832
0.14699822, 227.546787021951, -0.000911699050202088, 1.4525,112.325569152832
0.147664261666667, 227.550620608333, -0.000710908635679533, 1.46,105.306480407715
0.14833114, 227.554895611562, -0.000491883637125983, 1.46625,108.657615661621
0.148998031666667, 227.55987294608, -0.000585802919628474, 1.4725,104.392120361328
0.14966476, 227.564958120907, -0.000540853177438914, 1.48,128.791534423828
0.150330791666667, 227.569447673982, -0.000406615920026763, 1.48625,106.333076477051
0.150997601666667, 227.574966067986, -0.000751090117447243, 1.4925,106.333076477051
0.151664268333333, 227.579487356544, -0.000580398691047101, 1.49875,107.852989196777
0.15233091, 227.583806723691, -0.000513061073367523, 1.50625,110.459632873535
0.152997803333333, 227.588026903457, -0.00063990070234756, 1.51375,103.611686706543
0.153664718333333, 227.593389788497, -0.00052798082395722, 1.52,103.611686706543
0.154331396666667, 227.597359674304, -0.000661255129732447, 1.52625,111.517364501953
0.154997763333333, 227.602674188965, -0.00115899462881794, 1.5325,102.842056274414
0.155664466666667, 227.607636843734, -0.00135061000417171, 1.53875,111.693542480469
0.156330838333333, 227.612282549857, -0.00107726523395986, 1.545,98.6616744995117
0.156998295, 227.616009407836, -0.00106120854050246, 1.5525,98.6616744995117
0.157664433333333, 227.620514543625, -0.000749530195770298, 1.55875,105.539535522461
0.15833127, 227.624535845558, -0.000645784906780484, 1.565,101.829612731934
0.158997785, 227.629367687686, -0.0005331405647971, 1.5725,108.795104980469
0.15966538, 227.633025114853, -0.000485907937240699, 1.57875,104.714668273926
0.160331175, 227.638104648743, -0.000622275087624288, 1.585,104.714668273926
