Time (min), Depth (µm), Load (N), Position (µm), Acoustic (aJ)
8.445E-06, 226.841312929861, -0.000842794441194367, 0,108.547592163086
0.000665888333333333, 226.841686205548, -0.000814751849705124, 0.00125,107.393157958984
0.00133199333333333, 226.83958079437, -0.000801141533353266, 0.005,107.772346496582
0.00216537, 226.836832690451, -0.000642482502620214, 0.015,105.468353271484
0.0028319, 226.834469820496, -0.000406370362267923, 0.02625,106.987495422363
0.003499185, 226.833253275949, -0.000325209438886208, 0.0325,109.453201293945
0.004166715, 226.833264333201, -0.000371041136858678, 0.03875,109.453201293945
0.00483295, 226.836766113937, -0.000526904308015214, 0.04625,108.663749694824
0.00549873, 226.841869835491, -0.000509085203086429, 0.05375,101.916152954102
0.00616633166666667, 226.848014605992, -0.000619433160425851, 0.06,109.521789550781
0.006832855, 226.852897569376, -0.000609350666844316, 0.065,108.493804931641
0.00749993166666667, 226.858109307297, -0.000760693065063031, 0.07375,108.493804931641
0.00816492, 226.862337779074, -0.000844697845559659, 0.08,106.759628295898
0.00883206833333333, 226.86646233466, -0.000854369359748431, 0.085,104.574508666992
0.009498285, 226.869834959511, -0.000527175794310949, 0.09125,130.553237915039
0.0101649416666667, 226.873568716307, -0.000605108879824247, 0.09875,109.8623046875
0.01083293, 226.877544281957, -0.000444888427532354, 0.10625,109.8623046875
0.01149952, 226.882180083346, -0.000450651138109868, 0.1125,110.691940307617
0.012164895, 226.886420780733, -0.000647432254001129, 0.11875,108.419853210449
0.012832325, 226.891081117576, -0.000710375092477776, 0.12625,109.023193359375
0.01349976, 226.895761448336, -0.00056760626363587, 0.1325,108.880393981934
0.0141654283333333, 226.900609572183, -0.000750310586600844, 0.1375,108.880393981934
0.0148329216666667, 226.904613086406, -0.000592137531480718, 0.14625,111.09415435791
0.015499705, 226.909575814577, -0.00059133207192739, 0.1525,105.886138916016
0.01616474, 226.914495951021, -0.00102103498839135, 0.15875,117.686019897461
0.0168316366666667, 226.919218634717, -0.000848272166071499, 0.16625,105.487396240234
0.0174981916666667, 226.924216384964, -0.000856598247836754, 0.1725,105.487396240234
0.0181649816666667, 226.929927151097, -0.000910924019107644, 0.17875,106.695602416992
0.0188331516666667, 226.934809189195, -0.000824063381994606, 0.185,107.159957885742
0.0194983583333333, 226.940103729633, -0.000551158089717934, 0.19125,107.59635925293
0.02016625, 226.944431652933, -0.000785329327509835, 0.19875,104.807518005371
0.0208328816666667, 226.949712920064, -0.000962794413620303, 0.205,104.807518005371
0.021498115, 226.954247614725, -0.000943964359452435, 0.21125,105.438110351563
0.0221659116666667, 226.959471927307, -0.00113784462108021, 0.2175,110.003852844238
0.0228315366666667, 226.964132523014, -0.00105597423332822, 0.225,106.851425170898
0.02349952, 226.969818188481, -0.00120335383061466, 0.23125,110.803291320801
0.024164945, 226.974965840053, -0.000912054962256479, 0.2375,110.803291320801
0.0248315533333333, 226.980471739432, -0.00102217343111969, 0.245,114.598045349121
0.0254989616666667, 226.985750717463, -0.000943206897501266, 0.25125,105.5146484375
0.0261657283333333, 226.991370916888, -0.000914928817901966, 0.2575,124.927268981934
0.0268320866666667, 226.996896324977, -0.000713077956635021, 0.26375,103.476287841797
0.0274996716666667, 227.001960757703, -0.000735555827610488, 0.27125,103.476287841797
0.02816631, 227.007828611245, -0.000525338386598147, 0.2775,111.71720123291
0.028832865, 227.013029954997, -0.000510990107291107, 0.28375,103.725234985352
0.029498675, 227.018360151709, -0.000769310132141263, 0.29125,111.036483764648
0.030164785, 227.023299730355, -0.000803724403579504, 0.2975,102.225219726563
0.0308328883333333, 227.029112199408, -0.00108360884529477, 0.3025,102.225219726563
0.031498425, 227.033731565644, -0.00128296983158471, 0.31,107.13939666748
0.032165345, 227.038544523784, -0.00126018147625777, 0.3175,104.678245544434
0.03283298, 227.043327118084, -0.000981388979699367, 0.32375,110.79719543457
0.03349898, 227.047710646315, -0.000752908456028606, 0.33,107.49520111084
0.034164985, 227.051827999645, -0.000114864504278335, 0.33625,107.49520111084
0.034832875, 227.055886947801, 0.000175370917529153, 0.3425,112.052925109863
0.0355000266666667, 227.060245374179, 0.000399240672819152, 0.34875,107.52254486084
0.0361663016666667, 227.064409870044, 0.000399524158573876, 0.35625,108.817199707031
0.03683204, 227.069719657618, 0.000192546554846432, 0.36375,106.414695739746
0.037498295, 227.074005766098, -0.000168620304148463, 0.37,106.414695739746
0.0381648366666667, 227.079525490293, -0.000421218116422502, 0.375,101.919189453125
0.0388323233333333, 227.083781924669, -0.000397897287804878, 0.3825,102.434745788574
0.039499645, 227.08811140632, -7.61709477524519E-05, 0.38875,103.460975646973
0.0401664016666667, 227.092189920941, -6.12391977887826E-05, 0.39625,101.273826599121
0.0408331016666667, 227.096958154729, -0.000245333950866863, 0.4025,101.273826599121
0.0414996583333333, 227.100553428828, 1.53564911219182E-06, 0.40875,104.81502532959
0.0421653933333333, 227.105069034032, -0.000240526692346766, 0.41625,108.529983520508
0.0428316, 227.11023830685, -0.00061941816103304, 0.42125,133.459701538086
0.0434995783333333, 227.1148436139, -0.00074669276813253, 0.42875,133.459701538086
0.0441653483333333, 227.118343124675, -0.00052159457458623, 0.435,103.265007019043
0.04483205, 227.1221996258, -0.000173370565519982, 0.44125,107.380516052246
0.0454982716666667, 227.126001596868, 7.62168979453661E-05, 0.4475,113.032897949219
0.04616576, 227.128822747007, 0.000193842489743387, 0.455,106.095108032227
0.0468314966666667, 227.131750604664, 0.000424703393803438, 0.46125,111.161125183105
0.0474987666666667, 227.135201719751, 0.000648909132159767, 0.4675,111.161125183105
0.0481663616666667, 227.139192867855, 0.000350755608130982, 0.475,108.130249023438
0.04883199, 227.142446956339, 0.000230409153019115, 0.48125,106.921928405762
0.0494998516666667, 227.14627255029, 7.06911754660758E-05, 0.4875,107.651298522949
0.0501649333333333, 227.15023989308, -0.000291332140490603, 0.495,104.665153503418
0.0508330533333333, 227.154304403345, -0.000602347518530259, 0.50125,104.665153503418
0.0514985866666667, 227.158327325707, -0.000705962314075736, 0.50625,108.977798461914
0.0521650466666667, 227.162618689037, -0.000498882715446362, 0.51375,105.805313110352
0.0528323516666667, 227.166416878708, -3.88318233240303E-05, 0.52125,108.204849243164
0.05349843, 227.170246428499, 0.000221813084755003, 0.5275,113.273773193359
0.0541661933333333, 227.173902449146, 0.000367959743990669, 0.53375,113.273773193359
0.0548314733333333, 227.177057112372, 0.000394545908629299, 0.54,109.123725891113
0.0554987483333333, 227.180178200367, 0.000165816397465089, 0.5475,102.803787231445
0.05616596, 227.183494954699, 0.000114907454579935, 0.55375,109.082801818848
0.056834925, 227.186631625201, 0.000285684376649808, 0.56,103.426414489746
0.057498745, 227.189443470225, 0.000462808979899482, 0.5675,103.426414489746
0.0581662466666667, 227.191865034608, 0.000827299671882094, 0.57375,105.40958404541
0.0588314833333333, 227.195028859738, 0.000861695944206242, 0.58,104.937217712402
0.0595001033333333, 227.1980832106, 0.000624788843835208, 0.58625,137.319519042969
0.06016557, 227.201596018404, 0.000315967855580092, 0.5925,137.319519042969
0.06083315, 227.205124352829, 8.0991158213608E-05, 0.6,109.017631530762
0.06149982, 227.208895505903, -9.50714983460184E-05, 0.60625,112.718162536621
0.062166445, 227.212531978775, -0.000616173823932424, 0.6125,107.688827514648
0.062831795, 227.215655198299, -0.000787610712846002, 0.62,102.221252441406
0.0634997533333333, 227.218894887429, -0.000853374909592767, 0.62625,101.530891418457
0.064166385, 227.222095251838, -0.00102253791270718, 0.6325,101.530891418457
0.064831795, 227.225339628984, -0.0011336118335853, 0.63875,109.006065368652
0.0655001733333333, 227.228461030912, -0.000849938582189789, 0.645,101.37084197998
0.0661664733333333, 227.232077335239, -0.000857408207035767, 0.6525,102.416648864746
0.06683361, 227.235316468895, -0.000552118041442289, 0.66,106.998878479004
0.06750009, 227.238223473158, -0.000471861572645771, 0.66625,106.998878479004
0.0681650683333333, 227.241289353565, -0.000639331160811346, 0.6725,108.149055480957
0.0688317283333333, 227.244526641343, -0.000460405148098311, 0.67875,111.768714904785
0.0694984466666667, 227.24687919354, -0.000305251441312041, 0.68625,113.661323547363
0.0701655633333333, 227.249969189479, -0.000329716712440637, 0.6925,105.6240234375
0.0708321083333333, 227.253428175737, -0.000270697676904297, 0.69875,105.6240234375
0.0714983183333333, 227.256148432661, 0.000120343181531267, 0.705,112.366928100586
0.07216581, 227.258886933343, 0.000119026247692666, 0.7125,107.466644287109
0.072833075, 227.262349658039, 1.77363353760665E-05, 0.7175,104.732398986816
0.0735002316666667, 227.265090114002, 5.95257363378639E-05, 0.725,105.722610473633
0.07416512, 227.267667178491, 0.000445156366494443, 0.7325,105.722610473633
0.0748317116666667, 227.271321844963, -3.252110411917E-06, 0.73875,107.171478271484
0.0754986183333333, 227.274504941827, 8.10886532360574E-05, 0.745,107.766906738281
0.076166345, 227.277504978897, 0.000120782659466438, 0.75125,127.01439666748
0.0768318716666667, 227.280493903031, 4.3629534812867E-05, 0.7575,111.435401916504
0.0774987183333333, 227.283690949347, -0.000284328992155293, 0.76375,111.435401916504
0.0781664316666667, 227.286407937195, -4.12587013273129E-05, 0.77125,110.46068572998
0.0788331166666667, 227.289103799969, 1.45165338811763E-06, 0.78,105.261238098145
0.07949958, 227.292097300273, 0.000150268178486664, 0.78375,106.089874267578
0.080165765, 227.295124800036, 0.000177277321828267, 0.79,105.233047485352
0.0808333833333333, 227.298019187042, 5.32890496489212E-05, 0.7975,105.233047485352
0.08149953, 227.300504028851, 0.000425787839444551, 0.805,108.057655334473
0.0821656166666667, 227.303401422205, 0.000340770609784437, 0.8125,107.277847290039
0.0828333683333333, 227.306107231216, 0.000357952246799329, 0.81875,108.439735412598
0.0834999216666667, 227.308431103226, 0.000270269651007036, 0.825,114.461143493652
0.0841667433333333, 227.312178062545, 0.000306081852222908, 0.83125,114.461143493652
0.08483334, 227.314647934082, 3.06257257979041E-06, 0.8375,109.223709106445
0.0855002033333333, 227.317454959127, 0.000257440795439308, 0.84375,102.560356140137
0.0861653983333333, 227.320085716917, 0.00011221059020532, 0.85125,106.204032897949
0.0868332466666667, 227.323259421809, 0.000149855699297022, 0.8575,104.833183288574
0.0875000833333333, 227.324821478674, 0.000354331428673496, 0.86375,104.833183288574
0.0881655883333333, 227.32796128244, 0.000416579801960148, 0.87,108.996849060059
0.0888350433333333, 227.330832069849, 0.00016802128676296, 0.8775,110.188758850098
0.0895020466666667, 227.333755101714, 0.000160260676561496, 0.885,109.247077941895
0.090169805, 227.336344734809, 4.71933557901223E-05, 0.89125,107.629814147949
0.0908349633333333, 227.339544233818, -0.000115851454641949, 0.8975,107.629814147949
0.09150212, 227.342443606705, -0.00021494247735829, 0.90375,104.571990966797
0.0921683616666667, 227.345473551961, -0.000112830606319927, 0.91,137.007858276367
0.0928347766666667, 227.348062358087, 7.64853845198198E-05, 0.91625,110.181221008301
0.09350151, 227.350858253317, 0.000278405242309315, 0.925,107.09716796875
0.0941690383333333, 227.353546425021, 0.000523065453281051, 0.93125,107.09716796875
0.09483476, 227.356181633396, 0.000653617395796774, 0.93625,109.078498840332
0.0955025983333333, 227.358327311565, 0.000257668783884841, 0.9425,110.644996643066
0.0961685083333333, 227.361311319063, 3.85267911640741E-05, 0.95125,105.896942138672
0.0968347733333333, 227.363567764379, -5.99732612523673E-05, 0.9575,112.788055419922
0.0975026833333333, 227.366708296854, -0.000290276193434407, 0.965,112.788055419922
0.0981681833333333, 227.369497220481, -0.000452013069553042, 0.97,106.046928405762
0.0988349633333333, 227.372144195846, 1.55434455796921E-05, 0.97625,114.820907592773
0.0995024916666667, 227.374535123715, 0.000279446189993954, 0.9825,104.707992553711
0.10016826, 227.377453042564, 0.000614428864154054, 0.99125,112.994262695313
0.100835021666667, 227.379100374564, 0.000642426457889944, 0.99875,112.994262695313
0.10150148, 227.381464168424, 0.000794442322271992, 1.0025,108.006935119629
0.102172033333333, 227.383739175528, 0.000868351109931218, 1.00875,114.059020996094
0.102835318333333, 227.385745889266, 0.000970630972524001, 1.01625,109.937507629395
0.103502931666667, 227.387591857754, 0.00078769866098597, 1.025,111.95588684082
0.10416826, 227.389916267219, 0.000725438288261583, 1.02875,111.95588684082
0.10483659, 227.392669150867, 0.000733186899004059, 1.03625,101.667198181152
0.105501425, 227.394375402986, 0.000639645597472444, 1.0425,103.868698120117
0.10616872, 227.397038686024, 0.000610470562909963, 1.05,106.885192871094
0.106834866666667, 227.398870640597, 0.000780220036593572, 1.0575,113.119689941406
0.107501595, 227.401407727307, 0.000876027724302338, 1.0625,113.119689941406
0.108168125, 227.402705050216, 0.000769377081297077, 1.07,115.186363220215
0.108835481666667, 227.405503040138, 0.000436668292936144, 1.07625,129.993743896484
0.109501656666667, 227.408239826487, 0.000209228717035039, 1.08125,104.418472290039
0.110170248333333, 227.41142165756, -0.000234679985917654, 1.09,103.677864074707
0.110836613333333, 227.413814503709, -0.000138803301728846, 1.09625,103.677864074707
0.111501553333333, 227.417335158544, -7.17296707654956E-05, 1.10125,105.838829040527
0.112169676666667, 227.42071479924, 0.000220397155990803, 1.10875,104.261863708496
0.11283483, 227.423668381701, 0.000412086027640332, 1.11625,102.41926574707
0.11350205, 227.427592075852, 0.000728349642080913, 1.1225,107.260208129883
0.11416971, 227.431173576397, 0.000574862351582966, 1.12875,107.260208129883
0.114834941666667, 227.43446566053, 0.000774256336209785, 1.135,109.765190124512
0.115502945, 227.437368313329, 0.000525984306679889, 1.14125,100.351028442383
0.116169765, 227.441129922487, 0.000488531187911803, 1.1475,113.790405273438
0.116835003333333, 227.444198930788, 0.000578214683198108, 1.15625,100.896095275879
0.117502888333333, 227.447791590367, 0.000621009033680121, 1.1625,100.896095275879
0.11816826, 227.451447584452, 0.000883453851361876, 1.1675,109.552841186523
0.118836985, 227.455879534661, 0.000715366294214633, 1.17375,107.509330749512
0.11950146, 227.459236885109, 0.00067215646463041, 1.18125,111.647087097168
0.120168646666667, 227.463105725702, 0.000428747190823532, 1.18875,105.194175720215
0.120836278333333, 227.466643575212, 0.000545639319460835, 1.195,105.194175720215
0.121501686666667, 227.470258018648, 0.000182807544123275, 1.2,107.322166442871
0.122168493333333, 227.473488839577, 0.000244844428069068, 1.2075,103.724418640137
0.122834925, 227.477561602331, 0.000279290197898524, 1.21375,108.573638916016
0.123501883333333, 227.480854371147, 0.000433714941297285, 1.22,110.330993652344
0.12416825, 227.484387196666, 0.000295861365532511, 1.22875,110.330993652344
0.124836243333333, 227.488370955548, -2.80158664329987E-05, 1.235,106.993713378906
0.125501676666667, 227.491833058124, 9.30520524443599E-05, 1.24125,130.574554443359
0.126169843333333, 227.494846315373, -0.000143520564763494, 1.24625,106.656967163086
0.126834823333333, 227.498395645421, 4.54879415310773E-05, 1.25375,111.890045166016
0.127502491666667, 227.5018050819, -0.000203673543382491, 1.26,111.890045166016
0.128168273333333, 227.505122098407, 6.07421752839552E-05, 1.26625,105.600517272949
0.12883495, 227.508677345016, 0.000264508440290163, 1.27375,107.172912597656
0.129501763333333, 227.512627848371, 0.000435448854119992, 1.28,102.795471191406
0.130170431666667, 227.516904026391, 0.000349153688634507, 1.28625,106.437713623047
0.13083526, 227.520942907243, 0.000408681198628568, 1.29375,106.437713623047
0.131501636666667, 227.524813193497, 0.000357424273196842, 1.3,109.660758972168
0.132168316666667, 227.529177466515, 0.000315907858540199, 1.30625,109.884231567383
0.132836256666667, 227.533067411572, 0.00020218207087078, 1.3125,103.647407531738
0.133501833333333, 227.537013647876, 6.86017804535262E-05, 1.31875,101.193992614746
0.134168676666667, 227.541743179437, 2.56274390006141E-05, 1.32625,101.193992614746
0.134835641666667, 227.545372756617, 7.84142875787126E-05, 1.3325,114.477951049805
0.135501735, 227.549857605982, -0.0001299072486691, 1.33875,106.884773254395
0.136168213333333, 227.55429224528, -0.000269788722567144, 1.34625,105.614524841309
0.136836455, 227.559151739607, -0.000299667221802278, 1.3525,105.614524841309
0.137501845, 227.563166551412, -0.000300535678180543, 1.35875,104.348937988281
0.138168205, 227.568247986336, 9.23626229501747E-06, 1.365,110.709045410156
0.138837845, 227.57245346927, 0.000371759053205506, 1.3725,113.477027893066
0.139504425, 227.576895838336, 0.000581301528087603, 1.37875,103.921279907227
0.140170301666667, 227.581427394253, 0.000328916705078827, 1.385,108.174476623535
0.140836946666667, 227.586201848082, 0.000529362136903616, 1.3925,108.174476623535
0.141503006666667, 227.59081606136, 0.000241690086347632, 1.39875,111.973861694336
0.142169996666667, 227.595770406144, 7.51009539555472E-05, 1.405,123.879539489746
0.142836353333333, 227.60086893882, 0.000255154910053628, 1.41125,109.916397094727
0.14350442, 227.606420371638, 0.000458003221197518, 1.4175,108.23624420166
0.144169773333333, 227.612704259019, 0.00017435546851686, 1.42375,108.23624420166
0.144836945, 227.618406256669, -7.54374846342424E-05, 1.43125,106.878837585449
0.145504505, 227.624737020911, -0.00021019521589934, 1.43875,105.683700561523
0.146170371666667, 227.63058592545, -0.000628779190891592, 1.445,107.305480957031
0.146836273333333, 227.635788629435, -0.000324157991688237, 1.45125,108.065200805664
0.147503008333333, 227.640220426381, -0.000256064411939384, 1.4575,108.065200805664
0.148169735, 227.644950086601, -0.000229361253218554, 1.46625,106.811653137207
0.148836876666667, 227.649148907957, -0.000260789174617302, 1.4725,109.860092163086
0.149503331666667, 227.653281100892, 2.92602564791651E-05, 1.4775,107.394859313965
0.150170265, 227.65736910611, -5.76183797267117E-05, 1.48375,105.525100708008
0.150838118333333, 227.661406337369, 7.65153828591062E-05, 1.49125,105.525100708008
0.151502996666667, 227.665831289575, 0.000397299770195, 1.4975,107.158660888672
0.152169971666667, 227.67034248851, 0.000401328567822282, 1.50375,111.223731994629
0.152836625, 227.675227894254, 0.000106980352642184, 1.51125,103.593414306641
0.153503016666667, 227.679521919663, 5.15581364412254E-05, 1.5175,107.214820861816
0.154169938333333, 227.68513942772, -0.000133900048216974, 1.52375,107.214820861816
0.154837786666667, 227.689975472891, -0.000429916179631051, 1.53125,106.742080688477
0.15550295, 227.695031129258, -0.000440570144516498, 1.5375,111.291786193848
0.156171276666667, 227.699632624704, -5.8701325379659E-05, 1.54375,114.018829345703
0.15683685, 227.70439360096, 4.08171759403896E-05, 1.55125,105.057723999023
0.157503361666667, 227.708317875907, 0.00022744230197561, 1.55875,105.057723999023
0.15817015, 227.712654675287, 0.000244913424421585, 1.56375,105.692611694336
0.158836583333333, 227.717148518413, 0.000260442144425276, 1.57,133.851486206055
0.159503401666667, 227.722362306912, -6.83698396558621E-05, 1.57625,107.529151916504
0.160171765, 227.726985237706, -1.69329232957448E-05, 1.58375,111.646118164063
0.160836738333333, 227.732389623964, -0.000104344032707286, 1.59,111.646118164063
0.161504368333333, 227.737287509668, 0.000155873396831802, 1.59625,108.141464233398
