Time (min), Depth (µm), Load (N), Position (µm), Acoustic (aJ)
8.05166666666667E-06, 226.870493588776, -0.000778037583950945, 0,109.161590576172
0.00066175, 226.870620895734, -0.000486446230291625, 0,112.173316955566
0.00132866166666667, 226.86862749666, -0.000446774722948548, 0.005,112.173316955566
0.00216193, 226.865805964065, -0.000373356410696711, 0.015,107.18433380127
0.00282843166666667, 226.86276133931, -0.000369192619830628, 0.02625,115.181243896484
0.003495615, 226.862334617089, -0.00055427282345419, 0.0325,109.314949035645
0.004161905, 226.86306333931, -0.000916968105671053, 0.03875,134.227783203125
0.00482854, 226.866230671701, -0.000962483319466912, 0.04625,134.227783203125
0.00549512333333333, 226.871479718926, -0.00105174083615893, 0.0525,104.17121887207
0.006161885, 226.877393312572, -0.00109687806894141, 0.06,112.15843963623
0.00682855333333333, 226.881831553239, -0.000988965989257955, 0.06625,108.388603210449
0.00749657833333333, 226.8886280819, -0.000990743399994627, 0.0725,105.126655578613
0.00832873, 226.892785612472, -0.00100858650373512, 0.08,105.619110107422
0.008996515, 226.897122482791, -0.00101838701148633, 0.08875,110.659378051758
0.00966171, 226.901213971564, -0.00116061436753365, 0.095,110.659378051758
0.0103291933333333, 226.905978526321, -0.00103960644565367, 0.10125,108.79248046875
0.01099504, 226.910061709632, -0.000975837148724559, 0.1075,107.247032165527
0.0116627116666667, 226.91483761644, -0.000969730955416192, 0.115,104.82780456543
0.0123285783333333, 226.919672772579, -0.00114246377924798, 0.12125,107.488014221191
0.0129950566666667, 226.924535788735, -0.00135836743462951, 0.1275,107.488014221191
0.0136622116666667, 226.928805536711, -0.00133487561456615, 0.13375,103.856094360352
0.01432861, 226.933330480154, -0.00124762649699016, 0.14125,106.050117492676
0.0149955033333333, 226.938151995493, -0.00136670401584433, 0.14625,107.070793151855
0.015661915, 226.942009841718, -0.00126160879467904, 0.1525,103.323799133301
0.0163284116666667, 226.945598011658, -0.000716458177054416, 0.16125,103.323799133301
0.01699504, 226.949974525578, -0.000800164472573542, 0.1675,106.103973388672
0.0176621916666667, 226.954813905997, -0.000894319243271106, 0.17375,107.423400878906
0.0183285183333333, 226.95939226292, -0.000853111813062789, 0.18,109.779731750488
0.018995265, 226.965089157314, -0.000850230457816541, 0.18625,109.779731750488
0.0196621383333333, 226.970442020901, -0.00117300674512128, 0.19375,110.279708862305
0.020328785, 226.976075104275, -0.00119352871431358, 0.2,87.4599914550781
0.0209951866666667, 226.981292379009, -0.00108935144703187, 0.2075,127.973785400391
0.02166183, 226.98691934298, -0.0013071855054817, 0.21375,107.979568481445
0.0223288633333333, 226.992163219603, -0.00136881590985045, 0.21875,103.762649536133
0.0229951583333333, 226.997258064927, -0.0010717948288949, 0.22625,103.762649536133
0.023661885, 227.002738246014, -0.000844121264744383, 0.2325,106.966331481934
0.0243285083333333, 227.007903149851, -0.000728304582074248, 0.24,100.803230285645
0.0249950516666667, 227.012957189531, -0.000547082184674743, 0.24625,113.073028564453
0.0256622333333333, 227.01778808218, -0.000442853919963317, 0.2525,113.073028564453
0.02632869, 227.023528203346, -0.000655528237573277, 0.26,115.449005126953
0.0269950083333333, 227.02869645759, -0.000749224031297174, 0.26625,108.242225646973
0.027663365, 227.034356848408, -0.000991527860627564, 0.2725,107.479370117188
0.028328645, 227.039993811025, -0.000871688380049014, 0.27875,103.476669311523
0.028995175, 227.045471593932, -0.000741169435848908, 0.285,103.476669311523
0.0296623566666667, 227.050714691226, -0.000854127262096336, 0.2925,105.958808898926
0.0303285666666667, 227.056032298799, -0.000916557126299544, 0.29875,106.041145324707
0.030995065, 227.0612610363, -0.00107878447782557, 0.305,106.692771911621
0.0316618266666667, 227.066144594115, -0.00139708798975214, 0.3125,109.656600952148
0.0323286783333333, 227.071092528551, -0.00179865681935951, 0.32,109.656600952148
0.033161905, 227.076404720284, -0.00189715687183972, 0.32625,106.918678283691
0.03382879, 227.080516413287, -0.0017042740601314, 0.3325,106.918678283691
0.03449506, 227.084656287468, -0.0014585204040784, 0.33875,101.718109130859
0.0351617233333333, 227.088990369263, -0.00118064436150042, 0.34625,105.506828308105
0.0358294983333333, 227.092908824911, -0.000790818442086547, 0.3525,111.674392700195
0.0364950333333333, 227.096463610703, -0.000760483965726553, 0.36,105.723091125488
0.0371622383333333, 227.10134540947, -0.000987965539574712, 0.36625,105.723091125488
0.037828875, 227.105564507294, -0.000822252363161654, 0.3725,126.554595947266
0.0384949966666667, 227.109299629303, -0.000573455359984348, 0.38,107.149101257324
0.039161955, 227.113685837915, -0.000716524173770668, 0.3875,112.100288391113
0.039995755, 227.12049440439, -0.000695387235445508, 0.39375,112.121604919434
0.0406618666666667, 227.125040411351, -0.000908981006842189, 0.4,107.660720825195
0.0413298666666667, 227.128988399166, -0.000966801602589039, 0.4075,107.660720825195
0.041995115, 227.133793339249, -0.0011428777585108, 0.415,111.592872619629
0.0426620633333333, 227.137902719062, -0.00107893447028715, 0.42125,105.699897766113
0.0433289016666667, 227.141805155822, -0.00100472419778036, 0.42625,106.332023620605
0.0439965183333333, 227.145547862351, -0.00105851299600861, 0.43375,112.43953704834
0.0446620683333333, 227.150103632323, -0.00137714199161571, 0.44,112.43953704834
0.0453284933333333, 227.153577982084, -0.00119687204633979, 0.44625,110.354873657227
0.045995355, 227.157410002042, -0.00132769697516067, 0.45375,104.674819946289
0.046661935, 227.160688235782, -0.0016169754450076, 0.46,106.566352844238
0.04732854, 227.164821555434, -0.00153114375622648, 0.46625,106.641235351563
0.0479952833333333, 227.167850371608, -0.0014875019483291, 0.47375,106.641235351563
0.0486619166666667, 227.171776253466, -0.00143645201252879, 0.48,104.412803649902
0.0493286816666667, 227.175114983795, -0.00121745101270193, 0.48625,111.386138916016
0.0499956666666667, 227.178941207145, -0.000992984287435668, 0.4925,102.628570556641
0.0506620533333333, 227.182264074745, -0.00113671456801135, 0.49875,111.847389221191
0.0513288483333333, 227.185933467948, -0.00113776901503687, 0.505,111.847389221191
0.0519950066666667, 227.189420502735, -0.00113012389907822, 0.5125,106.821189880371
0.0526619583333333, 227.192831387442, -0.00132069532687729, 0.51875,105.384544372559
0.0533287483333333, 227.196533493235, -0.00159060526956805, 0.52625,107.260696411133
0.0539950533333333, 227.199935039333, -0.00128905591607392, 0.5325,125.529693603516
0.05466187, 227.203385574195, -0.00131042534274535, 0.53875,125.529693603516
0.0553286433333333, 227.206855689271, -0.0013132602003351, 0.545,115.190437316895
0.0559950283333333, 227.210233077581, -0.00114883995899144, 0.5525,105.174369812012
0.0566620866666667, 227.213528856712, -0.00114185630977964, 0.55875,113.479103088379
0.057328625, 227.217038593353, -0.00153508705824779, 0.565,116.836883544922
0.0579956233333333, 227.220535693896, -0.00136218774280724, 0.57125,116.836883544922
0.0586620616666667, 227.223485700574, -0.00135892390675315, 0.57875,102.896636962891
0.0593285, 227.227070370055, -0.00135796095511622, 0.585,104.22265625
0.0599951166666667, 227.230087870708, -0.00121095783891877, 0.59125,113.24031829834
0.0606619183333333, 227.233350434193, -0.000909196996062529, 0.59875,104.32315826416
0.0613287316666667, 227.236160747125, -0.00111749603338053, 0.605,104.32315826416
0.0619956816666667, 227.239396656935, -0.0011041707027078, 0.61125,105.542556762695
0.0626619816666667, 227.242469014326, -0.00138301719654472, 0.6175,113.942115783691
0.06332898, 227.245797324313, -0.00122240376401666, 0.62375,113.094039916992
0.063995095, 227.248497765348, -0.00127425015982389, 0.63125,111.118995666504
0.0646622466666667, 227.251893191655, -0.00125087083417579, 0.6375,111.118995666504
0.0653289633333333, 227.255505149544, -0.00132413615413849, 0.645,108.671836853027
0.0659955533333333, 227.258481577802, -0.00116193130152103, 0.65,111.518783569336
0.0666621916666667, 227.26154058135, -0.00130344319356422, 0.65625,103.068733215332
0.0673288483333333, 227.265277290754, -0.00139657951540069, 0.665,112.375732421875
0.0679955816666667, 227.268509420848, -0.00136957787159609, 0.6725,112.375732421875
0.0686624266666667, 227.271550097572, -0.00111884296572845, 0.67625,118.400321960449
0.0693285166666667, 227.274896753153, -0.00117508864057558, 0.6825,101.470596313477
0.0699959, 227.278194572805, -0.00128767748533479, 0.69,131.982971191406
0.0706622233333333, 227.281156573042, -0.00137085580737895, 0.6975,109.085830688477
0.07132853, 227.283978000307, -0.00147365914367348, 0.70375,109.085830688477
0.07199515, 227.287107736582, -0.0018107342127587, 0.71125,107.850875854492
0.0726631716666667, 227.289697207776, -0.00204109114213424, 0.7175,108.083740234375
0.0733297383333333, 227.292370413573, -0.00194155614164576, 0.72375,107.445152282715
0.0739955466666667, 227.294603624877, -0.00167704592772065, 0.73,107.950378417969
0.07466174, 227.296685663559, -0.00131735349471172, 0.7375,107.950378417969
0.0753291766666667, 227.298644603162, -0.00125852944939031, 0.7425,110.891738891602
0.0759964433333333, 227.301268810861, -0.000680609977695374, 0.75,111.445655822754
0.076663155, 227.303543102634, -0.000572109927560831, 0.7575,102.529914855957
0.0773288283333333, 227.306477888925, -0.000346254272042107, 0.76375,103.549591064453
0.07799521, 227.309434113089, -0.000514406325917435, 0.77,103.549591064453
0.0786618183333333, 227.312745550747, -0.000414829327566913, 0.77625,103.082389831543
0.0793287716666667, 227.315191267154, -0.000520067041614273, 0.78375,105.336479187012
0.0799959883333333, 227.317826465139, -0.00031503784004798, 0.79,109.996940612793
0.0806631566666667, 227.320691171067, -0.000733617315245768, 0.79625,102.71639251709
0.0813284916666667, 227.323759244223, -0.000645432244672112, 0.8025,102.71639251709
0.0819956283333333, 227.326256913464, -0.000678909063188284, 0.81,105.961647033691
0.0826628366666667, 227.329480405391, -0.000859150509836772, 0.81625,104.600830078125
0.0833291033333333, 227.332597888777, -0.00102563914725133, 0.8225,107.47696685791
0.0839956033333333, 227.335052125026, -0.000798517555323716, 0.83125,105.40234375
0.0846618933333333, 227.338214296977, -0.00108521615479321, 0.83625,105.40234375
0.0853283483333333, 227.341412340987, -0.00145334266420945, 0.84125,106.947105407715
0.085995585, 227.34493777969, -0.00165003378461526, 0.84875,107.220146179199
0.086662945, 227.34753585487, -0.00165416007737126, 0.8575,128.421585083008
0.0873293366666667, 227.351089658945, -0.00166590748731671, 0.86375,111.600036621094
0.087996345, 227.354109622016, -0.00140254471573013, 0.86875,111.600036621094
0.0886618316666667, 227.35675297744, -0.00121400268600999, 0.875,112.76358795166
0.0893297816666667, 227.359117389035, -0.00110108985751592, 0.8825,108.393028259277
0.0899950233333333, 227.362139901258, -0.00109520865291055, 0.88875,113.245384216309
0.0906624433333333, 227.364374084906, -0.00104037140733313, 0.89625,110.869857788086
0.0913290766666667, 227.366814604317, -0.00113494615696988, 0.90375,110.869857788086
0.0919955883333333, 227.36941272503, -0.00099613112949258, 0.91,114.935821533203
0.0926620233333333, 227.372381838718, -0.000967046090394295, 0.915,110.745758056641
0.0933284533333333, 227.375373836368, -0.000993840744567486, 0.9225,113.206840515137
0.0939960033333333, 227.378325445989, -0.00101308177810686, 0.93,109.563606262207
0.0946624233333333, 227.38119879048, -0.000872874820549549, 0.935,109.563606262207
0.0953295616666667, 227.383486743184, -0.000543479365726765, 0.94125,112.155960083008
0.0959957366666667, 227.385925787999, -0.000262471480442177, 0.94875,107.127388000488
0.0966616583333333, 227.388011139122, -8.84127232041144E-05, 0.955,107.385986328125
0.0973298366666667, 227.390295921592, 0.000122440685840225, 0.9625,110.299575805664
0.097995505, 227.392676398155, 0.000297478893841139, 0.96875,110.299575805664
0.09866321, 227.395398042119, 0.000277075418676697, 0.975,119.2890625
0.0993286266666667, 227.397770268586, 0.000353402084835294, 0.98125,111.563873291016
0.0999958783333333, 227.400493683774, 0.000467363360678534, 0.9875,116.844291687012
0.10066254, 227.403569625902, 0.000191278228135602, 0.99625,105.215950012207
0.101328723333333, 227.406691287528, -0.000148837188203864, 1.0025,105.215950012207
0.101995768333333, 227.409210884161, -1.801975904751E-05, 1.0075,106.391746520996
0.102662495, 227.412084407402, 5.15797450572629E-05, 1.01375,110.964424133301
0.103329268333333, 227.414709542257, 7.11522619535218E-05, 1.02125,133.921432495117
0.103995016666667, 227.416656912048, 0.000468746291233387, 1.02875,108.422996520996
0.10466206, 227.418446250652, 0.000494354504927297, 1.03625,108.422996520996
0.105328635, 227.42139162303, 0.000154650067980595, 1.04125,104.68571472168
0.105996496666667, 227.423653483527, 0.000217538909114963, 1.04875,108.918113708496
0.106662035, 227.426318769889, -1.82507248124836E-06, 1.055,107.047462463379
0.107328526666667, 227.428722696845, -0.000151415558678146, 1.06,106.802589416504
0.10799575, 227.431392730785, 3.17267652307888E-06, 1.0675,106.802589416504
0.108661853333333, 227.433646814271, 6.96568370684246E-05, 1.075,104.679779052734
0.10932849, 227.436280446565, 0.000167535920718155, 1.08125,104.177108764648
0.109995823333333, 227.439360921924, 0.00036973776433797, 1.0875,106.980415344238
0.110663148333333, 227.442298381369, 0.000580090198546605, 1.09625,108.317916870117
0.111328995, 227.444939221912, 0.00063602538895724, 1.1,108.317916870117
0.111995635, 227.447591154008, 0.00073467843374783, 1.10625,114.02758026123
0.11266315, 227.450248706211, 0.000528642782694411, 1.11375,114.888359069824
0.11332909, 227.452374393271, 0.000421044187275004, 1.12125,106.698509216309
0.113995028333333, 227.455299518212, 0.000312803624062224, 1.1275,105.978248596191
0.114663135, 227.458585942801, 0.000283754583170871, 1.13375,105.978248596191
0.115329278333333, 227.462171829598, 0.000313552086488229, 1.14,114.624053955078
0.115995023333333, 227.465846006193, 0.00013921434331116, 1.14625,99.8174896240234
0.116662318333333, 227.469277046435, 0.000208582858994069, 1.1525,108.111396789551
0.117329051666667, 227.472516851884, 0.000215625005278848, 1.16125,105.720161437988
0.117996653333333, 227.476107512768, 7.51150629283143E-05, 1.1675,105.720161437988
0.118662403333333, 227.479703229829, 8.69749672252673E-05, 1.1725,106.041152954102
0.119329015, 227.483581597975, -3.17950442993114E-06, 1.18,109.472450256348
0.119995608333333, 227.487683858055, 8.88453732749413E-05, 1.18625,123.640045166016
0.120661886666667, 227.491850988963, 0.000112538183229589, 1.1925,107.237808227539
0.121328726666667, 227.495993764882, 0.000230946735714889, 1.2,107.237808227539
0.121995213333333, 227.500355464364, 4.67379883183992E-05, 1.20625,110.672309875488
0.12266212, 227.504672787999, 4.46320940949055E-05, 1.21375,107.437843322754
0.12333135, 227.509336535998, -0.000114134931195181, 1.21875,108.170677185059
0.123995121666667, 227.513883512358, -0.000275774312248859, 1.225,108.016036987305
0.124662406666667, 227.517959908026, -0.000411136513133486, 1.2325,108.016036987305
0.125328705, 227.522684608233, -0.000485214792229026, 1.23875,105.568138122559
0.12599506, 227.526997499568, -0.000205790827390582, 1.245,112.710601806641
0.126662541666667, 227.532142858662, -0.000495852257903529, 1.2525,109.493995666504
0.127328873333333, 227.536732522163, -0.000656548186337525, 1.25875,109.477569580078
0.12799511, 227.541800319053, -0.000692171397036079, 1.265,109.477569580078
0.128663168333333, 227.545346962018, -0.000454740822942037, 1.27125,105.5478515625
0.129328695, 227.549772582467, -0.000606449202821417, 1.27875,113.897331237793
0.12999557, 227.553893475047, -0.000569410063252393, 1.285,111.63207244873
0.130662343333333, 227.558386025072, -0.000531175483700177, 1.2925,101.932571411133
0.131329108333333, 227.562386399454, -0.000511430475455035, 1.2975,101.932571411133
0.131996498333333, 227.567585998657, -0.000627658137454171, 1.305,105.584243774414
0.132661873333333, 227.572443680424, -0.000491212990959105, 1.31125,107.469032287598
0.133329106666667, 227.57713250351, -0.000778423064692615, 1.3175,106.944038391113
0.133996493333333, 227.581675830672, -0.000638627086528064, 1.325,106.944038391113
0.134662065, 227.586398259994, -0.00057926906803408, 1.33125,100.405792236328
0.135328531666667, 227.591441763433, -0.000436819723111322, 1.3375,110.428329467773
0.13599517, 227.59532402809, -0.000426116260741822, 1.34375,115.624229431152
0.136663466666667, 227.599174915353, -1.34809641474186E-06, 1.35125,131.34358215332
0.137328478333333, 227.604183755687, -0.000139888637641225, 1.3575,102.882926940918
0.137995068333333, 227.609338998073, -0.000264989853961583, 1.36375,102.882926940918
0.138663085, 227.6140395834, -0.000304368875939755, 1.37,99.5131912231445
0.13932973, 227.619365147893, -0.000585400759993541, 1.3775,109.251350402832
0.139995595, 227.625196823898, -0.000488297137409073, 1.38375,111.942443847656
0.140662286666667, 227.630274632976, -0.000389287110546746, 1.39,106.525764465332
0.141329933333333, 227.635178263871, -0.000211651032990544, 1.39625,106.525764465332
0.141995598333333, 227.640230832864, -0.000102749003052166, 1.40375,104.519203186035
0.142663088333333, 227.645435732642, 0.0001717207106109, 1.41,113.641372680664
0.143328675, 227.650550039755, -6.64508262871297E-05, 1.415,109.798278808594
0.143996448333333, 227.65664751301, -0.000203911421815742, 1.4225,113.837394714355
0.144662425, 227.662020679389, -6.98421559580104E-05, 1.43125,113.837394714355
0.145328795, 227.667370494268, -0.000145801340595301, 1.4375,104.45036315918
0.145995815, 227.67356156677, -0.000334914841640609, 1.44375,104.46605682373
0.146661683333333, 227.678970172153, -0.000567811143498454, 1.45,106.910942077637
0.147328533333333, 227.683418422303, -0.000338798146600774, 1.45625,107.609359741211
0.147995041666667, 227.68848193189, -0.000649927518937586, 1.4625,107.609359741211
0.148661903333333, 227.693386903707, -0.000829020023301892, 1.47,101.658393859863
0.149328495, 227.697614500471, -0.000738265581821628, 1.47625,111.039413452148
0.149995148333333, 227.701882154869, -0.000330794548645982, 1.4825,106.976608276367
0.150662735, 227.706838767847, -0.000484164845019221, 1.49,108.085609436035
0.151328613333333, 227.711385989583, -0.000283986399759466, 1.49625,108.085609436035
0.151995265, 227.71649276002, -0.000111142581458075, 1.5025,104.167587280273
0.152663136666667, 227.721495133814, -5.21355452957074E-05, 1.50875,130.690338134766
0.153329305, 227.726631392584, -0.00026040008443745, 1.51625,110.953392028809
0.153995023333333, 227.731630368279, 8.92368536717162E-05, 1.5225,105.718727111816
0.154661803333333, 227.73741140857, 5.4119117603331E-05, 1.52875,105.718727111816
0.155328546666667, 227.742511389555, -7.302499609433E-05, 1.535,111.412185668945
0.155995586666667, 227.747840868867, 3.7753439655098E-05, 1.5425,111.002311706543
0.156663005, 227.753150016026, 0.000278945824832641, 1.54875,109.218238830566
0.157328461666667, 227.758507980213, -0.000122365017756119, 1.555,109.70694732666
0.157995501666667, 227.762904810506, 0.000174614065273629, 1.5625,109.70694732666
0.15866231, 227.767566667229, 0.000162397178883684, 1.56875,106.809112548828
0.159328526666667, 227.77275753359, -0.000234194900746026, 1.575,109.508651733398
0.159995781666667, 227.777288084888, -0.000499215089053256, 1.5825,106.526374816895
0.160662338333333, 227.781919436231, -0.000450040059054571, 1.59,102.917114257813
0.161328526666667, 227.786933552585, -0.000687715120890106, 1.595,102.917114257813
