Time (min), Depth (µm), Load (N), Position (µm), Acoustic (aJ)
8.47666666666667E-06, 227.00296053087, 0.000522985697392316, 0,105.18049621582
0.000663155, 227.002727525103, 0.000783890092456875, 0.00125,105.18049621582
0.00132944666666667, 227.002136117048, 0.00084780488203185, 0.005,111.684944152832
0.00199588666666667, 227.000561450968, 0.000293950201564825, 0.01375,102.917533874512
0.00266264333333333, 226.999203861347, 5.48307122951572E-05, 0.0225,104.753768920898
0.00332928333333333, 226.99773999708, -0.000681618796612896, 0.03125,115.006484985352
0.00416459166666667, 226.998115803669, -0.00100951882655058, 0.03875,104.212547302246
0.004829605, 227.000106172464, -0.00118314260558418, 0.04625,104.212547302246
0.00549594, 227.003082906523, -0.00118266112976571, 0.05375,109.929039001465
0.00616285666666667, 227.007984165058, -0.00101784340839143, 0.06,105.23754119873
0.00682949833333333, 227.013101701157, -0.00119498901054025, 0.06625,108.047019958496
0.00749603666666667, 227.018129917291, -0.00118935979327713, 0.07375,116.803565979004
0.00816272833333333, 227.023539691396, -0.00121677241638948, 0.08,116.803565979004
0.00882953333333333, 227.029085875289, -0.00136623390910895, 0.08625,108.01392364502
0.00949583166666667, 227.033184143531, -0.0015597871871318, 0.0925,109.591033935547
0.0101626616666667, 227.037976222309, -0.00150406648593208, 0.1,107.525749206543
0.0108293866666667, 227.042873526692, -0.00128040072044594, 0.10625,111.722282409668
0.0114974416666667, 227.048387005422, -0.00151812227991672, 0.1125,111.722282409668
0.0121626833333333, 227.053488159514, -0.00147780130517951, 0.11875,130.654434204102
0.012829315, 227.058583336674, -0.00135333605695491, 0.12625,109.867729187012
0.013495865, 227.064732120969, -0.000983166650182623, 0.13375,106.169845581055
0.0143298183333333, 227.07022264401, -0.00109872084599717, 0.14125,104.74764251709
0.0149958933333333, 227.075171480163, -0.000975491535693398, 0.1475,106.311241149902
0.01566277, 227.080826408617, -0.000898330911396557, 0.15375,106.311241149902
0.0163293433333333, 227.087468922935, -0.000983777119521019, 0.16125,107.69100189209
0.0169958083333333, 227.092449891061, -0.00120733939015957, 0.1675,111.655479431152
0.0176630333333333, 227.098072977258, -0.00122565497019336, 0.17375,108.392044067383
0.0183294383333333, 227.103581278757, -0.00118327759878047, 0.18125,88.5126037597656
0.0189958783333333, 227.109417375049, -0.00133820931675506, 0.1875,88.5126037597656
0.0196625366666667, 227.115264347226, -0.00116300311715721, 0.1925,109.255523681641
0.02032925, 227.120916027299, -0.00110190068628468, 0.20125,101.873825073242
0.0209974816666667, 227.126589761069, -0.00113224716201865, 0.2075,109.283981323242
0.0216629683333333, 227.133732224451, -0.000930216309802061, 0.21375,104.787727355957
0.0223293116666667, 227.139878238826, -0.000936950971541664, 0.22,104.787727355957
0.0229959616666667, 227.144482666356, -0.00124077271091056, 0.22625,111.334022521973
0.0236629766666667, 227.150324755633, -0.00141786581572651, 0.23375,105.576034545898
0.0243297666666667, 227.155913091678, -0.00141940173857049, 0.24,107.262886047363
0.0249959316666667, 227.161128066658, -0.00150529042447893, 0.24625,108.079231262207
0.0256628966666667, 227.16539363855, -0.00111244365676429, 0.25375,108.079231262207
0.0263295983333333, 227.171626094246, -0.000541182350621884, 0.26,105.203720092773
0.0269958366666667, 227.178003071595, -0.000394200233387333, 0.26625,106.35774230957
0.02766291, 227.183890980276, -0.000175089739100289, 0.2725,127.783470153809
0.0283294666666667, 227.189175073917, 0.000100180934342895, 0.27875,103.523513793945
0.0289964, 227.196114174235, 9.24098246706082E-05, 0.28625,103.523513793945
0.0296626616666667, 227.201140081977, -0.000169499519892913, 0.2925,108.043121337891
0.03032952, 227.206606303814, -5.36768375464188E-05, 0.29875,108.902641296387
0.0309958433333333, 227.211838737957, 6.4646219226642E-05, 0.305,108.231559753418
0.03166311, 227.217534513397, -7.30018668523778E-05, 0.3125,102.658416748047
0.032329515, 227.221959517715, 8.27893079328011E-05, 0.3175,102.658416748047
0.0329959833333333, 227.227474011596, 0.000117532062815356, 0.325,105.506088256836
0.03366249, 227.232271529731, 0.000242279296912783, 0.33125,108.331939697266
0.0343296566666667, 227.237067559139, -1.27933910304595E-05, 0.3375,110.857757568359
0.0349963266666667, 227.240916724405, 7.07119145761216E-05, 0.345,111.029014587402
0.0356631933333333, 227.246472935157, -0.000475379155840633, 0.3525,111.029014587402
0.0363297016666667, 227.251685144396, -0.000475232163206606, 0.35875,110.435173034668
0.0369959083333333, 227.256978273343, -0.000347839062058004, 0.36375,110.708015441895
0.0376630316666667, 227.262164899189, -0.000292368848276141, 0.37125,107.986740112305
0.0383297666666667, 227.267858783437, -0.000480859880587826, 0.3775,104.293716430664
0.038997345, 227.272849942682, -0.000264131266635729, 0.385,104.293716430664
0.0396640266666667, 227.277339505535, -0.000314062258682435, 0.39125,106.580528259277
0.0403293783333333, 227.281817684975, -0.000566454581249465, 0.3975,107.262489318848
0.0409962316666667, 227.287304616384, -0.000904537599682451, 0.405,99.4768371582031
0.041663095, 227.291864780402, -0.00102662096759336, 0.41,110.012313842773
0.042330085, 227.296849017151, -0.000990513281227534, 0.4175,110.012313842773
0.0429963216666667, 227.301932555069, -0.000937477445155986, 0.42375,108.206428527832
0.043662655, 227.306788745258, -0.00106451056442655, 0.43,107.111602783203
0.0443294866666667, 227.311351863247, -0.000377900552112843, 0.4375,128.50910949707
0.0449958283333333, 227.316462406939, -0.0002462071669137, 0.44375,110.986000061035
0.045662685, 227.320515021334, -0.00011263587606412, 0.45,110.986000061035
0.0463293466666667, 227.325238638439, -0.000253022824571079, 0.45625,104.905754089355
0.04699585, 227.329873788858, -0.000218082079582278, 0.46375,104.88508605957
0.0476626533333333, 227.334365123372, -0.00062990289425001, 0.47,108.911750793457
0.0483295333333333, 227.338615949272, -0.000430585405767758, 0.47625,102.789054870605
0.048995875, 227.344019336772, -0.00047437270637476, 0.48375,102.789054870605
0.0496631483333333, 227.348424614328, -0.000250195466539585, 0.49,111.537933349609
0.05032972, 227.352318675872, -0.000182185882621077, 0.49625,104.028312683105
0.050995805, 227.357024236106, -0.000210663452208519, 0.50125,106.261100769043
0.0516628, 227.361219779426, -0.000324057756521056, 0.50875,105.976364135742
0.0523293566666667, 227.364714257393, -0.000164735759074239, 0.51625,105.976364135742
0.052995875, 227.369051579568, -0.000225572703327393, 0.5225,110.937622070313
0.05366253, 227.373636418394, 9.58776505285633E-05, 0.53,106.456413269043
0.0543293233333333, 227.37763066743, 0.000506732513689311, 0.53625,103.634666442871
0.0549965333333333, 227.381472327559, 0.000406572044618397, 0.5425,106.515266418457
0.0556627383333333, 227.386456591529, 5.87215167923227E-05, 0.54875,106.515266418457
0.0563299016666667, 227.391343881088, -0.000259544497024165, 0.555,109.554016113281
0.0569958333333333, 227.395868441182, -0.000447371062676428, 0.5625,106.463241577148
0.0576628483333333, 227.400106823563, -0.000773582177438489, 0.56875,106.094200134277
0.0583300716666667, 227.406018406579, -0.000727453494412919, 0.575,108.946990966797
0.058996365, 227.410180281067, -0.000249216015755479, 0.5825,108.946990966797
0.059662675, 227.41455012233, 0.000119988939476736, 0.58875,106.664627075195
0.0603300616666667, 227.419645356505, 0.000224524688733338, 0.595,100.657485961914
0.06099581, 227.424832652169, 0.000170968378808843, 0.60125,130.922409057617
0.061663965, 227.428884307483, -2.4992278285057E-05, 0.61,104.811798095703
0.0623292833333333, 227.434861863008, -0.000390687409839788, 0.615,104.811798095703
0.0629962233333333, 227.439933660615, -0.000489445449338607, 0.62125,105.175552368164
0.06366265, 227.44476585195, -0.000811353280265081, 0.6275,110.612434387207
0.06432942, 227.449860151286, -0.000606667561387135, 0.635,103.250877380371
0.0649963616666667, 227.455097199506, -0.000409745452538205, 0.64125,112.008567810059
0.065662705, 227.459300242709, -0.000517647032750832, 0.6475,112.008567810059
0.0663299683333333, 227.463165839295, -0.000408849997520682, 0.655,105.674491882324
0.0669963733333333, 227.467839922518, -0.000293538789480715, 0.66125,110.57470703125
0.0676641316666667, 227.472788594171, -0.000371150891086699, 0.6675,109.745910644531
0.0683292966666667, 227.477703552282, -0.000504732681407102, 0.675,106.019393920898
0.06899592, 227.48226457565, -0.000139993001888533, 0.68125,106.019393920898
0.0696626533333333, 227.48704030622, -0.000275463197330194, 0.68625,105.563697814941
0.0703293333333333, 227.491279735367, -0.000210292970753389, 0.6925,109.285095214844
0.0709963783333333, 227.495765995451, -0.000131318937576706, 0.70125,103.919036865234
0.0716639883333333, 227.500117625539, -0.000246292662562177, 0.7075,113.410629272461
0.072330995, 227.504634801849, -0.000224348764823048, 0.71375,113.410629272461
0.0729964516666667, 227.509293685032, -5.49562732324304E-05, 0.72,110.886337280273
0.0736629733333333, 227.514279497085, -0.000297470092043039, 0.72625,104.91716003418
0.0743293383333333, 227.518405937108, -0.00056878396418779, 0.73375,105.524658203125
0.0749972866666667, 227.52260505461, -0.000449965932297892, 0.74,111.595336914063
0.0756631866666667, 227.526523323962, -0.000651422313319255, 0.74875,111.595336914063
0.0763294583333333, 227.531510576626, -0.00090660299586204, 0.7525,106.667068481445
0.0769957983333333, 227.535623768228, -0.00101703644887119, 0.75875,105.955085754395
0.0776639816666667, 227.539160840813, -0.000981690724272259, 0.76625,125.126091003418
0.0783293416666667, 227.543143043627, -0.000948306901090344, 0.77375,106.439323425293
0.0789959183333333, 227.547250408749, -0.00102787040472754, 0.78,106.439323425293
0.0796631666666667, 227.551145707291, -0.000803405179364431, 0.78625,101.883148193359
0.0803298283333333, 227.555192887521, -0.000822178236404975, 0.79375,115.329811096191
0.0809974933333333, 227.559540359092, -0.00077778496625404, 0.8,109.452896118164
0.0816630616666667, 227.563268452804, -0.000826562516243353, 0.80625,108.746520996094
0.0823307833333333, 227.567035900882, -0.000989745319741779, 0.8125,108.746520996094
0.08299755, 227.570441686259, -0.00111017277083518, 0.82125,105.625473022461
0.08366397, 227.574240484212, -0.00106108323656999, 0.82625,109.63606262207
0.0843300333333333, 227.577347624982, -0.000986287993439663, 0.8325,112.88826751709
0.0849972833333333, 227.581149801538, -0.000656868539805173, 0.84,116.123908996582
0.0856625883333333, 227.584260860834, -0.000308020562059645, 0.84625,116.123908996582
0.0863294066666667, 227.587806584823, 0.000149061979179796, 0.8525,105.432640075684
0.0869958433333333, 227.591195446369, 0.000443491190277669, 0.86,105.003684997559
0.087662685, 227.595324422685, 0.000498079448361638, 0.86625,115.868026733398
0.0883293183333333, 227.5992630047, 0.000412435250152183, 0.87375,104.95344543457
0.088997295, 227.603539543965, 0.000326257078791406, 0.88,104.95344543457
0.08966318, 227.6072081247, 7.71120930675276E-05, 0.88625,102.547630310059
0.0903298916666667, 227.61071561348, 0.000174301211385489, 0.8925,108.075050354004
0.0909973116666667, 227.613608261733, 0.000112580811552546, 0.89875,107.385566711426
0.0916632366666667, 227.616833358418, -1.92280678256487E-05, 0.905,111.76643371582
0.0923298516666667, 227.620459854608, -5.86970853105243E-05, 0.91375,111.76643371582
0.09299731, 227.623766304881, -0.000204698251836566, 0.92,108.722969055176
0.093663955, 227.627040598753, -0.000549778418843487, 0.92625,112.613525390625
0.0943293466666667, 227.631146582996, -0.000521752326586442, 0.9325,128.604217529297
0.09499585, 227.634254071905, -0.000415320672522803, 0.93875,110.810897827148
0.0956626133333333, 227.637132089782, -0.00035517069379512, 0.945,110.810897827148
0.096329815, 227.640192804987, -0.000307267599902939, 0.95125,108.207336425781
0.0969972733333333, 227.643529192189, -7.45197905610157E-05, 0.96,109.255714416504
0.0976638966666667, 227.646566829459, 7.84635252736744E-05, 0.965,108.395843505859
0.0983296033333333, 227.649987836484, 8.31537896690633E-05, 0.97125,107.252853393555
0.0989972583333333, 227.653341089283, 0.000216432595196245, 0.9775,107.252853393555
0.0996624933333333, 227.656681347297, 0.000369135425061256, 0.985,105.178115844727
0.100329898333333, 227.659931000943, 0.000225261151742862, 0.99375,104.777374267578
0.100995798333333, 227.662674408869, 0.000130593406814367, 0.99875,108.820686340332
0.101663081666667, 227.665767206884, 0.000179463952095429, 1.00625,110.97624206543
0.102329415, 227.668916953287, 5.83705344819604E-05, 1.0125,110.97624206543
0.102996468333333, 227.671760252029, 3.01629513083594E-05, 1.01875,111.148208618164
0.103662741666667, 227.674770980461, -0.000135284738442813, 1.025,106.83967590332
0.104330558333333, 227.678530712277, -0.000166709659992755, 1.0325,105.230918884277
0.104996001666667, 227.681272328426, -0.000150402479117503, 1.03875,108.894134521484
0.105664135, 227.684450581323, -0.000109333041933031, 1.045,108.894134521484
0.10632974, 227.687539086363, -0.000165064242603569, 1.05125,107.556221008301
0.106996393333333, 227.690818156517, 0.000468703423865358, 1.0575,108.326789855957
0.107663973333333, 227.693709153152, 0.000339349921139124, 1.06375,105.779403686523
0.108329543333333, 227.697544330251, 2.56451782405993E-05, 1.07125,111.791244506836
0.10899633, 227.700451101354, 3.43882390537219E-05, 1.07875,111.791244506836
0.109664986666667, 227.70401638278, -9.60842074686289E-05, 1.085,105.364196777344
0.110329333333333, 227.707308805064, -0.00039199984390518, 1.09125,127.291397094727
0.110995851666667, 227.710480588616, -0.000142736364174698, 1.0975,102.280471801758
0.111664, 227.713687208433, -3.47897862087192E-05, 1.10375,103.448425292969
0.11233066, 227.71761412548, -0.000141144944085284, 1.11,103.448425292969
0.112996385, 227.72122546499, -0.000214534757794712, 1.11625,107.637985229492
0.113662823333333, 227.724516597177, -0.000276540143285529, 1.125,111.26148223877
0.114329921666667, 227.72855892634, -0.000176576164375204, 1.13125,106.26538848877
0.114995815, 227.731757398157, 0.000143606753147458, 1.1375,105.272727966309
0.115662636666667, 227.734823163944, 0.000252256795743582, 1.14375,105.272727966309
0.116329995, 227.738243196902, 0.00044726350081074, 1.15,107.159568786621
0.116996338333333, 227.742369891538, 0.000349060433404889, 1.15625,107.226181030273
0.117662635, 227.745460953118, 0.000334005689597644, 1.1625,104.755249023438
0.118329486666667, 227.748832571661, 1.97744730847973E-05, 1.17125,108.456283569336
0.118996008333333, 227.752636774934, -6.28671786391397E-06, 1.17625,108.456283569336
0.119663001666667, 227.756177305698, -0.000145118244509645, 1.1825,109.608062744141
0.120330053333333, 227.758688229491, -7.8290601190937E-05, 1.19125,112.044639587402
0.120997295, 227.762043997538, -0.000352049350580588, 1.1975,103.845092773438
0.12166263, 227.766123023439, -0.000117434135037797, 1.2025,106.097496032715
0.122329328333333, 227.769759514205, -0.000188136083770252, 1.20875,106.097496032715
0.122997458333333, 227.772932690132, 0.000100432921706405, 1.21625,109.20662689209
0.123662843333333, 227.776899798355, 0.000310345878022377, 1.2225,107.940391540527
0.124329973333333, 227.78105919269, 0.000316794054115941, 1.23125,106.341690063477
0.124996328333333, 227.78408486968, 7.49777003228803E-05, 1.23625,105.810409545898
0.125662651666667, 227.787480869905, 0.000301901302208011, 1.2425,105.810409545898
0.126329293333333, 227.791382545913, 0.000111850348283143, 1.24875,108.952682495117
0.126995925, 227.794160004094, 0.000149414461457069, 1.255,127.103538513184
0.127663223333333, 227.796930006796, 0.000173995226807224, 1.26125,102.711463928223
0.128329873333333, 227.800631954151, 0.00013672209896753, 1.27,109.132164001465
0.128995776666667, 227.804455822786, -0.000177222631920533, 1.275,109.132164001465
0.129664098333333, 227.807637456478, -5.38448290583295E-05, 1.28125,114.036773681641
0.130329483333333, 227.811076733624, -7.66391841253928E-05, 1.28875,110.245414733887
0.130996403333333, 227.814466521068, 0.000119940941874578, 1.295,107.176742553711
0.131662993333333, 227.817070161103, 0.000447262000886336, 1.30125,109.231224060059
0.132330648333333, 227.819194801545, 0.000673903616898638, 1.3075,109.231224060059
0.132996345, 227.822439074359, 0.000639072366433783, 1.315,106.366279602051
0.133662746666667, 227.825821474484, 0.0003384754650845, 1.32125,108.847816467285
0.134329975, 227.829943833956, -0.000105536732630763, 1.3275,108.45189666748
0.134996156666667, 227.833549881705, -0.000650990335112371, 1.335,105.842025756836
0.135662661666667, 227.837524491097, -0.00105436207417127, 1.34125,105.842025756836
0.136330628333333, 227.841367265143, -0.00115223065828642, 1.3475,106.195320129395
0.13699583, 227.844335988166, -0.000998702869829584, 1.355,99.7961502075195
0.137662853333333, 227.846991306428, -0.000685952079000309, 1.36125,109.815559387207
0.138329345, 227.85008033198, -0.000391762855806957, 1.3675,110.572151184082
0.138995838333333, 227.853085412805, -4.50177724148621E-05, 1.37375,110.572151184082
0.139663646666667, 227.856446411437, 9.04899211368809E-05, 1.38,108.140068054199
0.140329361666667, 227.860770603365, -0.000167075641610912, 1.3875,105.440689086914
0.140996013333333, 227.864063462006, -8.8665882838535E-06, 1.39375,105.887992858887
0.141662746666667, 227.868284952478, 0.000163792739209666, 1.4,104.205917358398
0.142329905, 227.872038864263, 0.000315207133799737, 1.4075,104.205917358398
0.142996586666667, 227.874848043588, 0.000272780264839031, 1.41375,112.63134765625
0.143662698333333, 227.879075068665, 0.000294400178907056, 1.41875,130.033813476563
0.144330066666667, 227.883333916968, 0.000106449119508069, 1.42625,108.067405700684
0.144995911666667, 227.888242055036, -1.56927454120553E-05, 1.43375,103.372512817383
0.145662985, 227.892077183966, -0.000451165872054293, 1.44,103.372512817383
0.14633021, 227.89750169594, -0.000541806319258655, 1.4475,100.344787597656
0.146996443333333, 227.900517079971, -0.000440655899932813, 1.455,110.438148498535
0.147664408333333, 227.904533080335, -0.000114291792860366, 1.46,108.628746032715
0.148329405, 227.906917157213, 2.48952159114458E-05, 1.46625,108.534225463867
0.148996378333333, 227.910873694576, 0.000288595470531268, 1.4725,108.534225463867
0.149662511666667, 227.912439301577, 0.000290189890469488, 1.48,107.209938049316
0.15032956, 227.915482789376, 0.000306980047130114, 1.48625,108.305458068848
0.15099586, 227.918706570301, 0.000113321774356534, 1.4925,105.974052429199
0.151662696666667, 227.922858132136, 0.000159378460989493, 1.5,106.83366394043
0.152329351666667, 227.925920383852, 7.01611396402231E-06, 1.50625,106.83366394043
0.15299596, 227.9304408066, -4.90120717808688E-05, 1.5125,106.618751525879
0.153662563333333, 227.934603785672, 0.00010109138864696, 1.51875,104.53816986084
0.154329351666667, 227.938587766666, -0.000162817355486169, 1.52625,106.788024902344
0.154996458333333, 227.942118716975, -6.99495201391416E-05, 1.5325,108.665809631348
0.155663945, 227.946149764087, -0.000101885916016865, 1.53875,108.665809631348
0.156329548333333, 227.950136268955, -0.000291971368224261, 1.54625,109.249435424805
0.156995853333333, 227.954000259034, -0.000420312421765755, 1.5525,106.979133605957
0.15766311, 227.958267903952, -0.000423286772388768, 1.55875,106.423400878906
0.15832942, 227.962311767747, -0.000600282382054745, 1.565,104.338386535645
0.158996693333333, 227.966372371754, -0.00033198035860058, 1.5725,104.338386535645
0.159662695, 227.970048971499, 3.5194869262648E-07, 1.57875,106.877075195313
