Time (min), Depth (µm), Load (N), Position (µm), Acoustic (aJ)
8.62833333333333E-06, 226.825802879155, 7.78638408701677E-05, 0,104.32772064209
0.0006663, 226.825533998838, 0.000297020832834967, 0,108.55485534668
0.00133271333333333, 226.823840960228, 0.000441096096065905, 0.00375,108.55485534668
0.00199940666666667, 226.821595295315, 0.000203547027901498, 0.0125,113.122718811035
0.002666415, 226.819026402093, -1.0444223525809E-05, 0.0225,109.724189758301
0.00333282833333333, 226.818062480351, -1.59174486509853E-05, 0.03125,107.230461120605
0.00399941833333333, 226.818797539616, -0.000173498033546808, 0.0375,107.323165893555
0.00466599, 226.822107492974, -0.000492746498038717, 0.04375,107.323165893555
0.00533275, 226.827566375004, -0.000534855382940916, 0.05125,103.338554382324
0.00599936833333333, 226.833057187051, -0.000467930244514742, 0.0575,110.576629638672
0.006666, 226.838422651698, -0.00070385789410167, 0.06375,109.247337341309
0.00733298666666667, 226.843017887454, -0.000708783646692133, 0.07125,113.847206115723
0.00799935666666667, 226.847710936944, -0.000730355563136746, 0.0775,113.847206115723
0.00866605666666667, 226.852021393079, -0.000548831680889678, 0.08375,101.678192138672
0.00933266166666667, 226.856768104391, -0.000656194788177773, 0.09,104.575386047363
0.00999942666666667, 226.860937259546, -0.000407181795843889, 0.0975,123.072830200195
0.0106665033333333, 226.865947356731, -0.000298407259437279, 0.105,109.549507141113
0.0113327583333333, 226.870822802942, -0.00039181956744896, 0.11,109.549507141113
0.011999325, 226.875155052409, -0.00023876725509172, 0.1175,112.860916137695
0.01266642, 226.879406605903, -0.000177009357127441, 0.12375,106.50715637207
0.0133327733333333, 226.884057104523, -0.000231327628755061, 0.13125,108.369987487793
0.0139996766666667, 226.887871024554, -0.000157093357479074, 0.13625,108.369987487793
0.0146660283333333, 226.891480686221, 0.000118127818437549, 0.1425,106.011199951172
0.0153327066666667, 226.896022708718, -0.000174074004538913, 0.15125,101.733489990234
0.015999295, 226.90116160167, 9.94297576384218E-05, 0.1575,105.236473083496
0.016666335, 226.905721496316, 0.000226497375149008, 0.16375,114.777320861816
0.017332825, 226.910901195514, 0.000109807736327399, 0.17,114.777320861816
0.0180009216666667, 226.915890555823, 0.000348160764099477, 0.1775,107.374206542969
0.01866609, 226.921163605492, 0.000602429492456302, 0.18375,83.0247421264648
0.01933272, 226.925316316702, 0.000592033514631978, 0.19,104.353530883789
0.0199999666666667, 226.930165074987, 0.000739227121228642, 0.19625,108.896034240723
0.0206661466666667, 226.935046108046, 0.000800163060492411, 0.2025,107.423248291016
0.0213326383333333, 226.93990775384, 0.000426228842830322, 0.21,107.423248291016
0.0220008716666667, 226.944820593091, 0.000419749168324289, 0.21625,104.121055603027
0.02266622, 226.950304572941, 6.54354651393635E-05, 0.22375,108.885047912598
0.02333266, 226.955182888851, 1.69414009472823E-05, 0.23,108.477676391602
0.02399994, 226.960386368235, -2.69718933308479E-05, 0.23625,108.477676391602
0.0246660183333333, 226.965309224455, 0.000263680507524508, 0.2425,105.311363220215
0.025332715, 226.970371866795, 2.71948859532971E-05, 0.25,108.392601013184
0.0259992916666667, 226.975549473517, 0.000399092205935696, 0.25625,102.175552368164
0.0266659833333333, 226.980415942145, 0.000287535309314707, 0.26125,127.605255126953
0.027332855, 226.985884945893, 0.000331474102350201, 0.27,127.605255126953
0.0279993666666667, 226.990879899261, 0.000262995041944694, 0.27625,104.164970397949
0.02866621, 226.995655263855, 0.000727736198462415, 0.28125,107.55354309082
0.029332705, 227.000575137019, 0.00061827919638856, 0.29,105.506759643555
0.0299999316666667, 227.006246157909, 0.000636446283863918, 0.29625,112.668609619141
0.0306661066666667, 227.010434303382, 0.00065049007843208, 0.30125,106.277549743652
0.031332755, 227.015444974429, 0.000507346268425597, 0.3075,106.277549743652
0.0319995416666667, 227.020442587558, 0.000229216738623467, 0.315,109.942306518555
0.0326659616666667, 227.024639827077, 0.000593728429568979, 0.32125,102.45703125
0.0333327816666667, 227.028096276629, 0.000703423919686714, 0.3275,109.53018951416
0.0339993883333333, 227.032459899367, 0.000706590260633344, 0.33375,113.250907897949
0.0346663566666667, 227.03648446344, 0.000617448238162885, 0.34125,113.250907897949
0.0353342433333333, 227.040190983416, 0.000285454913827323, 0.3475,106.497344970703
0.03599939, 227.044853279738, -0.000262535061181514, 0.355,109.359519958496
0.036666095, 227.049241407294, -0.000457211782816193, 0.36125,114.013481140137
0.03733264, 227.053090824265, -0.000531032074893119, 0.3675,109.239418029785
0.0379994383333333, 227.057541279999, -0.000294388961238312, 0.37375,109.239418029785
0.0386660416666667, 227.061925502748, -0.000191818113226281, 0.38,109.283828735352
0.0393326566666667, 227.065868336479, -3.96462566637863E-05, 0.3875,108.188064575195
0.03999957, 227.069670617585, 6.23891182087567E-05, 0.39375,116.483673095703
0.0406662083333333, 227.07429522144, 9.47627598078454E-06, 0.4,111.304412841797
0.041333425, 227.077645011419, -0.000307888283099312, 0.40625,111.304412841797
0.0419993816666667, 227.081090396114, -0.000236167885569522, 0.41375,104.325706481934
0.0426659966666667, 227.084264301651, -0.000347261305464888, 0.42,109.888275146484
0.0433327416666667, 227.087889802829, -0.000608534681996411, 0.42625,134.154525756836
0.0439993133333333, 227.091030579154, -0.000641234539501663, 0.43375,112.403701782227
0.0446660883333333, 227.095099573066, -0.000490280621767154, 0.44,112.403701782227
0.045332765, 227.098983052803, -0.000404207445093351, 0.44625,107.242706298828
0.04599932, 227.103105650546, -0.000360579136515603, 0.4525,105.040344238281
0.0466665233333333, 227.107099038384, -3.17086553189754E-05, 0.46,104.56428527832
0.0473326766666667, 227.111168466143, 0.00017903225939512, 0.46625,112.684997558594
0.0479997633333333, 227.11464971727, 0.000566504797058964, 0.4725,112.684997558594
0.0486660633333333, 227.117433386537, 0.00060056508625302, 0.48,105.897193908691
0.04933274, 227.120844460256, 0.000750866536765841, 0.48625,92.2963104248047
0.0499996816666667, 227.123804650654, 0.000822444441456068, 0.4925,112.794326782227
0.0506659683333333, 227.126867399741, 0.000499509162185837, 0.49875,109.301528930664
0.0513327383333333, 227.130791663228, -6.00617311384383E-05, 0.505,109.301528930664
0.0521660733333333, 227.135065005912, -0.000315546898398847, 0.51375,109.056243896484
0.05283266, 227.138337092327, -0.000501767044738917, 0.52,105.328834533691
0.0534995833333333, 227.142143501956, -0.000799980565743833, 0.5275,109.854042053223
0.0541661066666667, 227.145536908479, -0.000587865720063813, 0.53375,110.758766174316
0.0548326316666667, 227.148709752801, -0.000405272391568443, 0.54,110.120475769043
0.05549966, 227.15172994292, -0.000281891588836179, 0.5475,110.120475769043
0.0561660333333333, 227.155297930531, -3.03227248940618E-05, 0.55375,107.045539855957
0.0568326666666667, 227.158490980363, 0.000191889613611526, 0.56,105.091857910156
0.0574993266666667, 227.161349884955, 4.47245055360156E-05, 0.56625,107.711715698242
0.05816616, 227.163969553239, -6.17926441973552E-05, 0.5725,110.258193969727
0.0588328633333333, 227.166715309262, -7.3912035437326E-05, 0.58,110.258193969727
0.0595002533333333, 227.169332518498, -0.00021412649263791, 0.58625,134.352294921875
0.0601661283333333, 227.171971729385, -0.00048203853570472, 0.5925,112.612144470215
0.0608328433333333, 227.175097191108, -0.000567201258095712, 0.6,104.125846862793
0.061500825, 227.17777652902, -0.000647627218349798, 0.60625,109.037048339844
0.0621660866666667, 227.180521185356, -0.000370865619794727, 0.6125,109.037048339844
0.062832755, 227.182950390293, -0.000264198477557268, 0.62,108.462036132813
0.06349934, 227.186285141086, -0.00030396897991096, 0.62625,109.007858276367
0.064166065, 227.188392015557, 5.00777367089314E-05, 0.6325,107.180374145508
0.0648329166666667, 227.190945318078, 0.000179621729813124, 0.63875,110.676361083984
0.0655009433333333, 227.193956897242, -0.000277096329711308, 0.64625,110.676361083984
0.066166305, 227.196671620744, -0.000204642468978291, 0.6525,111.06209564209
0.06683272, 227.198824636042, 0.000137286356262271, 0.65875,103.65975189209
0.067500765, 227.201710537798, 0.000333392506044541, 0.66625,112.239044189453
0.0681662216666667, 227.204724932037, 0.000584899873107379, 0.6725,103.190605163574
0.0688328616666667, 227.207148728131, 0.000858322639366938, 0.67875,103.190605163574
0.069499585, 227.209950445993, 0.000476510817378677, 0.685,107.751564025879
0.070166105, 227.212781164105, 0.000615099356228572, 0.6925,105.431465148926
0.07083415, 227.215226831998, 0.000454379429025378, 0.69875,110.506721496582
0.0714993433333333, 227.217803048579, 6.19886384355952E-05, 0.705,115.494064331055
0.0721662233333333, 227.220623699022, -6.01712256198761E-05, 0.7125,115.494064331055
0.072832945, 227.222951185748, 0.000204362987116936, 0.71875,104.338233947754
0.0734993833333333, 227.22533185734, 6.76388546616101E-05, 0.72375,105.800117492676
0.0741659866666667, 227.22784017574, -1.56166948813396E-06, 0.73125,103.738510131836
0.0748341683333333, 227.229911471342, 0.000421180096630079, 0.73875,100.368370056152
0.0755008933333333, 227.232114472259, 0.000639309640208614, 0.745,100.368370056152
0.0761671666666667, 227.234371166058, 0.000465762357319587, 0.75125,126.250373840332
0.0768327516666667, 227.237198256952, 0.000280922141621801, 0.7575,106.860900878906
0.0775010766666667, 227.239767533862, 0.000170046210807415, 0.765,106.53783416748
0.07816622, 227.242554054442, -6.69778837308355E-05, 0.77125,106.937126159668
0.0788326716666667, 227.245796147595, -0.000303568500052782, 0.7775,106.937126159668
0.07950081, 227.249129735464, -0.000493977935995045, 0.785,102.619842529297
0.0801661616666667, 227.251713139984, -0.000368503238455768, 0.79125,106.583297729492
0.0808327916666667, 227.254682305858, -0.000278152276703742, 0.7975,111.927101135254
0.0815012116666667, 227.257220915669, 0.000352573542629042, 0.805,109.83088684082
0.08216633, 227.259657544989, 0.000752072476198601, 0.81125,109.83088684082
0.082832725, 227.26196484999, 0.00121197487578376, 0.8175,105.164360046387
0.0834995416666667, 227.264865270417, 0.00102616870862149, 0.825,102.255004882813
0.0841663566666667, 227.267948829079, 0.000875012301050037, 0.83125,100.164169311523
0.084834185, 227.27089195732, 0.000181295645702209, 0.8375,103.158767700195
0.0854993766666667, 227.273707333972, -5.02949534608904E-06, 0.84375,103.158767700195
0.08616619, 227.276782813044, 1.64366947172634E-06, 0.85125,104.887565612793
0.08683283, 227.279252508691, -1.6351658051477E-06, 0.85875,107.139671325684
0.0874996716666667, 227.281709819283, 8.48159918607842E-05, 0.86375,105.270042419434
0.0881660183333333, 227.283950077357, 0.000570091116966031, 0.87,104.657386779785
0.088832725, 227.286279196072, 0.000430577124589293, 0.8775,104.657386779785
0.089499335, 227.288426893303, 0.000248690260551619, 0.88375,106.910079956055
0.090167085, 227.290939369969, 0.000440041649167907, 0.89,108.940521240234
0.09083413, 227.293591582359, 0.000571363053008772, 0.8975,109.937385559082
0.0914993966666667, 227.296320422175, 0.000262233080284077, 0.905,114.914047241211
0.0921660066666667, 227.298926185448, 0.000238669263870618, 0.91125,114.914047241211
0.0928341783333333, 227.301917301147, 0.000175090457361973, 0.91625,130.519439697266
0.09349961, 227.304103353632, 0.000147941821008359, 0.92375,105.18334197998
0.0941660633333333, 227.306270903245, 9.10241799223027E-05, 0.93,104.26685333252
0.0948341916666667, 227.308863465216, 2.64134252329293E-05, 0.93625,110.832153320313
0.0954997266666667, 227.311155827592, 0.000198153298918473, 0.9425,110.832153320313
0.0961660133333333, 227.313150206356, 0.000107059874438057, 0.95125,103.288024902344
0.0968327666666667, 227.31544130144, -0.000103421553311766, 0.9575,104.561866760254
0.09749938, 227.318652209981, -0.000270783146899053, 0.96375,110.878234863281
0.0981660783333333, 227.320671323855, -6.93192662131654E-05, 0.97,108.169700622559
0.0988334633333333, 227.323083921249, -0.000100094720390226, 0.9775,108.169700622559
0.0994993716666667, 227.32539643722, 0.000109687742460155, 0.98375,105.226699829102
0.10016662, 227.327690245522, 0.000295874890463353, 0.99,118.054054260254
0.100832731666667, 227.329341446226, 0.000513216973581399, 0.99625,104.787841796875
0.10149937, 227.331651170522, 0.000446348832325057, 1.0025,106.758819580078
0.102166371666667, 227.333800424601, 0.000394127455332003, 1.01,106.758819580078
0.102832688333333, 227.335491743584, 0.000483660958177982, 1.01625,107.679298400879
0.103499556666667, 227.337538271503, 0.000698573163380177, 1.02375,112.058303833008
0.104166156666667, 227.33909350787, 0.000876609720752048, 1.03,110.397956848145
0.104832726666667, 227.341082149528, 0.00108868556839758, 1.03625,106.032775878906
0.105499443333333, 227.342409347074, 0.00117408527886554, 1.0425,106.032775878906
0.10616599, 227.344982211196, 0.00122872003460601, 1.05,108.441925048828
0.106832736666667, 227.346831268058, 0.00105357083215675, 1.05625,107.609848022461
0.107499561666667, 227.349379386857, 0.00102175893002575, 1.0625,103.362991333008
0.108166006666667, 227.351764290683, 0.00092805563663733, 1.07,110.260810852051
0.108834286666667, 227.354419561179, 0.000878534124058985, 1.07625,110.260810852051
0.109499535, 227.356526366709, 0.000946612704542551, 1.08125,134.728637695313
0.110166185, 227.359538483363, 0.000742562953781619, 1.08875,100.720527648926
0.110832903333333, 227.362330756967, 0.00062920314775161, 1.095,112.189643859863
0.111499396666667, 227.364873377501, 0.00044651682390073, 1.1025,107.245780944824
0.11216605, 227.36742122345, 0.000421055602798338, 1.10875,107.245780944824
0.112834186666667, 227.370355473398, 0.000312576551584187, 1.11625,105.770652770996
0.113500866666667, 227.372899354304, 0.00055291397968184, 1.12125,102.870048522949
0.114166011666667, 227.374838719978, 0.00098217291847993, 1.1275,109.179817199707
0.114832786666667, 227.377695909994, 0.00101770163389857, 1.13625,108.646514892578
0.115499368333333, 227.380623083738, 0.0011343792733037, 1.1425,108.646514892578
0.116166376666667, 227.383574533181, 0.0011494145180937, 1.14875,109.168685913086
0.116832675, 227.386555459599, 0.00121635465578516, 1.15375,103.626258850098
0.117500853333333, 227.389900242686, 0.000931974939868191, 1.16125,104.166381835938
0.118167031666667, 227.393144637772, 0.00123171088446122, 1.1675,113.831848144531
0.118832746666667, 227.396418418117, 0.00155402669488915, 1.175,113.831848144531
0.119499325, 227.400006823567, 0.0016290364272304, 1.18125,109.464904785156
0.120165978333333, 227.403579770018, 0.00159165230498486, 1.1875,109.478874206543
0.120833458333333, 227.407201574181, 0.00149297226157627, 1.19375,110.953399658203
0.121500263333333, 227.410558763399, 0.00136444671726941, 1.2,109.278121948242
0.122166205, 227.414235519267, 0.00111602319533228, 1.2075,109.278121948242
0.122832665, 227.417263790151, 0.000843075905193568, 1.215,108.522613525391
0.123499388333333, 227.420702379977, 0.000741187522912544, 1.22125,110.280242919922
0.124166183333333, 227.424112991898, 0.000788538644496802, 1.2275,113.649436950684
0.124832828333333, 227.427995702134, 0.000842709923554157, 1.23375,105.450202941895
0.125500803333333, 227.431703919393, 0.000564886378330292, 1.24,105.450202941895
0.126166035, 227.435852594033, 0.00060806170965324, 1.24625,128.517837524414
0.126834145, 227.439950658991, 0.000914943295293624, 1.2525,112.806312561035
0.127500848333333, 227.444074021464, 0.000749320114387271, 1.26125,107.825157165527
0.128166773333333, 227.448285217116, 0.000598129208512031, 1.26625,107.643203735352
0.128832718333333, 227.45297589818, 0.000505210375735292, 1.2725,107.643203735352
0.129499536666667, 227.45736014122, 0.000340385154738996, 1.28,102.199409484863
0.130166195, 227.461540723476, 0.000320568150143752, 1.28625,106.125152587891
0.130832643333333, 227.466181816838, 0.000444173941536505, 1.2925,110.98225402832
0.131499323333333, 227.47052991586, 0.000337223313565576, 1.3,113.699417114258
0.1321666, 227.474441827468, 0.000671127541930955, 1.30625,113.699417114258
0.13283274, 227.478920454584, 0.000882331933370673, 1.3125,106.084007263184
0.133499363333333, 227.483992663357, 0.000540721092124856, 1.31875,102.515762329102
0.1341662, 227.488177987858, 0.000306107376527722, 1.32625,109.511901855469
0.134834161666667, 227.493106602262, 0.000201414135145016, 1.3325,107.283248901367
0.135501035, 227.497466434304, 0.000457100292296716, 1.33875,107.283248901367
0.136166036666667, 227.502269943504, 0.000481084087606849, 1.345,106.733406066895
0.136832633333333, 227.506225158154, 0.000717964189338625, 1.3525,102.630554199219
0.137499405, 227.511178656624, 0.000819084610176402, 1.35875,111.843315124512
0.138166023333333, 227.514969053885, 0.000987349158424483, 1.365,106.537872314453
0.138832663333333, 227.51947406583, 0.00091607273853931, 1.3725,106.537872314453
0.139499458333333, 227.523422488323, 0.000832195451595705, 1.37875,108.869178771973
0.140165996666667, 227.528078653755, 0.000708154682062245, 1.385,108.156402587891
0.140832763333333, 227.531947899661, 0.000705079836504214, 1.39125,111.701766967773
0.141499391666667, 227.537046622918, 0.000612870468097741, 1.39875,133.781311035156
0.142167446666667, 227.542162309672, 0.000639297640707117, 1.405,133.781311035156
0.14283273, 227.54762610236, 0.000387199303386888, 1.41125,115.373435974121
0.143499718333333, 227.553058402219, 0.00053524186732332, 1.41625,106.31908416748
0.144166041666667, 227.559438440862, 0.000480881597791155, 1.42375,108.298805236816
0.144832708333333, 227.565441658937, 0.000435982853031306, 1.4325,105.713226318359
0.145499331666667, 227.571575022289, -5.05612083954E-05, 1.44,105.713226318359
0.146166303333333, 227.57742333558, 7.27640970914354E-05, 1.445,102.978118896484
0.146833133333333, 227.582960809767, -0.000223541519774979, 1.45125,107.385810852051
0.147499456666667, 227.587287513961, -0.0001854794315929, 1.4575,107.319038391113
0.148166146666667, 227.59098566278, 0.000132333605011295, 1.465,107.789413452148
0.14883263, 227.595610173676, 0.000328678242837446, 1.47125,107.789413452148
0.149499925, 227.599668421987, 0.00047839022297477, 1.4775,108.717483520508
0.150166018333333, 227.603959912208, 0.000659093646466986, 1.48375,113.316917419434
0.150832683333333, 227.608836371885, 0.000583302453384114, 1.49125,108.670852661133
0.151499328333333, 227.614573105497, 0.000366672834463887, 1.4975,105.517097473145
0.152166055, 227.619288638482, 0.000363825977436405, 1.50375,105.517097473145
0.152832721666667, 227.624083478294, 0.000385691879127819, 1.51125,107.28360748291
0.153500285, 227.629262642777, 0.000425490880045173, 1.5175,107.974342346191
0.154166138333333, 227.633921613763, 0.000542796987881538, 1.52375,105.528244018555
0.154832741666667, 227.638487361227, 0.000355864377279888, 1.53,120.057006835938
0.155499515, 227.643851234868, 0.000159791225876997, 1.5375,120.057006835938
0.156166176666667, 227.649226287915, -5.19501385628495E-05, 1.54375,103.504989624023
0.156832713333333, 227.65438663156, -0.000247247828985494, 1.55125,107.664154052734
0.157500898333333, 227.659854259514, -0.000346412348040103, 1.5575,105.436058044434
0.158165996666667, 227.665283520979, -0.000462182533074991, 1.56375,136.209182739258
0.15883271, 227.670169819999, -0.000524510402440032, 1.57,136.209182739258
0.15949956, 227.674710340141, -0.000449653662409168, 1.57625,104.189071655273
0.160166066666667, 227.679462393971, -0.000461054589732454, 1.58375,108.231079101563
0.160832726666667, 227.684803194262, -0.000588240701313406, 1.59125,112.867012023926
