Time (min), Depth (µm), Load (N), Position (µm), Acoustic (aJ)
7.76166666666667E-06, 226.895567955221, -0.000533409822513484, 0,104.14306640625
0.000664851666666667, 226.895603093178, -0.000686634626198353, 0.00125,109.688766479492
0.001331085, 226.894458395799, -0.000923027252456561, 0.00625,124.273658752441
0.00199810666666667, 226.892840840647, -0.000787993535058756, 0.01375,107.167366027832
0.00266473333333333, 226.89092790565, -0.000561776397695085, 0.0225,107.167366027832
0.00333139666666667, 226.89022888588, -0.000614438752526459, 0.03125,108.605644226074
0.00399763833333333, 226.890324389547, -0.000807992030549302, 0.0375,107.346267700195
0.00466438666666667, 226.892899354284, -0.000735736159901278, 0.04375,110.69450378418
0.00533187833333333, 226.89689195729, -0.000769890944353993, 0.05125,104.4296875
0.005997625, 226.901426820035, -0.00114077581519416, 0.0575,104.4296875
0.00666463, 226.90623069407, -0.00125704847494665, 0.065,110.408760070801
0.00733105666666667, 226.910776786761, -0.00087072487958824, 0.07125,101.421859741211
0.00799837166666667, 226.915069891884, -0.000333303373710102, 0.0775,111.728202819824
0.00866502833333333, 226.91996488542, -0.000550550961569488, 0.08375,106.338989257813
0.00933151833333333, 226.925412354357, -0.000390565997472669, 0.0925,106.338989257813
0.00999799, 226.930609891344, -0.00044236889542969, 0.0975,105.803588867188
0.01066421, 226.936166785433, -0.00103416717002968, 0.10375,102.414703369141
0.0113311166666667, 226.941453602229, -0.00158436653408835, 0.11125,105.284210205078
0.0119980983333333, 226.947240996833, -0.00144084624295038, 0.1175,112.429412841797
0.0126641783333333, 226.952282698154, -0.00148884833183192, 0.125,112.429412841797
0.013331555, 226.957684410295, -0.00151682192677736, 0.13125,109.472702026367
0.0139979583333333, 226.962805573284, -0.00112235374046398, 0.13625,109.414916992188
0.01466421, 226.967600633042, -0.00101525162010707, 0.1425,105.85343170166
0.0153313183333333, 226.972552380164, -0.000881893318586512, 0.15125,105.85343170166
0.0159980416666667, 226.978029136665, -0.000885212651864782, 0.1575,105.842704772949
0.0166645483333333, 226.982931685916, -0.000648718030725898, 0.16375,83.8222045898438
0.0173310416666667, 226.988272328012, -0.000660163955845044, 0.17,112.636268615723
0.017997785, 226.993972421563, -0.000289090094508812, 0.1775,126.512542724609
0.0186643083333333, 226.99997943725, -0.0005081285924245, 0.18375,126.512542724609
0.0193323, 227.005350105166, -0.000587699595683713, 0.19,113.574043273926
0.0199976533333333, 227.010693195978, -0.000530084489622617, 0.19625,105.440773010254
0.0206641366666667, 227.015991114912, -0.00020309191409768, 0.20375,106.54419708252
0.0213309583333333, 227.021519194438, -0.00026143898339509, 0.21,107.110733032227
0.0219978583333333, 227.026711053487, -6.58788061806217E-05, 0.21625,112.036590576172
0.022664175, 227.032274556686, 9.4943115924502E-05, 0.22375,112.036590576172
0.0233309383333333, 227.038256006505, 7.59090719952831E-05, 0.23,107.117904663086
0.0239977083333333, 227.044482412262, -0.0003086086141053, 0.23625,113.47135925293
0.0246641666666667, 227.050766978365, -0.000593069325940048, 0.2425,107.566482543945
0.025332315, 227.056554075743, -0.000709238490866202, 0.24875,107.566482543945
0.0259980766666667, 227.061919336678, -0.00045270787612669, 0.25625,103.828926086426
0.026665585, 227.067040628235, -0.000465719722556632, 0.2625,106.626434326172
0.027332295, 227.072347042509, -8.39213998880002E-05, 0.27,109.125396728516
0.0279983516666667, 227.076870552525, 3.03823225690661E-06, 0.27625,103.135040283203
0.02866487, 227.082061970868, -4.33394382621122E-05, 0.28125,113.700584411621
0.0293314133333333, 227.087653397118, -0.000287516673490983, 0.29,113.700584411621
0.0299982966666667, 227.093222819371, -0.000672967312719171, 0.29625,108.700180053711
0.0306647016666667, 227.098422183022, -0.000875853121994396, 0.30125,110.38257598877
0.0313324416666667, 227.103362061013, -0.000992832246310851, 0.30875,104.603530883789
0.0319995033333333, 227.108084479405, -0.00106763948881515, 0.31625,108.286895751953
0.03266468, 227.112666593244, -0.00108212876103735, 0.32125,108.286895751953
0.0333310166666667, 227.117020030035, -0.00104284423423282, 0.3275,105.094337463379
0.0339976766666667, 227.12131925314, -0.00110302571139423, 0.335,103.052368164063
0.0346656733333333, 227.125517994756, -0.000874312699377201, 0.34125,131.14111328125
0.0353320983333333, 227.129282427631, -0.000580115976561833, 0.3475,111.4501953125
0.0359982483333333, 227.133503989769, -0.000385895232094523, 0.355,111.4501953125
0.0366642716666667, 227.137853184547, -0.000283147393002908, 0.36125,104.745948791504
0.0373309733333333, 227.142123396239, -0.000160129572061248, 0.3675,106.695877075195
0.03799865, 227.146748363693, -0.000522974846718437, 0.37375,107.450210571289
0.0386649016666667, 227.151180553613, -0.000415521743987401, 0.38125,111.864585876465
0.0393308283333333, 227.155640009054, -0.000523186336080551, 0.38875,111.864585876465
0.0399985383333333, 227.159953359514, -0.000582832340081215, 0.39375,104.632118225098
0.0406641533333333, 227.164355422158, -0.000696343638497206, 0.4,108.735786437988
0.041331005, 227.1689218179, -0.000432326899764534, 0.4075,107.019264221191
0.0419978133333333, 227.173981708776, -0.000891875317148013, 0.41375,105.403503417969
0.0426647183333333, 227.178850930538, -0.0010567650349149, 0.42,105.403503417969
0.0433310316666667, 227.183048246892, -0.00105701552235401, 0.4275,102.42041015625
0.0439977566666667, 227.187848087754, -0.00114225624083523, 0.43375,101.668167114258
0.0446647266666667, 227.192376130173, -0.00117102929557262, 0.44,114.420272827148
0.0453323916666667, 227.197043237559, -0.00113004685408855, 0.44625,107.263130187988
0.0459981516666667, 227.201829512341, -0.0011551915911206, 0.45375,107.263130187988
0.04666444, 227.205736278174, -0.00107068583572451, 0.46,115.322830200195
0.0473313166666667, 227.209954978115, -0.00091424069381449, 0.46625,106.102554321289
0.047999335, 227.214700376568, -0.000792097328969963, 0.4725,109.016212463379
0.0486641616666667, 227.218714833308, -0.00032830412482388, 0.48,106.265983581543
0.0493312966666667, 227.223018860635, -0.000141867989327232, 0.48625,106.265983581543
0.0499979783333333, 227.228378248578, -0.000408476597853815, 0.4925,103.193572998047
0.0506642866666667, 227.233120885865, -0.000301624964872247, 0.5,105.106483459473
0.0513310166666667, 227.237786304629, -0.000493567323788435, 0.505,130.089279174805
0.0519993583333333, 227.242071980648, -0.000716456128284908, 0.5125,107.297241210938
0.0526707616666667, 227.246462921087, -0.00097522163072534, 0.51875,107.297241210938
0.0533310583333333, 227.25038035005, -0.000487480629476056, 0.52625,106.462135314941
0.053997675, 227.254674712411, -0.000405487247944262, 0.5325,104.181648254395
0.0546642316666667, 227.259002508949, -0.000148691146521611, 0.53875,105.836135864258
0.0553310283333333, 227.263257700149, -9.08705508172691E-05, 0.545,106.726440429688
0.0559976333333333, 227.26729381297, 0.000439498309262758, 0.5525,106.726440429688
0.0566642666666667, 227.272064631001, 0.000276165513324007, 0.55875,108.389930725098
0.0573311683333333, 227.27630000064, 0.000189870347838523, 0.565,106.106719970703
0.0579976333333333, 227.280430781537, -5.42093923041365E-05, 0.5725,109.817932128906
0.058664455, 227.284903648004, -0.00038774313923564, 0.57875,109.817932128906
0.059331055, 227.288938614149, -0.000736490621982387, 0.585,110.543121337891
0.0599993316666667, 227.292819186844, -0.000694945708762083, 0.59125,103.956039428711
0.0606641416666667, 227.296855303899, -0.00101603308086994, 0.59875,106.527687072754
0.0613317433333333, 227.301185934949, -0.000868987966789202, 0.605,111.722557067871
0.061997645, 227.304738560442, -0.000401158465372566, 0.61125,102.068740844727
0.06266416, 227.308820424281, -0.000241429988391213, 0.6175,102.068740844727
0.0633317266666667, 227.312951749432, -0.000407218161003179, 0.625,106.599639892578
0.063999325, 227.317125413519, -0.00012935411784168, 0.63125,105.840614318848
0.0646647383333333, 227.320571169749, -0.00016813017014598, 0.6375,103.151473999023
0.0653312783333333, 227.324680877506, -0.000283858357255068, 0.645,108.527297973633
0.065999005, 227.328858860049, -0.000476474182355843, 0.65125,108.527297973633
0.06666442, 227.332776564004, -0.000462803869006601, 0.6575,101.088119506836
0.067331605, 227.336598447485, -0.000454281297080757, 0.66375,101.610641479492
0.06799894, 227.340755579449, -9.88591495705367E-05, 0.67125,129.839965820313
0.0686643683333333, 227.344606760399, 7.40701643793317E-05, 0.6775,102.244567871094
0.0693309833333333, 227.348436830922, 0.000128181446396794, 0.6825,102.244567871094
0.06999795, 227.352807096375, 0.000295435045427046, 0.69125,103.95092010498
0.0706642816666667, 227.357147804125, 0.000262274711044978, 0.6975,104.414009094238
0.0713318616666667, 227.361278347072, 0.000146072547781951, 0.70375,111.054580688477
0.07199773, 227.365875174999, -0.000131893490260223, 0.71,107.159141540527
0.072666105, 227.369955576242, 0.000150525824121626, 0.7175,107.159141540527
0.07333123, 227.373972053695, 0.000217612954404606, 0.72375,106.610717773438
0.073997795, 227.377406339531, 0.000425138030624255, 0.73,107.620452880859
0.0746647166666667, 227.381242793019, 0.000640849695639656, 0.7375,110.266311645508
0.07533141, 227.384448340783, 0.000908268263492777, 0.7425,104.005638122559
0.0759978633333333, 227.388163475265, 0.000702385604749744, 0.74875,104.005638122559
0.0766645633333333, 227.392210720812, 0.000793444530968886, 0.7575,113.108871459961
0.07733219, 227.395815277677, 0.000809726213150537, 0.76375,108.611625671387
0.0779976816666667, 227.399405185729, 0.000419597308900932, 0.77,108.076972961426
0.07866566, 227.402774545293, 0.000397062440798141, 0.77625,105.266380310059
0.0793318416666667, 227.405975048616, 0.000582160643514541, 0.785,105.266380310059
0.07999803, 227.408751655808, 0.000524154057120433, 0.79,108.386436462402
0.0806644083333333, 227.411926167838, 0.000389535818846093, 0.79625,112.201927185059
0.0813315933333333, 227.414846541005, 0.000521865172077234, 0.8025,110.417625427246
0.0819981833333333, 227.418533853625, 0.000332280694769304, 0.81125,105.568237304688
0.0826656083333333, 227.421409180809, 0.000373273635745447, 0.81625,105.568237304688
0.0833311683333333, 227.425107621702, 0.000315610532103447, 0.8225,106.057914733887
0.0839980783333333, 227.428625301445, 0.000298281902497036, 0.83,131.050704956055
0.0846644666666667, 227.431764487834, 6.19557369962502E-06, 0.8375,105.408363342285
0.085331065, 227.434767560854, 0.000138251940583103, 0.8425,115.242622375488
0.0859991766666667, 227.438392978859, -8.49563478962809E-05, 0.84875,115.242622375488
0.0866660033333333, 227.440727273222, 8.782597341956E-05, 0.85625,106.257659912109
0.0873314333333333, 227.442799289856, 0.000430027785029039, 0.8625,111.947814941406
0.08799759, 227.445851942755, 0.000772366089737961, 0.87,105.104103088379
0.08866468, 227.448788543192, 0.000695475451897469, 0.87625,108.012382507324
0.0893310383333333, 227.451560842699, 0.000724461495942631, 0.8825,108.012382507324
0.0899976083333333, 227.454709435443, 0.000820344179892814, 0.88875,107.088760375977
0.0906646883333333, 227.458020639029, 0.000473492601846833, 0.89625,106.731956481934
0.09133145, 227.460465196425, 0.000580815211154786, 0.9025,103.239883422852
0.0919980516666667, 227.462868644278, 0.000896631847995672, 0.90875,103.239883422852
0.0926656733333333, 227.465011705853, 0.000869480211771997, 0.915,110.55207824707
0.0933311366666667, 227.467132947949, 0.00104767576121563, 0.92375,106.839096069336
0.093998415, 227.469540803859, 0.00135819766402034, 0.92875,107.802352905273
0.0946647916666667, 227.472533165519, 0.00118675627529105, 0.935,107.202499389648
0.0953312833333333, 227.474853721638, 0.00123296745413754, 0.94125,106.126342773438
0.09599769, 227.477892764626, 0.00149783615008004, 0.95,106.126342773438
0.0966643933333333, 227.481059154151, 0.00101677131343362, 0.95625,106.279891967773
0.09733168, 227.48472423875, 0.00109692128757625, 0.96125,103.816444396973
0.0979986416666667, 227.486921338883, 0.00119305895865373, 0.9675,103.424049377441
0.0986641783333333, 227.489870307723, 0.000935820379489614, 0.975,110.640228271484
0.099330935, 227.492529054233, 0.000911163117994893, 0.98125,110.640228271484
0.09999772, 227.495015215296, 0.00105416143535551, 0.98875,111.86360168457
0.10066416, 227.497029406235, 0.000698136318086405, 0.99625,123.394157409668
0.101331385, 227.500235690173, 0.000648319320379364, 1.0025,109.64868927002
0.101997845, 227.504053264111, 0.000386306480968256, 1.0075,109.527565002441
0.10266566, 227.507370649213, 5.29902231389871E-05, 1.01375,109.527565002441
0.103331238333333, 227.510184313175, 3.292423102904E-05, 1.02125,110.93058013916
0.103999375, 227.513489440173, 8.18727724003247E-05, 1.02875,110.650421142578
0.104664288333333, 227.516015275773, 0.000132723218212498, 1.035,109.633666992188
0.105331098333333, 227.518521281565, 0.000342000206475218, 1.04125,106.943153381348
0.105997795, 227.520798757749, 0.000787383335328854, 1.04875,106.943153381348
0.10666428, 227.523453219529, 0.000750762674732101, 1.055,105.046379089355
0.107331183333333, 227.525983091355, 0.000605881951969088, 1.06,100.735061645508
0.107998113333333, 227.528382986152, 0.000639745751045063, 1.0675,115.095458984375
0.108665698333333, 227.530821993728, 0.000575125996788016, 1.07375,109.046165466309
0.109331065, 227.533418729645, 0.000430830244627291, 1.08125,109.046165466309
0.109997838333333, 227.535974425683, 0.000169753358256356, 1.08875,108.818962097168
0.110664205, 227.53905606748, 9.13042986845755E-05, 1.095,103.086151123047
0.111331488333333, 227.542178267693, 1.34117111301655E-05, 1.10125,111.76392364502
0.111997541666667, 227.544854255802, 6.93199029653043E-05, 1.10625,109.331245422363
0.112664231666667, 227.547675345903, 1.20857777451446E-05, 1.11375,109.331245422363
0.113331186666667, 227.550432660581, 0.000251403257057296, 1.12,109.88695526123
0.113998985, 227.552209709737, 0.00024926136462687, 1.1275,107.754776000977
0.11466497, 227.554548816407, 9.98583689803794E-05, 1.13375,110.087074279785
0.115331378333333, 227.557162703945, 5.12428109116344E-05, 1.14125,103.574760437012
0.115998225, 227.560023919911, -0.000187498697365904, 1.1475,103.574760437012
0.116664816666667, 227.562922233345, -0.000565610205256213, 1.1525,109.478782653809
0.117331553333333, 227.566195193274, -0.000550403969062986, 1.16,130.835601806641
0.117998223333333, 227.569411716696, -0.000539597011888406, 1.16625,110.446472167969
0.118665723333333, 227.571561583963, -0.000419112563710185, 1.17375,106.303695678711
0.119330988333333, 227.574035306587, -0.000517708611352198, 1.18,106.303695678711
0.119997755, 227.576401556638, -0.000244602329184234, 1.18625,106.031173706055
0.120664443333333, 227.578655829804, -5.71402452044712E-05, 1.1925,110.857406616211
0.121331501666667, 227.580760907923, -0.000270050050966997, 1.19875,104.635299682617
0.121997708333333, 227.584366460393, -0.000743984245746342, 1.20625,103.396697998047
0.122664385, 227.587084620697, -0.000654941218265245, 1.21375,103.396697998047
0.123331663333333, 227.589932333367, -0.000633154812567203, 1.21875,110.384437561035
0.12399763, 227.592984607755, -0.000724294734704121, 1.225,108.431030273438
0.124664945, 227.59610426062, -0.000477140149003431, 1.2325,113.212158203125
0.1253317, 227.59863879885, -0.000445559235251788, 1.23875,107.240158081055
0.125997676666667, 227.601068775638, -0.000492067399215144, 1.245,107.240158081055
0.126664828333333, 227.603820202558, -0.000813942231783494, 1.2525,113.361656188965
0.12733226, 227.606199647485, -0.00100159180635617, 1.26,109.365989685059
0.127998895, 227.608902225677, -0.00117330018162925, 1.265,113.66943359375
0.128664218333333, 227.611452695202, -0.00105060784434686, 1.27125,110.83048248291
0.129331006666667, 227.614115852865, -0.00101753600554709, 1.27875,110.83048248291
0.129998088333333, 227.616690249959, -0.000827884031555996, 1.285,102.18977355957
0.130665595, 227.618941110226, -0.000701459881741932, 1.2925,108.28816986084
0.13133157, 227.621512078952, -0.000562277372700822, 1.29875,112.16625213623
0.131997881666667, 227.623106132465, -0.000411284456931829, 1.305,106.267272949219
0.132664168333333, 227.62598252536, -0.000387938129535588, 1.31125,106.267272949219
0.133330938333333, 227.628757606658, -0.000327032188781138, 1.3175,103.196304321289
0.133997715, 227.632482706246, -0.000428946069734509, 1.325,127.904106140137
0.134664131666667, 227.634885285696, -0.000595661195818976, 1.33125,112.269149780273
0.135331295, 227.638567556625, -0.000606046674151223, 1.3375,111.557586669922
0.135997853333333, 227.641147253852, -0.00054754361269462, 1.34375,111.557586669922
0.136666028333333, 227.643966005942, -0.000623162314492372, 1.35125,112.216064453125
0.137331011666667, 227.64662306155, -0.000360357514911327, 1.3575,106.326927185059
0.137997583333333, 227.65004348676, 7.12548056367936E-05, 1.36375,116.158477783203
0.138664985, 227.653384043783, 0.000127576976628486, 1.37,108.989799499512
0.13933145, 227.657087633302, 0.0002000758350936, 1.3775,108.989799499512
0.139997685, 227.660886409676, 0.000272606191971183, 1.38375,110.496643066406
0.140664778333333, 227.664824828766, 0.000133903658845386, 1.39,114.122016906738
0.141330971666667, 227.668858467872, -0.000225389794208519, 1.39625,112.213989257813
0.141997653333333, 227.673183889065, -0.000414582791225945, 1.40375,112.963562011719
0.142665675, 227.677655649526, -0.000513322831631924, 1.41,112.963562011719
0.143332638333333, 227.682198889711, -0.00044925954945601, 1.415,108.680473327637
0.143997775, 227.686396106507, -0.000389295561375586, 1.4225,106.832649230957
0.144666018333333, 227.691619771013, -0.000583564303466308, 1.43,106.566413879395
0.145331291666667, 227.695964437285, -0.000744464221640401, 1.43625,109.059921264648
0.145998073333333, 227.700692396769, -0.000907144550399973, 1.44375,109.059921264648
0.146664751666667, 227.705396511114, -0.00105479413414275, 1.45,110.447532653809
0.147332343333333, 227.710140533209, -0.00135579751504783, 1.45625,102.661521911621
0.147997665, 227.71441685022, -0.00112888591255792, 1.4625,105.094795227051
0.148664876666667, 227.718277740658, -0.00126920236457542, 1.47,103.981430053711
0.149331375, 227.722770915307, -0.00116851542195395, 1.47625,103.981430053711
0.14999774, 227.726788604707, -0.000836226612468433, 1.4825,106.761276245117
0.150666115, 227.731248059637, -0.000659421493180415, 1.49,127.05899810791
0.151331001666667, 227.736336641294, -0.000761573862177666, 1.49625,106.165374755859
0.151997698333333, 227.741244676567, -0.000427098162572138, 1.5025,108.053230285645
0.15266488, 227.745068192296, -0.000208520141512013, 1.50875,108.053230285645
0.153331816666667, 227.749951656746, -0.000421140461800947, 1.51625,108.18578338623
0.153998995, 227.754305525576, -0.000332214428465812, 1.5225,112.260513305664
0.154664196666667, 227.758168998765, -0.000311053491392708, 1.52875,109.127098083496
0.155332711666667, 227.763812697421, -0.000274164344285264, 1.535,106.338798522949
0.15599922, 227.769074828178, -0.00025834763875364, 1.5425,106.338798522949
0.156664158333333, 227.774504592715, -0.000357587154028412, 1.55,111.575073242188
0.157331183333333, 227.779489110822, -0.000640159460720647, 1.55625,106.071365356445
0.157997666666667, 227.785032070403, -0.000497498626393267, 1.56125,108.13688659668
0.158664353333333, 227.789292778892, -0.00072585915606926, 1.56875,108.13688659668
0.15933147, 227.794291328938, -0.00109027635179862, 1.575,108.315002441406
0.159998998333333, 227.798521597109, -0.000687443085685504, 1.58125,103.966125488281
