Time (min), Depth (µm), Load (N), Position (µm), Acoustic (aJ)
7.68333333333333E-06, 226.964844062106, -0.000833069694152707, 0,111.283355712891
0.000663263333333333, 226.964842576535, -0.000608034497431344, 0.00125,107.579772949219
0.00133159333333333, 226.963749123103, -0.000609264435633302, 0.005,105.549797058105
0.00199649, 226.961337460451, -0.000406933598493553, 0.0125,101.634338378906
0.00266321, 226.959342725372, -0.000263068324721578, 0.02125,101.634338378906
0.00332993166666667, 226.956950052246, -0.000289981472880119, 0.02875,108.575775146484
0.00399642666666667, 226.955907058825, -4.58480802645084E-06, 0.03625,102.002990722656
0.00466338666666667, 226.956396638249, 0.000334804644795568, 0.04375,105.889228820801
0.00533038333333333, 226.959792274952, -8.66516859390208E-05, 0.05125,89.8769607543945
0.00599669833333333, 226.964130437999, -0.000176380178978678, 0.05875,89.8769607543945
0.006663625, 226.969066356952, -0.000128676575095892, 0.06375,111.71997833252
0.00733017, 226.973456044431, -6.84081023403517E-05, 0.07,106.264389038086
0.00799646666666667, 226.978232138705, -0.000238832542090443, 0.07875,108.980255126953
0.00866328666666667, 226.983453809292, -0.000134962759353905, 0.085,107.057006835938
0.00933146333333333, 226.988486854415, -7.6234709173051E-05, 0.09125,107.057006835938
0.00999703666666667, 226.993427138236, -0.000329030511489574, 0.09625,103.296371459961
0.0106634066666667, 226.998074673806, -0.000655525112027613, 0.105,109.626640319824
0.01133047, 227.003797742005, -0.000501538346639619, 0.11125,107.36775970459
0.0119969083333333, 227.008138657932, -0.000539759426850951, 0.11625,128.138168334961
0.0126633116666667, 227.012917556247, -0.000675520607690607, 0.125,128.138168334961
0.0133299416666667, 227.017429251627, -0.000398147039872736, 0.13125,108.67024230957
0.013996395, 227.022760591685, -0.000282234362019538, 0.1375,111.492462158203
0.01466354, 227.027398481048, -0.00012136894210672, 0.1425,103.751686096191
0.015330315, 227.032751885578, -0.000251682396578563, 0.15125,110.191215515137
0.0159966466666667, 227.038244644088, -8.34433470878458E-05, 0.1575,110.191215515137
0.0166632283333333, 227.044025787022, 8.93224750383052E-05, 0.16375,109.172874450684
0.0173312433333333, 227.049691835856, 0.000111008385780074, 0.17125,104.141983032227
0.0179966333333333, 227.055738742966, -0.000281242911840206, 0.1775,109.415191650391
0.018663645, 227.061188947893, 0.000342053780605488, 0.18375,108.978729248047
0.01933005, 227.066321192938, 0.000475920556626272, 0.19,108.978729248047
0.0199970733333333, 227.072220239549, 0.000599904329053662, 0.1975,106.617050170898
0.0206640183333333, 227.078119549906, 0.000305446619349619, 0.20375,99.7485046386719
0.021330295, 227.08415554938, 0.000444197150035066, 0.21,106.085182189941
0.0219964966666667, 227.090174965464, 0.000326135080171934, 0.21625,110.165924072266
0.022663485, 227.096001653968, 0.000317650006356172, 0.22375,110.165924072266
0.0233306033333333, 227.102331344884, -0.000296294655819898, 0.23,101.47826385498
0.023996465, 227.107723447376, -0.000216621657701264, 0.23625,109.457298278809
0.0246637083333333, 227.113306751632, -0.000165772711770986, 0.2425,107.494491577148
0.025332495, 227.118655505794, -0.000661463313739053, 0.25,100.730819702148
0.0259964, 227.124626467859, -0.000771374793013366, 0.25625,100.730819702148
0.0266646433333333, 227.129793604991, -0.00053660358535389, 0.2625,120.05298614502
0.0273304383333333, 227.135745804828, -0.000409253982012983, 0.26875,104.33154296875
0.0279970766666667, 227.14100837759, -0.00096811391104259, 0.27625,103.504409790039
0.0286637483333333, 227.147376245311, -0.000871463265734177, 0.2825,126.175910949707
0.0293302716666667, 227.15310112621, -0.00112464904845931, 0.29,126.175910949707
0.0299964016666667, 227.159813260991, -0.00102811839706065, 0.29625,110.245079040527
0.0306634233333333, 227.165032926592, -0.00131991974022144, 0.30125,103.594161987305
0.0313298933333333, 227.17036900991, -0.000830672814552473, 0.30875,107.568161010742
0.0319972083333333, 227.175184307106, -0.000566647076252128, 0.315,108.080909729004
0.0326651366666667, 227.179761811196, -0.000532220805439915, 0.32125,108.080909729004
0.03333005, 227.183838012395, -0.000445381167311031, 0.3275,108.942085266113
0.0339969516666667, 227.189244156632, -8.84260967843781E-05, 0.335,113.435852050781
0.0346638616666667, 227.19546427482, -0.000340329443974692, 0.34125,107.156837463379
0.0353307216666667, 227.200923458841, -0.000344805219201669, 0.3475,104.335906982422
0.035996815, 227.206794157353, -0.000410530417892696, 0.355,104.335906982422
0.03666334, 227.212678642311, -0.000649166931440752, 0.36125,102.159446716309
0.03733045, 227.21800839585, -0.000546912567562825, 0.36875,102.159759521484
0.0379963866666667, 227.223162864679, -0.000346164150923562, 0.37375,107.017539978027
0.03866343, 227.228827463041, -0.000249194021632239, 0.38,107.214775085449
0.03933006, 227.233559122146, 0.000262766263143507, 0.3875,107.214775085449
0.03999641, 227.238492014868, 0.000683916609214815, 0.39375,107.82772064209
0.04066488, 227.243938904137, 0.000764500061595006, 0.4,109.303871154785
0.04132998, 227.249034001967, 0.000888815317358024, 0.4075,113.210601806641
0.041996985, 227.254280170785, 0.000833538593824181, 0.41375,104.615280151367
0.0426638566666667, 227.259736277727, 0.000671534731119258, 0.42,104.615280151367
0.04333032, 227.264984788488, 0.000623402148793378, 0.4275,108.371726989746
0.0439965116666667, 227.269734435385, 0.000437916965538429, 0.43375,106.721183776855
0.04466326, 227.274568960348, 0.000267465527127824, 0.44,126.35285949707
0.0453316, 227.279189273986, 0.00013889498508887, 0.44625,108.023811340332
0.0459969933333333, 227.284648576598, -0.000307848575474824, 0.45375,108.023811340332
0.0466633133333333, 227.289682425097, -0.000675615102928012, 0.46,100.937347412109
0.0473299816666667, 227.294308482026, -0.000412418822992701, 0.46625,111.871940612793
0.0479964216666667, 227.298864121102, -0.000400507921244783, 0.4725,104.265853881836
0.048663505, 227.30407449767, -0.000454556206458562, 0.48,104.265853881836
0.049329935, 227.30846905051, -0.000358436534431411, 0.48625,108.494758605957
0.04999673, 227.313177518181, -0.000207973092061784, 0.4925,106.296943664551
0.0506633733333333, 227.31877008588, -0.000701772289059786, 0.5,106.673217773438
0.051331685, 227.32395568654, -0.000769204401998024, 0.505,104.039573669434
0.0519970383333333, 227.328794614881, -0.000703156719496534, 0.51125,110.173095703125
0.0526636816666667, 227.333178280812, -0.000283347306075534, 0.51875,110.173095703125
0.05333045, 227.337960358831, -0.00039096390058778, 0.52625,105.733345031738
0.0539965716666667, 227.342190643826, -6.79311261675746E-05, 0.5325,104.374313354492
0.0546632, 227.347553626803, 0.000168948975606709, 0.53875,104.664932250977
0.0553306083333333, 227.352734902073, 0.000170823881408339, 0.545,108.433975219727
0.05599666, 227.358014408561, -5.58717319249883E-05, 0.5525,108.433975219727
0.05666364, 227.363296935268, -0.000106639681916236, 0.55875,107.761848449707
0.0573300883333333, 227.368856057174, -0.000313624785286951, 0.565,105.06763458252
0.05799696, 227.373253276286, -0.000769795372319178, 0.57125,103.717681884766
0.058663165, 227.378362423298, -0.000651494814412166, 0.57875,106.942939758301
0.0593300716666667, 227.383026609101, -0.000582234293286291, 0.585,106.942939758301
0.05999741, 227.387561627503, -0.000386212139291857, 0.59125,109.547698974609
0.0606632733333333, 227.392812280618, -0.000325340696819937, 0.5975,105.602828979492
0.06133117, 227.397594701369, -6.74661495813106E-05, 0.605,130.96516418457
0.0619983316666667, 227.402246196469, -0.000129465535395768, 0.61125,130.96516418457
0.062663355, 227.407831479517, -0.000172396379019731, 0.6175,106.957794189453
0.06333009, 227.413536296702, -0.000583875210881013, 0.62375,104.586517333984
0.0639964, 227.418520323229, -0.000329322996790717, 0.63125,105.419898986816
0.0646632216666667, 227.42338921694, -0.000410021943371213, 0.6375,105.755477905273
0.0653298933333333, 227.42872028218, -0.00054245329148303, 0.645,103.231842041016
0.06599692, 227.433756983133, -0.000524239706308664, 0.65125,103.231842041016
0.0666632816666667, 227.438681741454, -0.000400320430609359, 0.6575,104.948219299316
0.0673299183333333, 227.443767871672, -0.000434994188969364, 0.66375,102.237373352051
0.0679965816666667, 227.449563900293, -0.000564556181208904, 0.67125,110.522232055664
0.0686640516666667, 227.454262918465, -0.000669781895839783, 0.6775,110.404632568359
0.0693315933333333, 227.459480250327, -0.000593314236744772, 0.68375,110.404632568359
0.0699980016666667, 227.464128875206, -0.000217925092198982, 0.69125,103.661186218262
0.070663285, 227.468857638473, -0.000375948154836274, 0.6975,110.82984161377
0.0713299033333333, 227.473032168723, -0.000167331133459766, 0.7025,103.72095489502
0.0719979233333333, 227.477809946199, 0.000137836038332645, 0.71,106.660179138184
0.072663185, 227.482603319414, 0.00031634807184662, 0.7175,106.660179138184
0.0733302766666667, 227.487236064299, 0.000181774831346885, 0.72375,106.882011413574
0.0739978333333333, 227.492694435554, 0.00023913944994762, 0.73,107.766578674316
0.07466359, 227.497677834056, 0.000148831986003289, 0.7375,111.101715087891
0.07532989, 227.50249377725, 4.85965206909586E-05, 0.74375,108.66796875
0.07599661, 227.507338096889, -0.000463612751599491, 0.75,108.66796875
0.0766648183333333, 227.512353896744, -0.000676521057416359, 0.75625,107.10391998291
0.07733045, 227.516047355859, -0.000518058516822641, 0.765,106.063606262207
0.077998305, 227.520472096245, -0.000284382254147577, 0.76875,128.353820800781
0.0786635316666667, 227.524602881852, -0.000420932395393379, 0.77625,108.785659790039
0.079330035, 227.529036390356, -0.000275796685396796, 0.78375,108.785659790039
0.079997995, 227.532752496263, -0.000202564363770964, 0.79,104.82950592041
0.0806632616666667, 227.537370593272, -0.000112915366767188, 0.79625,107.012771606445
0.0813312133333333, 227.541570508214, -0.000287665589218915, 0.8025,109.798767089844
0.08199789, 227.546026225099, -0.000187190136002063, 0.81,105.160057067871
0.0826637483333333, 227.550002227497, -2.66142015628363E-05, 0.81625,105.160057067871
0.08333037, 227.554773834355, -3.36143499855783E-05, 0.8225,106.937644958496
0.0839970416666667, 227.558433947093, -0.000324961215924659, 0.83,107.418617248535
0.0846641916666667, 227.563361811957, -0.000354347739870507, 0.83625,105.605438232422
0.0853299316666667, 227.56708127487, -0.000377821560819771, 0.8425,104.379577636719
0.08599706, 227.571798571057, -0.000305766680063037, 0.85,104.379577636719
0.086663485, 227.575595495473, -0.000490533399422556, 0.85625,103.098587036133
0.0873303566666667, 227.580349253562, -0.000473155272332091, 0.8625,102.394226074219
0.0879982683333333, 227.584031835969, -0.000495300160026273, 0.87,104.917236328125
0.0886639233333333, 227.58857088687, -0.000511862328135095, 0.87625,107.967506408691
0.0893304583333333, 227.591814898787, -0.000612750260669113, 0.8825,107.967506408691
0.0899970633333333, 227.595736299532, -0.000308957019863881, 0.88875,103.012939453125
0.090663695, 227.59888688119, 6.8029544532698E-05, 0.895,107.558265686035
0.091331255, 227.602976797147, 9.74415672146562E-05, 0.9025,105.953552246094
0.091996925, 227.606654098144, 6.48467044388866E-05, 0.90875,109.811790466309
0.09266383, 227.611389566801, -0.000124742272706016, 0.91625,109.811790466309
0.0933299183333333, 227.615563947678, -3.80901251487931E-05, 0.92375,106.528907775879
0.0939970166666667, 227.61939067601, -0.000219333521511198, 0.92875,108.286407470703
0.0946637416666667, 227.623119397937, -4.83226112131622E-05, 0.935,134.059417724609
0.0953299983333333, 227.626892011709, 3.74727337265449E-06, 0.94125,106.103721618652
0.0959965216666667, 227.629538320597, 0.000681825714192846, 0.95,106.103721618652
0.0966634566666667, 227.63239245047, 0.000739559314303052, 0.95625,109.09561920166
0.0973314783333333, 227.636256863208, 0.000638785376087444, 0.9625,113.924842834473
0.09799643, 227.639766146558, 0.000254404183128812, 0.9675,107.369468688965
0.0986646083333333, 227.643079658583, 0.000415841074324288, 0.975,101.656585693359
0.0993308333333333, 227.646469325405, 1.06364273683013E-05, 0.98125,101.656585693359
0.0999964716666667, 227.650630201957, -0.000462396312717162, 0.98875,111.451438903809
0.100663823333333, 227.652976758064, -0.000257871085814126, 0.99625,108.192199707031
0.101331338333333, 227.656152613975, -7.13989521105462E-05, 1.0025,108.470916748047
0.10199889, 227.659735509684, -8.7653635631684E-05, 1.0075,110.779823303223
0.102663818333333, 227.663001653306, -0.000201940395155447, 1.01375,110.779823303223
0.103330058333333, 227.666042847747, 0.00019415520936926, 1.02125,105.689086914063
0.103996458333333, 227.669644356172, 9.34049242883734E-06, 1.02875,111.243446350098
0.104663285, 227.672397647915, 0.000383822182604386, 1.035,111.464790344238
0.105329953333333, 227.674863672387, 0.000418533439074472, 1.04125,106.238502502441
0.105996548333333, 227.677971089072, 0.000614675587084929, 1.04875,106.238502502441
0.10666335, 227.681378812374, 0.00041333170039381, 1.055,108.670036315918
0.107330043333333, 227.684824956491, 8.65581138955108E-05, 1.06,108.583938598633
0.107997088333333, 227.688262860376, -0.000154017802246023, 1.0675,108.031562805176
0.10866329, 227.691793260798, -0.00042115438424757, 1.075,112.74341583252
0.109330621666667, 227.694737046732, -0.000761046311829696, 1.08125,112.74341583252
0.109997276666667, 227.697077564262, -0.00086689749502175, 1.0875,110.670433044434
0.110663663333333, 227.699710406265, -0.000595022651022656, 1.095,116.14860534668
0.111329935, 227.701765858042, -0.000598055498676142, 1.1,124.556701660156
0.111996553333333, 227.704307156535, -7.40133207705065E-05, 1.10625,110.293159484863
0.112664558333333, 227.707047037456, 7.411473889942E-05, 1.11375,110.293159484863
0.113331363333333, 227.710643885953, 0.00033620857420705, 1.12,105.850662231445
0.11399641, 227.713243079181, 0.000336538557597021, 1.1275,107.33211517334
0.11466379, 227.717105221669, 0.00020963743171645, 1.13375,110.476722717285
0.115329983333333, 227.720184712266, -0.000260246966472714, 1.14125,106.982391357422
0.115996471666667, 227.72345332386, -0.000225879192733483, 1.1475,106.982391357422
0.116663548333333, 227.726268000899, -0.00067299623453735, 1.1525,104.88892364502
0.117330336666667, 227.730502911084, -0.000742849225866274, 1.16,112.924476623535
0.11799704, 227.733319617029, -0.00049279228597769, 1.16625,107.882148742676
0.118663923333333, 227.737112939575, -0.000503854230343331, 1.1725,112.760192871094
0.119330116666667, 227.740366178496, -0.000600377382056213, 1.18,112.760192871094
0.119996501666667, 227.74411975295, -5.44483034962639E-05, 1.1875,107.134147644043
0.120663691666667, 227.747019247631, -2.90950769721608E-05, 1.19375,111.451789855957
0.121330438333333, 227.751020395616, -0.000308685533419367, 1.19875,105.111480712891
0.12199705, 227.754558420276, -0.00033818755156552, 1.20625,109.876541137695
0.122664648333333, 227.75772417304, -0.00035177836892139, 1.2125,109.876541137695
0.123329878333333, 227.761031538303, -0.000503024771957042, 1.21875,106.650703430176
0.123996963333333, 227.764041516233, -0.000395310682316077, 1.22625,110.080909729004
0.12466497, 227.767435876311, -0.000327473589725197, 1.23375,107.920562744141
0.125331876666667, 227.770014165548, 5.21918400594282E-05, 1.24,114.127731323242
0.12599653, 227.773806016714, 0.000293906198971814, 1.245,114.127731323242
0.126663195, 227.776744765784, 0.000395568092604183, 1.25125,107.086318969727
0.127330508333333, 227.780718811094, 0.000205182655473626, 1.25875,137.419860839844
0.127996418333333, 227.783203741032, 0.000261488327339391, 1.265,111.06428527832
0.128664585, 227.787232483269, 0.000179220459578038, 1.2725,113.341018676758
0.129330025, 227.790560617532, 0.000279049445292069, 1.28,113.341018676758
0.129996473333333, 227.793932164604, 0.000206606084029875, 1.28625,109.02156829834
0.13066374, 227.797596172665, 0.000374768637397281, 1.29125,106.609077453613
0.13133056, 227.801468176333, 0.000432206752357537, 1.2975,110.50870513916
0.131996406666667, 227.804629543775, 0.000460174347584109, 1.305,109.444923400879
0.132663351666667, 227.807994907695, 2.23418394517189E-05, 1.31125,109.444923400879
0.133329931666667, 227.811691680957, 0.000102836796292117, 1.3175,104.538635253906
0.133997003333333, 227.814386500673, 0.000141116373533922, 1.325,109.790397644043
0.134663746666667, 227.817552314145, 0.000327122030663073, 1.33125,108.501647949219
0.135330323333333, 227.821384373331, 0.000374891631198348, 1.3375,111.655136108398
0.135996498333333, 227.824981230279, 0.000507558467483984, 1.34375,111.655136108398
0.136664991666667, 227.827287569836, 0.000361908283310814, 1.35125,108.420745849609
0.137331278333333, 227.830724215791, 0.000476280538504308, 1.3575,109.553497314453
0.137996408333333, 227.834313164675, 0.000159563946872689, 1.36375,108.923858642578
0.13866371, 227.837468964213, -0.000243635300837331, 1.37,111.585678100586
0.13933047, 227.840442216652, -0.000368802513831432, 1.3775,111.585678100586
0.139996956666667, 227.844570736425, -0.000501962825288249, 1.38375,112.15535736084
0.140663291666667, 227.848182652978, -0.000475748642007897, 1.39,105.760375976563
0.14133163, 227.850645189642, -0.000511311855687812, 1.39625,110.367652893066
0.14199641, 227.854500849724, -0.000154854760126803, 1.40375,109.149368286133
0.142663296666667, 227.85799006526, 1.34442864038066E-05, 1.41,109.149368286133
0.143331241666667, 227.861986785204, -0.000180831955287678, 1.415,112.614242553711
0.143996388333333, 227.86622852896, -0.00047866899528863, 1.4225,129.130096435547
0.144663436666667, 227.871343649738, -0.000553821220469444, 1.43,108.96947479248
0.145330386666667, 227.874216385089, -0.000304736231764204, 1.43625,109.506622314453
0.145996401666667, 227.878500598284, -0.00010613870712304, 1.44375,109.506622314453
0.146664691666667, 227.881339427829, 0.000272791759618973, 1.45,114.384422302246
0.147330813333333, 227.884915291029, 0.000531032288475756, 1.45625,106.431312561035
0.147997015, 227.887698706541, 0.000691170244904216, 1.4625,108.332244873047
0.148663851666667, 227.891592426345, 0.000407158010551058, 1.47,107.273277282715
0.149330076666667, 227.89420178302, 0.000226417088970015, 1.47625,107.273277282715
0.149996973333333, 227.896769856371, 0.000140732392801672, 1.48375,107.562629699707
0.150663301666667, 227.898966076956, 0.000507627464049042, 1.49,108.67179107666
0.1513314, 227.902128949862, 0.00052106228924572, 1.49625,109.356010437012
0.151996603333333, 227.904891234794, 0.000849005816948592, 1.5025,103.829261779785
0.152663743333333, 227.908750144916, 0.00100785833797217, 1.50875,103.829261779785
0.153331261666667, 227.913683971051, 0.00115204459563021, 1.51625,112.394737243652
0.153996973333333, 227.917651277535, 0.00096694639293506, 1.5225,107.196899414063
0.154665438333333, 227.92141564962, 0.000929863755515833, 1.52875,106.928604125977
0.155330191666667, 227.924798400518, 0.000773387115193349, 1.535,104.52311706543
0.15599731, 227.92842097828, 0.000977550860251437, 1.5425,104.52311706543
0.156663125, 227.930667413496, 0.000895308491226194, 1.54875,112.975875854492
0.157331168333333, 227.934128787617, 0.000903483080605466, 1.555,108.761375427246
0.157996548333333, 227.937404056849, 0.000991777645681813, 1.56125,106.765991210938
0.158664645, 227.94108113017, 0.000867889868416231, 1.56875,105.061584472656
0.159329993333333, 227.94505811984, 0.0007621871777401, 1.57625,105.061584472656
0.159996605, 227.94942328525, 0.000893808566546633, 1.5825,107.522178649902
0.16066383, 227.953415650977, 0.000943268582203191, 1.58875,131.593383789063
