Time (min), Depth (µm), Load (N), Position (µm), Acoustic (aJ)
7.49333333333333E-06, 226.754711359518, 0.000123703318721462, 0,128.456939697266
0.000664871666666667, 226.75416901269, 0.000270403450104438, 0,103.480628967285
0.00133139, 226.752810208769, -0.000342207779022086, 0.00375,103.480628967285
0.00199825666666667, 226.74994629111, -0.000156389612485851, 0.0125,108.091941833496
0.00266438, 226.74715738272, 0.00040986194529951, 0.0225,105.526779174805
0.003330775, 226.745299478844, 0.000503328250610962, 0.03125,112.020111083984
0.003997425, 226.744689091222, 0.00028845654338891, 0.0375,108.281723022461
0.004664635, 226.746419590749, 0.000227370611663562, 0.04375,108.281723022461
0.00533070666666667, 226.750198896374, -0.000148369515298861, 0.05125,107.383010864258
0.005998035, 226.754253112057, -0.000576845493388418, 0.0575,107.362754821777
0.00666492833333333, 226.75883726846, -0.000520425827268006, 0.06375,105.642433166504
0.007332235, 226.761700329366, -0.000488519429899602, 0.07125,102.785011291504
0.00799748166666667, 226.765501824075, -0.000264240195226259, 0.0775,102.785011291504
0.00866410666666667, 226.76877378237, -0.000186523098890793, 0.08375,109.328002929688
0.00933137333333333, 226.772500780517, 6.68471745571943E-05, 0.09,111.948745727539
0.00999796666666667, 226.775069562065, -4.9666973066726E-05, 0.0975,105.477249145508
0.010664565, 226.77953283904, 0.000175582712886811, 0.105,110.860939025879
0.0113307816666667, 226.783305540685, 9.54312388197754E-05, 0.11125,110.860939025879
0.0119975066666667, 226.787084003803, 5.68051789983094E-05, 0.11625,109.368347167969
0.0126655083333333, 226.790794305052, -0.000267007556239114, 0.125,104.320503234863
0.01333128, 226.795382914799, -0.000318411474241106, 0.13125,111.533332824707
0.0139973633333333, 226.799545630044, -0.000439335400375752, 0.1375,105.126441955566
0.0146640533333333, 226.803310308888, -0.000219342950348305, 0.14375,105.126441955566
0.0153307833333333, 226.807459431704, -0.000135516660855665, 0.15125,107.683204650879
0.0159975266666667, 226.8118281225, -0.00025983041669428, 0.1575,106.499114990234
0.0166646366666667, 226.81591534628, -0.000122857296724251, 0.16375,122.892219543457
0.01733149, 226.820185150581, -0.000199510946509029, 0.17,110.570404052734
0.0179980366666667, 226.824637547135, -0.000218532991021767, 0.17625,110.570404052734
0.0186640883333333, 226.828462846323, 2.98638230324495E-06, 0.18375,110.497550964355
0.019330775, 226.832407939288, 3.31723660623005E-05, 0.19125,106.633224487305
0.0201641516666667, 226.837136123912, 2.19889277774871E-05, 0.19875,108.712844848633
0.02083088, 226.841028730694, -0.000141745847986353, 0.205,107.528518676758
0.0214974933333333, 226.845064234528, -0.000438655934493551, 0.21125,107.471244812012
0.0221642633333333, 226.849428654121, -0.000381822289195332, 0.2175,107.471244812012
0.0228307633333333, 226.853085000312, 7.66341829887795E-05, 0.225,110.713111877441
0.0234976616666667, 226.856285342231, 0.000192914342384538, 0.23125,103.424324035645
0.0241644383333333, 226.860145837263, 0.000354210240686107, 0.2375,109.766036987305
0.0248308066666667, 226.863323196952, 0.000551646823647862, 0.245,111.091186523438
0.0254978633333333, 226.86739552081, 0.000521247850581036, 0.25,111.091186523438
0.026164735, 226.87071470867, 0.00047792552662406, 0.2575,106.650192260742
0.0268307666666667, 226.87444780427, 0.000693617692643473, 0.265,112.360832214355
0.0274976116666667, 226.878330871068, 0.000598384476066171, 0.27,107.952682495117
0.028164785, 226.881652998061, 0.000554684171074558, 0.2775,107.288261413574
0.0288313983333333, 226.884947672618, 0.000538044006896766, 0.28375,107.288261413574
0.0294980183333333, 226.88915200821, 0.000376449623617694, 0.29,106.977836608887
0.03016422, 226.892916424663, 0.000159155538038045, 0.29625,108.243377685547
0.0308308433333333, 226.896682900699, 0.000266766132852677, 0.30375,106.529090881348
0.03149802, 226.900732840954, 0.000294768226298016, 0.31125,107.949157714844
0.0321641216666667, 226.905190493044, 0.000121790914767243, 0.31625,107.949157714844
0.0328308933333333, 226.908560079512, 0.000120991454911528, 0.3225,108.543449401855
0.033498125, 226.91185471902, 9.96715258091705E-05, 0.33,127.650108337402
0.0341643116666667, 226.91456239715, 9.827209612839E-05, 0.33625,106.006004333496
0.0348307916666667, 226.917104278555, 0.000137394631033605, 0.3425,112.805671691895
0.035497765, 226.919572933547, 0.000220095977053769, 0.35,112.805671691895
0.036165615, 226.922732807473, 0.00021576569455767, 0.35625,111.08617401123
0.03683145, 226.925605147483, 0.000226013179823564, 0.3625,108.71215057373
0.0374975083333333, 226.92896624074, 0.000308732524936568, 0.36875,111.026733398438
0.03816579, 226.931966125733, 0.000421375366995548, 0.375,101.956008911133
0.0388313183333333, 226.934933772793, 0.000388545016024705, 0.3825,101.956008911133
0.0394974316666667, 226.937059145735, 0.000565270639298096, 0.38875,110.052764892578
0.0401651316666667, 226.939732911017, 0.000473061270870369, 0.395,105.842475891113
0.04083135, 226.942209293449, 0.000750562332283771, 0.4025,110.162315368652
0.0414974766666667, 226.945170208381, 0.000874856589147652, 0.40875,111.866706848145
0.0421642066666667, 226.947466579938, 0.00115656343933168, 0.415,111.866706848145
0.042830865, 226.950984366921, 0.000901747238482652, 0.42125,105.094375610352
0.04349761, 226.953734428549, 0.00119263812733938, 0.42875,104.466194152832
0.0441641433333333, 226.957075247385, 0.00109209517752438, 0.43625,107.857238769531
0.0448322633333333, 226.960695096263, 0.000988912360270805, 0.4425,106.510261535645
0.04549799, 226.964116472669, 0.000697509997128804, 0.4475,106.510261535645
0.0461642016666667, 226.966686299744, 0.000990883261276751, 0.455,105.333534240723
0.04683098, 226.969615473905, 0.000736514037984907, 0.46125,108.989822387695
0.0474974683333333, 226.972457923858, 0.000670925332435831, 0.4675,103.229095458984
0.04816564, 226.974687685242, 0.000590416876297058, 0.475,106.884155273438
0.04883079, 226.976912589883, 0.000342129847459367, 0.48125,106.884155273438
0.0494978883333333, 226.979814654821, 0.000197306121823678, 0.4875,117.328147888184
0.0501647816666667, 226.98229952971, 8.96325301416004E-05, 0.495,127.501686096191
0.0508313716666667, 226.984495511165, 0.000221694896807708, 0.50125,103.816040039063
0.051497475, 226.987199436957, 0.000136061198111584, 0.50625,100.10041809082
0.0521642616666667, 226.990251749189, 0.000599158437185777, 0.51375,100.10041809082
0.05283226, 226.993532462565, 0.0004649301793413, 0.52,109.145294189453
0.05349833, 226.996273965821, 0.000735215103196637, 0.5275,111.236053466797
0.0541642883333333, 226.999336458741, 0.000660257868209501, 0.53375,109.527061462402
0.0548324116666667, 227.002115967366, 0.000803176689491733, 0.54,103.026573181152
0.05549777, 227.004388480684, 0.000618517964731757, 0.5475,103.026573181152
0.0561640816666667, 227.007539771615, 0.000764829615673035, 0.55375,108.919647216797
0.05683227, 227.010600812766, 0.000525066658728099, 0.56,115.354934692383
0.0574979983333333, 227.01349346582, 0.000472878280093171, 0.56625,103.147422790527
0.0581645366666667, 227.016486003647, 0.000113493331671921, 0.57375,108.640602111816
0.058831275, 227.019575541256, 0.000162296380312327, 0.58,108.640602111816
0.059497525, 227.021944891707, 0.000289196006311003, 0.58625,110.060546875
0.0601656066666667, 227.024667655608, 0.00069975988409501, 0.59375,107.275772094727
0.0608308933333333, 227.027237020954, 0.000590022396136493, 0.6,102.382148742676
0.061499325, 227.030171245668, 0.000896782487857704, 0.60625,109.27759552002
0.06216463, 227.032285918161, 0.000909011373600367, 0.6125,109.27759552002
0.062831365, 227.034766082596, 0.00119768537378525, 0.62,109.041976928711
0.06349763, 227.037215659195, 0.00106914933005008, 0.62625,108.609252929688
0.0641642133333333, 227.040123564685, 0.00131836781204846, 0.6325,114.278785705566
0.0648307783333333, 227.042378057177, 0.00127824182754744, 0.63875,100.19652557373
0.065498115, 227.045604516046, 0.0014462918865846, 0.64625,100.19652557373
0.0661643033333333, 227.048113514496, 0.00125398504597466, 0.6525,103.965576171875
0.0668313066666667, 227.051196884128, 0.00107029077275475, 0.65875,135.314025878906
0.067497555, 227.054314555218, 0.000713635687172516, 0.66625,104.450706481934
0.06816415, 227.057211310764, 0.000873239670449653, 0.67125,114.112808227539
0.0688325966666667, 227.059815283171, 0.000493097264598521, 0.6775,114.112808227539
0.0694977966666667, 227.062548796146, 0.000468810484473913, 0.68625,109.206390380859
0.0701649083333333, 227.065584849624, 0.000491859826732038, 0.6925,109.338188171387
0.0708309183333333, 227.067413963658, 0.000576707564892076, 0.69875,105.627182006836
0.071499005, 227.070466093998, 0.000677324011024088, 0.705,108.961502075195
0.072164275, 227.072926201, 0.000967964412420455, 0.7125,108.961502075195
0.0728308133333333, 227.075985749451, 0.00084939536804526, 0.71875,104.62629699707
0.0734974333333333, 227.07812901157, 0.00104702394135189, 0.725,109.053268432617
0.074164655, 227.081109548884, 0.001079318819247, 0.73125,105.600318908691
0.0748307583333333, 227.083158402335, 0.00122462252079801, 0.7375,102.308151245117
0.0754975283333333, 227.086121552507, 0.000996878460158024, 0.74625,102.308151245117
0.0761646966666667, 227.088216610247, 0.000842317223596057, 0.75125,104.604042053223
0.0768308433333333, 227.09132829964, 0.000593548718982412, 0.75875,107.09204864502
0.0774974416666667, 227.093163808249, 0.000621087335744636, 0.765,103.904541015625
0.0781648883333333, 227.09582553268, 0.000418300521522534, 0.77125,107.555381774902
0.0788314316666667, 227.098326626737, 0.000262495847417725, 0.7775,107.555381774902
0.07949753, 227.100640117351, 0.000438957483932381, 0.785,103.343231201172
0.08016429, 227.10290702797, 0.000622185280535345, 0.79125,109.528503417969
0.0808326683333333, 227.105827154545, 0.000571867307992599, 0.7975,102.366989135742
0.0814976166666667, 227.10833993289, 0.000517781524689993, 0.805,105.915191650391
0.082164645, 227.110576147506, 0.000755311093837157, 0.81125,105.915191650391
0.082830785, 227.113150078825, 0.00075194976269685, 0.8175,111.050025939941
0.08349825, 227.115590551431, 0.000728375446833822, 0.825,123.320358276367
0.08416412, 227.11773115042, 0.00080160026879513, 0.83125,110.153991699219
0.0848310816666667, 227.120345474339, 0.000523857719489041, 0.8375,105.138084411621
0.0854976583333333, 227.12363369193, 5.55617414979759E-05, 0.84375,105.138084411621
0.0861657033333333, 227.126713667733, -3.3241298014838E-05, 0.85125,107.440238952637
0.0868326566666667, 227.130517757085, -0.000276197594566916, 0.8575,108.289588928223
0.0874978033333333, 227.135084040366, -9.23293300949817E-05, 0.86375,113.021766662598
0.0881642533333333, 227.139549158149, -0.000166514103886915, 0.87125,111.155197143555
0.0888311616666667, 227.144107330308, 0.000256949125975535, 0.88,111.155197143555
0.0894974433333333, 227.148721293039, 0.000266886126847446, 0.88375,107.294990539551
0.0901660583333333, 227.1528478756, 0.000589179438409321, 0.89,106.59383392334
0.090830845, 227.156743620015, 0.00044633861315355, 0.8975,104.175018310547
0.091498, 227.16015085555, 0.000958156405089733, 0.90375,112.430404663086
0.0921642233333333, 227.164257174429, 0.00112916131571141, 0.91125,112.430404663086
0.0928314783333333, 227.16840018433, 0.00101563201818132, 0.91625,106.567237854004
0.0934976533333333, 227.172441981639, 0.0010153260335393, 0.92375,102.554733276367
0.094164115, 227.17701931704, 0.000809623365809672, 0.93125,102.807327270508
0.0948322533333333, 227.181909733978, 0.000653244220552146, 0.9375,104.631500244141
0.09549816, 227.18659479227, 0.000268102565793538, 0.9425,104.631500244141
0.096165, 227.19085498596, 8.00585110390401E-05, 0.95,109.328330993652
0.0968307966666667, 227.195218926375, -0.000184640693424639, 0.95625,107.736595153809
0.0974974533333333, 227.199455554728, 2.07529898566617E-05, 0.96375,106.537986755371
0.09816559, 227.203346344412, 1.27073940185786E-05, 0.97,107.683586120605
0.0988307966666667, 227.206692396366, 0.000387646561200883, 0.97625,107.683586120605
0.09949813, 227.211089521118, 0.000643238223136431, 0.9825,126.399261474609
0.100164715, 227.214954892592, 0.000938282403345911, 0.99125,102.788314819336
0.100832383333333, 227.219324082794, 0.00107803188387521, 0.9975,106.643943786621
0.101497441666667, 227.223590824443, 0.00119716340002916, 1.0025,109.493278503418
0.10216532, 227.228555548561, 0.00114291262497843, 1.00875,109.493278503418
0.102831008333333, 227.232206852138, 0.00152725331993566, 1.01625,110.431198120117
0.103498935, 227.236668596493, 0.00138907126068407, 1.02375,102.253219604492
0.104164286666667, 227.241079094777, 0.00118524349873482, 1.02875,105.231781005859
0.10483137, 227.245353175116, 0.00139003571222414, 1.035,105.224464416504
0.105497596666667, 227.249491010691, 0.00122986025766435, 1.0425,105.224464416504
0.10616465, 227.254451980202, 0.00105011078628389, 1.05,105.656585693359
0.106831286666667, 227.258578565025, 0.00101077376210399, 1.05875,108.432945251465
0.107497618333333, 227.263191588129, 0.00118514750348799, 1.0625,105.968933105469
0.108164105, 227.2676993365, 0.00114992777251768, 1.06875,104.830230712891
0.108830925, 227.27251281398, 0.00101661446872922, 1.075,104.830230712891
0.109498271666667, 227.277172104186, 0.000928933372818823, 1.0825,109.019332885742
0.110165043333333, 227.281853705243, 0.00118068372769875, 1.09,107.748756408691
0.110830816666667, 227.28650699721, 0.000860754297442746, 1.09625,105.999839782715
0.111499385, 227.290912722771, 0.000526874067910328, 1.10125,104.188262939453
0.112164515, 227.294649528321, 0.000580872855597546, 1.1075,104.188262939453
0.11283141, 227.298908058017, 0.000573943203706774, 1.115,108.970230102539
0.113497536666667, 227.303234788695, 0.000326868113999456, 1.1225,107.867126464844
0.114164751666667, 227.306874875609, 0.000617690006354888, 1.12875,110.575241088867
0.114832268333333, 227.311814627776, 0.000630263874795316, 1.13625,110.747627258301
0.115497846666667, 227.316123594842, 0.000662306765305671, 1.1425,110.747627258301
0.116164288333333, 227.320932050744, 0.000429792944213164, 1.1475,128.167922973633
0.11683075, 227.325525523126, 0.000605305128410524, 1.155,112.501991271973
0.117497628333333, 227.330515757993, 0.000629572409475382, 1.16125,108.209754943848
0.1181642, 227.334798287083, 0.000443767742237522, 1.16875,106.762016296387
0.118832205, 227.339918394428, 0.000510884871051075, 1.175,106.762016296387
0.11949755, 227.344139904062, 0.000820607314000074, 1.18125,106.256423950195
0.120164126666667, 227.34887783658, 0.000625989089480884, 1.1875,105.786926269531
0.12083077, 227.35351518872, 0.000434165224635062, 1.19375,106.28116607666
0.121498023333333, 227.358605249355, 0.000667274515821933, 1.20125,105.308685302734
0.12216425, 227.363008029264, 0.000615620110338327, 1.20875,105.308685302734
0.122831433333333, 227.368041431233, 0.000540716872650962, 1.215,108.944862365723
0.123497436666667, 227.372871312901, 0.000432525806985998, 1.22,103.651893615723
0.12416433, 227.378005838978, 0.000563191743756369, 1.2275,109.938835144043
0.12483094, 227.383033512312, 0.000304960214424751, 1.23375,107.76545715332
0.1254975, 227.38750810192, 0.000150443975616136, 1.24,107.76545715332
0.126164715, 227.392619700869, 0.000113185847062983, 1.2475,106.313117980957
0.126830875, 227.398184200085, 0.000167655611055331, 1.25375,100.760383605957
0.127497438333333, 227.402621126824, -0.000157336064933086, 1.26,105.148979187012
0.128164238333333, 227.407967708588, 7.31183596136825E-05, 1.26625,106.396377563477
0.12883091, 227.413132999125, 0.00027261583904558, 1.2725,106.396377563477
0.129498013333333, 227.417840120831, 0.000244465253020557, 1.28,107.35750579834
0.130164151666667, 227.422689342309, 0.000191337921581664, 1.28625,106.437446594238
0.130830773333333, 227.427800485666, 0.000402021839147181, 1.29375,105.53784942627
0.131497715, 227.432256693892, 0.00040603263766037, 1.3,115.775016784668
0.132164078333333, 227.43713992136, 0.000520539886092666, 1.30625,115.775016784668
0.132831703333333, 227.441971236901, 0.000747749973581326, 1.3125,126.718322753906
0.133497711666667, 227.446446918581, 0.000793776661662458, 1.31875,102.663612365723
0.134164233333333, 227.450537388047, 0.000920725785145188, 1.32625,106.116401672363
0.134831311666667, 227.454908760133, 0.000995197044540652, 1.3325,112.939758300781
0.135498028333333, 227.459957945898, 0.000945870522177238, 1.33875,112.939758300781
0.136164538333333, 227.464504428064, 0.000777012003737942, 1.34625,104.453895568848
0.136831398333333, 227.469581846168, 0.000740553335040504, 1.3525,107.643348693848
0.137497546666667, 227.474735818557, 0.000705590091206908, 1.35875,102.38159942627
0.138165728333333, 227.480143785356, 0.000538229997544024, 1.365,111.835113525391
0.138832296666667, 227.485396592566, 0.000400343423421124, 1.3725,111.835113525391
0.139498043333333, 227.490962141156, 0.000360857906767813, 1.37875,109.243110656738
0.14016427, 227.496240313869, 0.000361186390254635, 1.385,111.234901428223
0.140830845, 227.501548580466, 0.000226137673570288, 1.39125,113.163932800293
0.141497921666667, 227.506621775377, 0.000412098332946087, 1.39875,107.396911621094
0.142164193333333, 227.51204700852, 0.000681379807226866, 1.405,107.396911621094
0.142832931666667, 227.516854078385, 0.000661468307330454, 1.41125,109.283874511719
0.143497571666667, 227.52244348616, 0.000432596303369189, 1.41625,105.508766174316
0.144164706666667, 227.527793706694, 0.000451553851153842, 1.42375,106.712219238281
0.144831286666667, 227.533342012645, -0.000132609806915815, 1.43125,109.342597961426
0.145497973333333, 227.538798336682, -0.000448165456846772, 1.4375,109.342597961426
0.146165555, 227.54453617802, -0.000697839915948763, 1.445,105.626594543457
0.146831388333333, 227.549392508472, -0.000301478824762171, 1.45125,109.054405212402
0.147497456666667, 227.554231764043, -0.000515089095348542, 1.4575,110.465591430664
0.148165991666667, 227.559150854645, -0.000243284747796402, 1.465,111.563941955566
0.14883081, 227.564020790728, -0.000225584136895474, 1.4725,111.563941955566
0.14949785, 227.568480392984, 4.62802076327968E-05, 1.4775,124.950202941895
0.15016411, 227.573163574926, 9.60807061926565E-05, 1.485,108.298942565918
0.150831378333333, 227.578350329391, 0.000445135673527088, 1.49125,108.185554504395
0.151497425, 227.582870505771, 0.000870763294707268, 1.4975,109.382377624512
0.152164293333333, 227.58789610889, 0.000825446070932639, 1.50375,109.382377624512
0.152832263333333, 227.592595865498, 0.000826403022871951, 1.51125,101.536834716797
0.153497625, 227.597848887611, 0.000738775924282578, 1.5175,104.062271118164
0.154164598333333, 227.603107052634, 0.000714360150680543, 1.52375,105.331176757813
0.154831323333333, 227.608654628014, 0.000450268415727709, 1.53,103.42643737793
0.155497821666667, 227.613790004787, 0.000459045974844614, 1.5375,103.42643737793
0.156164136666667, 227.619261493126, 0.00065156280491352, 1.54375,107.704360961914
0.156830908333333, 227.62432259822, 0.000438165523656174, 1.55125,104.586326599121
0.157497556666667, 227.629959434692, 0.000356722614444138, 1.5575,108.77025604248
0.158164676666667, 227.634817848864, 0.000296617633448552, 1.56375,105.517593383789
0.15883083, 227.640133263641, 0.000424883690769883, 1.57,105.517593383789
0.159497925, 227.645148514175, 0.000298962015694672, 1.57625,104.844657897949
0.160164583333333, 227.650575304617, 0.000357499575391296, 1.58375,109.319297790527
0.160830938333333, 227.655103482924, 0.000401829848717294, 1.59,107.736999511719
0.161497473333333, 227.659804517436, 0.000379891950675778, 1.5975,108.064834594727
0.162164691666667, 227.664847760883, 0.000363647766625463, 1.60375,108.064834594727
