Time (min), Depth (µm), Load (N), Position (µm), Acoustic (aJ)
7.625E-06, 226.731400152072, 7.64299943313864E-05, 0,108.643325805664
0.000664163333333333, 226.730909662179, 0.000124465081592308, 0.00125,124.900543212891
0.00133076, 226.730450377434, -5.8101248285057E-05, 0.00625,107.630676269531
0.001997945, 226.7287160106, -0.000268158197343742, 0.01375,110.070518493652
0.002664225, 226.727095698672, -0.00057727317080315, 0.02375,110.070518493652
0.00333071833333333, 226.727318927298, -0.000707838612595995, 0.03125,107.837181091309
0.00399738166666667, 226.72803036279, -0.000965179186640791, 0.0375,102.479354858398
0.00466415833333333, 226.730130124908, -0.000426263755801959, 0.045,106.866249084473
0.00533069666666667, 226.733533872965, -0.000360772545339094, 0.05125,106.866249084473
0.00599758666666667, 226.737684660422, -3.7649775475948E-05, 0.05875,106.513801574707
0.00666421333333333, 226.741053344073, 0.000108508883091181, 0.06375,109.524238586426
0.00733103666666667, 226.744038992481, 0.000475558446594595, 0.07125,103.456443786621
0.0079977, 226.746973334255, 7.78879211489105E-05, 0.07875,101.591064453125
0.00866428, 226.750036464758, -5.91826939710928E-05, 0.085,101.591064453125
0.0093312, 226.752686645783, -0.000239176653029281, 0.09125,109.541343688965
0.009997495, 226.75566532267, -0.000321231531461608, 0.0975,88.4616775512695
0.010664455, 226.758445855273, -0.000239577132866205, 0.105,107.74462890625
0.0113307133333333, 226.761296634295, -0.000433862374146617, 0.11125,108.536018371582
0.0119975383333333, 226.76669220428, -0.00046041854023342, 0.12,108.536018371582
0.0128306633333333, 226.770059854608, -0.000378347162632657, 0.12625,111.109199523926
0.013497745, 226.774287922082, -0.000797790594456754, 0.1325,104.594589233398
0.01416434, 226.778249202331, -0.000922447833068731, 0.14,112.202545166016
0.0148307516666667, 226.782622212089, -0.000495062300232884, 0.14625,105.160430908203
0.0154974733333333, 226.786821387063, -0.000263241444342207, 0.1525,108.50333404541
0.01616428, 226.791521980717, -0.000360087079865552, 0.16,108.50333404541
0.0168312366666667, 226.795611017686, 6.04152987785322E-05, 0.16625,134.866714477539
0.01749752, 226.800849667895, 0.000132560175020716, 0.1725,105.807312011719
0.0181644366666667, 226.805596126022, -9.60718410360288E-05, 0.18,106.628082275391
0.0188309416666667, 226.810576771918, -0.000294484874954338, 0.185,109.249145507813
0.0194979833333333, 226.815365396479, -1.11866047446555E-05, 0.1925,109.249145507813
0.0201642066666667, 226.820405873889, -0.000105776353625435, 0.19875,114.369926452637
0.0208307133333333, 226.824937083713, 0.000112867664129688, 0.205,82.4243774414063
0.0214977133333333, 226.829926570413, 0.000326555930785029, 0.21125,104.171615600586
0.0221641416666667, 226.835040656984, 0.000483563544452537, 0.2175,106.684104919434
0.0228308783333333, 226.839954124871, -0.000127964739127311, 0.225,106.684104919434
0.0234978983333333, 226.844801643845, -5.83217372148441E-05, 0.23125,107.165756225586
0.0241641716666667, 226.849827171804, -0.000324084388250466, 0.2375,108.948669433594
0.0248308433333333, 226.854236771863, -0.00064682767719708, 0.245,108.006446838379
0.02549769, 226.85899116755, -0.00101581964310027, 0.25125,112.563903808594
0.0261641583333333, 226.863504291054, -0.000833793286093094, 0.2575,112.563903808594
0.0268310233333333, 226.867948512985, -0.000935350184974727, 0.265,108.436531066895
0.02749785, 226.872081436641, -0.000867984068688979, 0.27125,103.849884033203
0.0281642716666667, 226.87703633442, -0.000680067507551266, 0.2775,106.760734558105
0.0288308966666667, 226.880973420976, -0.00067056698476572, 0.285,104.558059692383
0.029497575, 226.885482590929, -0.000744607765793687, 0.29125,104.558059692383
0.030164435, 226.889027789945, -0.000899028009419239, 0.2975,101.835411071777
0.03083084, 226.893235562493, -0.000848696537514355, 0.30375,108.107452392578
0.031497495, 226.89661450725, -0.00108178632964148, 0.31125,107.263198852539
0.0321649166666667, 226.900750726201, -0.00111622309992451, 0.3175,105.316032409668
0.03283084, 226.904251242336, -0.000808915535668586, 0.32375,105.316032409668
0.0334977933333333, 226.908351590371, -0.000362041481681808, 0.32875,128.422470092773
0.0341647033333333, 226.911625775149, -0.000169980628695255, 0.33625,106.334564208984
0.0348308366666667, 226.915185047016, 0.000156506472220768, 0.3425,107.725524902344
0.0354980166666667, 226.918471533612, 0.000363040098282339, 0.35,110.746543884277
0.0361641666666667, 226.922118619557, 0.000411495164418682, 0.35625,110.746543884277
0.0368307816666667, 226.925231336135, 0.00033186116437704, 0.3625,107.596153259277
0.037497725, 226.929215307997, 0.000177955394928076, 0.37,108.062774658203
0.0381639766666667, 226.932797265353, -0.000232801973167714, 0.3775,107.965019226074
0.038831265, 226.936235186692, -0.000175219865485998, 0.3825,109.746650695801
0.0394988233333333, 226.939861798043, -0.000358402664378119, 0.38875,109.746650695801
0.040164125, 226.943219369402, -0.000344388868298022, 0.39625,108.145210266113
0.040831055, 226.945989836571, -0.000298362180174382, 0.4025,110.73127746582
0.0414988983333333, 226.949186080039, -0.000355474811517878, 0.41,104.573928833008
0.0421642066666667, 226.952666982773, -0.00038213747227982, 0.41625,107.269317626953
0.0428321233333333, 226.95544395032, -0.000260544579733797, 0.4225,107.269317626953
0.0434982183333333, 226.958722148637, -0.000538383124222949, 0.43,112.407592773438
0.0441640116666667, 226.962506385878, -0.000761697907356218, 0.435,108.13111114502
0.0448308966666667, 226.966167956682, -0.000698554078967026, 0.44125,108.714172363281
0.0454983883333333, 226.968645201567, -0.000740698962076157, 0.44875,105.208099365234
0.0461643266666667, 226.971905764289, -0.00078231137195837, 0.455,105.208099365234
0.0468321366666667, 226.974892292193, -0.000817718593479093, 0.46125,105.926132202148
0.0474980483333333, 226.976991268432, -0.000528368127282068, 0.46875,110.67293548584
0.0481642383333333, 226.979730111018, -0.000197532744798362, 0.475,104.469161987305
0.0488306716666667, 226.982185939019, -0.000121636556986008, 0.48125,109.11075592041
0.0494974816666667, 226.98446864903, -0.000189332656661727, 0.4875,109.11075592041
0.05016428, 226.987138080989, -0.000251960510928674, 0.495,125.089347839355
0.0508307266666667, 226.990343829507, -0.000244798370649126, 0.50125,101.201759338379
0.0514976933333333, 226.992596921201, -0.000354529858931285, 0.50625,105.729614257813
0.052164205, 226.995076723341, -0.000245879816356416, 0.51375,108.552932739258
0.05283074, 226.99801491536, 1.3692645816797E-06, 0.52125,108.552932739258
0.053497475, 227.000736144896, 0.000446530404623634, 0.5275,111.589889526367
0.054164615, 227.00353776773, 0.000211327218629749, 0.53375,111.559242248535
0.0548321483333333, 227.005751089073, 0.000461394657946648, 0.54125,108.240669250488
0.0554988666666667, 227.00878150072, 0.00054437199009952, 0.5475,101.904884338379
0.0561643133333333, 227.011251461594, 0.000402693606447561, 0.55375,101.904884338379
0.0568321416666667, 227.013752516344, 0.000306215452424269, 0.56,104.638244628906
0.0574979716666667, 227.01600638377, 0.000463944529857268, 0.5675,106.947296142578
0.0581640983333333, 227.018976332551, 0.000315194001474974, 0.57375,109.577255249023
0.0588321433333333, 227.021609278607, 0.000167424423801188, 0.58,101.23152923584
0.05949748, 227.02441005776, 2.33896584866291E-05, 0.5875,101.23152923584
0.0601641833333333, 227.027657962631, -0.000116623808780156, 0.59375,108.155456542969
0.0608313333333333, 227.030923315496, -3.35084835609303E-05, 0.6,109.707176208496
0.06149758, 227.034402867403, -9.43634268431608E-05, 0.60625,105.343017578125
0.0621645383333333, 227.037796321214, -7.22020399805428E-05, 0.61375,99.3012313842773
0.0628306566666667, 227.041175575264, 0.000222102677413114, 0.62,99.3012313842773
0.06349787, 227.044466696269, 0.000162615665377942, 0.62625,107.756851196289
0.0641643083333333, 227.047325406035, -0.000132247023978744, 0.6325,101.832466125488
0.0648306833333333, 227.050117031205, -5.95561752112663E-05, 0.63875,104.814147949219
0.0654978833333333, 227.052780476643, -4.79422585802098E-05, 0.645,108.046348571777
0.0661641466666667, 227.05554995774, -8.36794635546652E-05, 0.655,127.202354431152
0.0668322633333333, 227.058425074717, 5.84998948904899E-05, 0.65875,127.202354431152
0.0674981066666667, 227.060926436529, 0.000215560005975874, 0.665,110.470596313477
0.0681640166666667, 227.063456288979, 0.00024591548125626, 0.6725,107.612075805664
0.0688321316666667, 227.066836719349, 0.000278484845359683, 0.68,105.401550292969
0.0694975166666667, 227.069681376934, 0.000175537516322434, 0.68625,105.401550292969
0.0701640816666667, 227.0721242517, 0.000146656467006754, 0.6925,107.182029724121
0.07083133, 227.075062543608, 3.53230591431042E-05, 0.69875,110.784324645996
0.07149758, 227.078186754658, 0.000144465077028512, 0.70625,110.035308837891
0.0721647333333333, 227.080650425258, 0.000124763566612319, 0.71125,107.692893981934
0.0728311183333333, 227.08330576346, 5.2087717046366E-05, 0.71875,107.692893981934
0.0734980816666667, 227.085665100972, 0.000461642145536948, 0.72625,105.403099060059
0.074165735, 227.088455398491, 0.000554989956799289, 0.73125,108.576530456543
0.0748307916666667, 227.090851084306, 0.000195813497848837, 0.7375,106.613052368164
0.0754988433333333, 227.093821123, 8.50590609111156E-05, 0.745,112.56600189209
0.0761643433333333, 227.096113358245, 0.000153022147173123, 0.7525,112.56600189209
0.0768321133333333, 227.09943795943, -0.000152544004531809, 0.75875,104.535987854004
0.077499205, 227.102385142181, -0.000133892441389183, 0.76625,103.969017028809
0.07816403, 227.105499947156, 6.57865289167623E-05, 0.77125,103.538887023926
0.0788312933333333, 227.107513667325, 0.000235913983613755, 0.77875,106.169219970703
0.0794992833333333, 227.110096056465, 0.000308588333276559, 0.785,106.169219970703
0.0801647683333333, 227.112483803002, 0.000466072922989319, 0.79125,108.11597442627
0.0808323533333333, 227.114948098891, 0.000694241462277932, 0.79875,107.267219543457
0.0814973766666667, 227.117342149595, 0.000509635234893325, 0.805,116.625228881836
0.082164155, 227.12008397724, 0.00060984370148138, 0.81125,106.796966552734
0.08283093, 227.122810542935, 0.000689659192439578, 0.81875,127.930206298828
0.0834987983333333, 227.124847622289, 0.000554781467243474, 0.825,127.930206298828
0.0841646383333333, 227.127344084283, 0.000515628933850194, 0.83125,111.470977783203
0.0848308683333333, 227.129784558115, 0.000460044725792429, 0.8375,107.380683898926
0.0854980566666667, 227.132261329757, 0.000302648631640715, 0.845,101.854423522949
0.0861641766666667, 227.135040036528, 2.39656296062589E-05, 0.8525,101.854423522949
0.086830685, 227.138087910035, -0.000280864059131657, 0.85875,103.776664733887
0.0874975716666667, 227.140290214052, -0.000451858470261257, 0.86375,110.742156982422
0.0881641183333333, 227.142359270571, -0.000208228707524592, 0.87125,104.972015380859
0.088830715, 227.144829843253, -0.000189502148119295, 0.8775,101.235847473145
0.0894975366666667, 227.146692245855, -7.21360433067995E-05, 0.88375,101.235847473145
0.0901641816666667, 227.148119097184, 0.00019457306019731, 0.89125,111.028846740723
0.0908306983333333, 227.150578976864, 0.000322321643514501, 0.8975,110.851875305176
0.0914975666666667, 227.153130859036, 0.000296548438051215, 0.905,111.043975830078
0.0921642233333333, 227.155708959944, 0.000232687645712249, 0.91125,107.252769470215
0.09283066, 227.158135221464, 0.000291810176032414, 0.9175,107.252769470215
0.0934976866666667, 227.160773284814, 0.0002313737117012, 0.92375,107.494125366211
0.0941642216666667, 227.163013662819, 0.00016559151588285, 0.93,109.541572570801
0.0948308316666667, 227.164859878473, 0.000172723657653078, 0.93625,108.705490112305
0.095497925, 227.167074308632, 0.000348640821524335, 0.945,107.236839294434
0.09616469, 227.169619601003, -2.77652714905604E-06, 0.95125,107.236839294434
0.0968309783333333, 227.172229524495, 3.9693839619345E-05, 0.9575,112.05150604248
0.0974974616666667, 227.174746470381, 0.000254780036073571, 0.96375,106.24781036377
0.098164125, 227.178570553024, 0.000223655099425535, 0.97,106.674613952637
0.0988321433333333, 227.18113036182, 0.000311300197129002, 0.97625,129.09098815918
0.0994987666666667, 227.184090504293, 0.000851577559559786, 0.985,105.107139587402
0.100164615, 227.18790114068, 0.000883954933254575, 0.99125,105.107139587402
0.100831286666667, 227.191872907064, 0.000834140935353832, 0.99625,105.758438110352
0.101498561666667, 227.194977935822, 0.000925792331797277, 1.00375,109.882881164551
0.102164248333333, 227.199201622523, 0.000975910814415644, 1.01,107.681785583496
0.102831151666667, 227.203592506819, 0.000627085335557419, 1.01625,107.681785583496
0.103497985, 227.207286539383, 0.000568105298055564, 1.02375,106.867858886719
0.104164241666667, 227.211132927661, 0.00058193460343406, 1.03,100.466293334961
0.104830836666667, 227.215395744055, 0.000360113745261485, 1.0375,107.807678222656
0.105497893333333, 227.219443608166, -5.7852260791608E-05, 1.04375,104.35871887207
0.10616421, 227.223639481853, 0.00016602349417475, 1.05,104.35871887207
0.10683094, 227.228022323, -5.91451958185031E-05, 1.05625,114.583511352539
0.107497463333333, 227.232450015226, -0.000381646996893684, 1.0625,107.947494506836
0.108164201666667, 227.236400158563, -8.45704187352167E-05, 1.07,105.531929016113
0.108831285, 227.240987969437, -8.29070022744464E-05, 1.07625,110.932876586914
0.109497611666667, 227.245602428855, -0.000280336085614185, 1.08125,110.932876586914
0.110164198333333, 227.249717397956, -6.47789128335739E-05, 1.08875,110.708992004395
0.11083214, 227.253840711593, 0.000221406712362478, 1.095,108.608573913574
0.11149884, 227.258630678613, -0.000104223931570506, 1.1025,107.068603515625
0.112164455, 227.263048989704, -0.000133655453227198, 1.11,108.613265991211
0.112831085, 227.267083464796, 8.43600960966893E-05, 1.11625,108.613265991211
0.113498781666667, 227.272066278999, -0.00022235349801053, 1.12125,103.514839172363
0.114164258333333, 227.276202509736, -0.000263487431923087, 1.12875,112.023178100586
0.114830695, 227.280729274755, -0.000312575466263875, 1.13625,105.845924377441
0.115497536666667, 227.284735069633, -0.000167537251417266, 1.1425,105.845924377441
0.11616465, 227.289462945949, 9.48205705853372E-05, 1.14875,109.363639831543
0.116831213333333, 227.293246052947, 0.000354063049134784, 1.155,109.363639831543
0.117498811666667, 227.298360881885, 0.000252330659034207, 1.16125,109.90291595459
0.118164371666667, 227.302459292812, 0.000521063160877123, 1.17,108.285034179688
0.118830796666667, 227.307266026939, 0.000528115806632725, 1.17625,107.617561340332
0.11949791, 227.311699827905, 3.79779257832066E-05, 1.1825,107.617561340332
0.120165536666667, 227.316895770715, -3.74382861563428E-05, 1.1875,110.101165771484
0.120832116666667, 227.320883635505, 0.000155072544236204, 1.19375,110.247856140137
0.121497513333333, 227.325754158195, -8.97256598231401E-05, 1.20125,107.394592285156
0.122165685, 227.329933871302, -5.65743249449832E-05, 1.2075,107.41584777832
0.12283136, 227.334686631588, 0.000113937110441752, 1.215,107.41584777832
0.123497896666667, 227.339496019897, -9.96416614345937E-06, 1.22125,112.081512451172
0.124164145, 227.344838198263, -0.000223961417332142, 1.2275,111.637557983398
0.124831306666667, 227.350003489564, -1.28035235489248E-05, 1.23375,109.970397949219
0.125497666666667, 227.355021959679, -4.76497732578122E-05, 1.24125,103.34065246582
0.12616478, 227.359589391857, 2.21162224557222E-05, 1.2475,103.34065246582
0.126830858333333, 227.364129454035, 0.000385249482662099, 1.255,108.383316040039
0.127497913333333, 227.369174629935, 0.000256714938851331, 1.26125,105.573181152344
0.128164426666667, 227.373872695346, 9.31751532599142E-05, 1.2675,111.076210021973
0.128830846666667, 227.379185099836, -7.40799457159954E-05, 1.27375,109.125419616699
0.129497768333333, 227.384447129401, -0.00018729725890644, 1.28,109.125419616699
0.130165498333333, 227.389943455569, -0.000459889066897816, 1.28625,111.253639221191
0.130830656666667, 227.394166080646, -0.000266895260783658, 1.29375,108.22868347168
0.131497983333333, 227.3991908424, -7.55813702987057E-05, 1.3,112.518714904785
0.132164633333333, 227.404313896467, -4.51718977185483E-05, 1.30625,128.063079833984
0.132830873333333, 227.409187909008, -0.000227528238094441, 1.31375,106.163726806641
0.133497506666667, 227.413315197187, -0.000162451006830638, 1.32,106.163726806641
0.134164673333333, 227.418196299842, -0.000258839165325973, 1.32625,101.791076660156
0.134831081666667, 227.422797892915, -0.000293709413846567, 1.3325,105.883247375488
0.135497526666667, 227.427300212809, 0.000103428638329691, 1.33875,106.910987854004
0.13616427, 227.431736989914, 0.000291597186767151, 1.34625,106.910987854004
0.136831291666667, 227.436977780547, 0.000609350226352708, 1.3525,103.848999023438
0.137497646666667, 227.441599764821, 0.00098374492087036, 1.35875,102.677291870117
0.138164176666667, 227.446506911537, 0.000974181401259876, 1.36625,106.149780273438
0.138832143333333, 227.451304260951, 0.000784026952508675, 1.3725,113.309356689453
0.1394976, 227.456344143564, 0.00094081407726765, 1.37875,113.309356689453
0.140164766666667, 227.461296214292, 0.000619825700170405, 1.38625,107.653266906738
0.140830715, 227.467051607843, 0.000171135237412471, 1.3925,107.736923217773
0.141498096666667, 227.472327285475, 4.24102031174728E-05, 1.39875,111.472984313965
0.142164286666667, 227.477066447501, -6.70752975625519E-05, 1.405,110.349678039551
0.142832123333333, 227.482066255871, -0.000233688428808851, 1.41125,110.349678039551
0.143497953333333, 227.487051516725, 3.01138206703929E-05, 1.4175,111.185722351074
0.144164191666667, 227.492032879342, 0.000159227335428343, 1.42375,107.007164001465
0.144830711666667, 227.497095187081, 0.000156587468053527, 1.43125,103.272994995117
0.14549776, 227.50302183336, 7.40691128955766E-05, 1.43875,107.942024230957
0.146165428333333, 227.508394563034, -7.3544472619016E-05, 1.445,107.942024230957
0.146830778333333, 227.513821841057, -0.000418780631742622, 1.4525,105.765342712402
0.14749781, 227.518833459396, -0.000319301128499566, 1.46,108.793014526367
0.148164136666667, 227.52369722141, -3.72747943963877E-05, 1.465,103.729415893555
0.148830658333333, 227.528383666353, 0.000340299740430031, 1.47125,129.146759033203
0.149497508333333, 227.533368677185, 0.000292984617031451, 1.4775,108.012077331543
0.150165463333333, 227.538868368769, 0.000289822775836777, 1.485,108.012077331543
0.150830731666667, 227.543137170404, 0.000151252236122229, 1.49125,106.252410888672
0.151498048333333, 227.548684791168, -0.000274285389529993, 1.4975,109.78596496582
0.15216554, 227.553308562419, -0.000663104859520504, 1.50375,106.843132019043
0.152830718333333, 227.55830915348, -0.000627205662731751, 1.51125,106.843132019043
0.153497456666667, 227.562339434445, -0.000515729762071046, 1.5175,107.463676452637
0.154164748333333, 227.568300512585, -0.000553353872242357, 1.52375,106.786354064941
0.154830778333333, 227.572665219361, -0.000219955118528401, 1.53125,105.609588623047
0.155498028333333, 227.578012092961, -0.000132762998122243, 1.5375,112.672897338867
0.156164275, 227.582861778371, -0.000328216680682826, 1.54375,112.672897338867
0.156830675, 227.588345260932, -0.000318512168114674, 1.55125,107.203254699707
0.157498225, 227.593237863399, -0.000295527322648397, 1.5575,105.734672546387
0.158165483333333, 227.59806604958, -0.000300088593545106, 1.565,108.265464782715
0.1588307, 227.603434739721, -0.000177850733399411, 1.57125,102.828269958496
0.159497468333333, 227.608615818896, -9.38099546745964E-05, 1.57625,102.828269958496
