Time (min), Depth (µm), Load (N), Position (µm), Acoustic (aJ)
7.51666666666667E-06, 226.974430971202, -0.000988519888156856, 0,106.437484741211
0.000665898333333333, 226.974490310113, -0.00106549452178519, 0,106.437484741211
0.00133175166666667, 226.973269770854, -0.00108697194299239, 0.00375,105.366111755371
0.00199846666666667, 226.971341151444, -0.00120170418008518, 0.0125,109.546417236328
0.00266507166666667, 226.969142847007, -0.00144017270203631, 0.0225,131.209075927734
0.00333173666666667, 226.967885907166, -0.00124002725515593, 0.03125,105.978454589844
0.00399852166666667, 226.968832370057, -0.00116438005487953, 0.0375,105.978454589844
0.00466519166666667, 226.971552009376, -0.00133358655578039, 0.045,108.537628173828
0.005331735, 226.976860482325, -0.00104619199130277, 0.05125,107.550712585449
0.00599849333333333, 226.98297613304, -0.000994365094512786, 0.05875,107.180908203125
0.00666510166666667, 226.988979948944, -0.00124205815311675, 0.06375,112.869934082031
0.00733203666666667, 226.993257118381, -0.00142504296192388, 0.07125,112.869934082031
0.00799841333333333, 226.998150308952, -0.000854723608476755, 0.0775,106.105674743652
0.00866511666666667, 227.002810562742, -0.00056072337584323, 0.08375,106.440567016602
0.00933179166666667, 227.006517835751, -0.000485904133943702, 0.09125,109.148223876953
0.00999874, 227.011626979247, -0.000369127499506703, 0.0975,107.51634979248
0.01066548, 227.017151528292, -0.000201663911059995, 0.105,107.51634979248
0.0113317616666667, 227.021806385395, -0.000359144001020799, 0.11125,106.85587310791
0.01199874, 227.026258699785, -0.000495520150972061, 0.11625,106.480094909668
0.0126651083333333, 227.03133057987, -0.000612193290603981, 0.125,108.04419708252
0.0133317766666667, 227.035357853248, -0.000601761314593979, 0.13125,108.598472595215
0.013998595, 227.039919022009, -0.00057617109990789, 0.1375,108.598472595215
0.01466513, 227.044125116323, -0.000414902200266833, 0.14375,108.939483642578
0.0153319266666667, 227.049191475927, -0.000246606153627538, 0.15125,109.678527832031
0.0159984016666667, 227.054237855064, -0.000256855138817835, 0.1575,107.945503234863
0.0166651416666667, 227.05909461575, 3.23183362996049E-05, 0.16375,112.113227844238
0.01733369, 227.064364349443, 6.15353687453772E-05, 0.17125,112.113227844238
0.0179985666666667, 227.070619765371, -0.000290808933358005, 0.1775,110.632011413574
0.0186652266666667, 227.075912280467, -0.000244093779805745, 0.18375,109.222587585449
0.0193332533333333, 227.081722457409, 0.000114743696144553, 0.19,123.615600585938
0.0199984866666667, 227.087567356909, 1.15158811801336E-05, 0.1975,104.928329467773
0.0206651816666667, 227.092716658002, 1.06339254822393E-05, 0.20375,104.928329467773
0.021331865, 227.097110004242, 0.000238253492375498, 0.21,113.008666992188
0.0219999366666667, 227.102221491968, -4.14479584775493E-05, 0.21625,105.678001403809
0.0226650733333333, 227.107149142637, -0.00040952797019478, 0.2225,106.647048950195
0.0233336483333333, 227.111327721334, -0.00070706952498202, 0.23,109.262603759766
0.02399989, 227.1162656413, -0.000600807362439711, 0.23625,109.262603759766
0.02466515, 227.122579198378, -0.00101619499793351, 0.2425,104.040237426758
0.02533177, 227.127602165358, -0.00115334360916499, 0.25,105.020080566406
0.0259987433333333, 227.132474986916, -0.00112751190667123, 0.25625,109.779579162598
0.0266652366666667, 227.137587245711, -0.000993505637702195, 0.2625,107.499847412109
0.0273336483333333, 227.142671078857, -0.00121579897214681, 0.27,107.499847412109
0.0279989733333333, 227.147533723622, -0.000976767978416938, 0.275,110.658134460449
0.0286652833333333, 227.152832705551, -0.000905799043076941, 0.2825,107.78394317627
0.0293321633333333, 227.158544744102, -0.00110992379007929, 0.29,107.554901123047
0.0299984316666667, 227.164022185185, -0.00099024480141189, 0.29625,116.937606811523
0.0306650766666667, 227.169373492621, -0.00110191719223318, 0.30125,116.937606811523
0.0313318733333333, 227.174366769559, -0.0012032341032103, 0.30875,108.768867492676
0.0319984433333333, 227.179379119958, -0.00108733492467673, 0.31625,103.345840454102
0.03266508, 227.184048971362, -0.000744573641243579, 0.32125,103.064338684082
0.0333321166666667, 227.189498403222, -0.000706189069272292, 0.3275,108.097496032715
0.03399987, 227.194666575973, -0.000615056646736136, 0.335,108.097496032715
0.0346663183333333, 227.199159946004, -0.000352971811017434, 0.34125,104.53636932373
0.0353318583333333, 227.204196945883, -0.000565716625074347, 0.3475,108.479026794434
0.0359984966666667, 227.209138946072, -0.00045546316297233, 0.355,123.349571228027
0.0366651433333333, 227.214532256612, -0.000589598425503805, 0.36125,109.310852050781
0.0373317683333333, 227.218250597306, -0.000259234019346484, 0.3675,109.310852050781
0.0379989533333333, 227.223352354426, 2.71840942383436E-05, 0.37375,106.222282409668
0.03866513, 227.227480579951, 0.000514316126158651, 0.38125,113.744010925293
0.0393318116666667, 227.232061358089, 0.000606273507201615, 0.3875,105.532623291016
0.0399999033333333, 227.235713877362, 0.000582180217346281, 0.39375,116.375534057617
0.0406653716666667, 227.241319108362, 0.000431437788952632, 0.40125,116.375534057617
0.0413326983333333, 227.246460627971, -0.000184485273893909, 0.4075,107.326667785645
0.0419985433333333, 227.251740593538, -0.000561081857881879, 0.41375,107.831680297852
0.0426655416666667, 227.256633453662, -0.00114971079164393, 0.42,109.007118225098
0.043332075, 227.262049605629, -0.00124588596085275, 0.42625,110.669364929199
0.0439984483333333, 227.266688640488, -0.00126874181282034, 0.43375,110.669364929199
0.0446652966666667, 227.270630145527, -0.000727688989345548, 0.44,114.798934936523
0.04533175, 227.274265555143, -0.000432431819807044, 0.44625,104.98503112793
0.0459984833333333, 227.278068416794, -0.000112010414219247, 0.45375,112.032119750977
0.0466653883333333, 227.282140666578, -7.92265609261583E-05, 0.46,105.073333740234
0.0473323216666667, 227.286346650793, -0.000179811508603194, 0.46625,105.073333740234
0.04799887, 227.290539364386, -0.000200453471769008, 0.4725,106.109672546387
0.04866515, 227.294827367773, -0.000283060322509259, 0.48,105.065635681152
0.0493317683333333, 227.298837995725, -0.00018116744047628, 0.48625,110.970405578613
0.0499984266666667, 227.303161254713, -0.000200619963420278, 0.4925,108.403350830078
0.05066536, 227.306931227034, -5.32598652148523E-05, 0.5,108.403350830078
0.0513317566666667, 227.31185073513, -0.000117875119656181, 0.505,107.68302154541
0.0519987066666667, 227.31649166781, -0.000115097259193758, 0.5125,105.599548339844
0.0526653816666667, 227.321100084933, -0.000292833831663723, 0.51875,126.383277893066
0.0533325966666667, 227.324643145351, -6.36618427367896E-05, 0.52625,126.383277893066
0.05399852, 227.328763176471, -3.85051063520215E-05, 0.5325,106.081069946289
0.0546651533333333, 227.331967008047, -0.000409262483596658, 0.53875,107.391174316406
0.0553318833333333, 227.335662363607, -0.000362439335444855, 0.545,112.685050964355
0.0560003866666667, 227.339597491528, -0.000578596478114294, 0.5525,111.883193969727
0.0566651083333333, 227.344262503183, -0.000679886390430894, 0.55875,108.857315063477
0.05733193, 227.347823589008, -0.000443258276020119, 0.565,108.857315063477
0.05799843, 227.351901185535, -0.000241950387493424, 0.57125,110.62434387207
0.05866525, 227.356685134012, -0.000694068178086663, 0.57875,112.131385803223
0.059331785, 227.360175584662, -0.000339851970009204, 0.585,109.933967590332
0.05999846, 227.363689155053, -0.000180310983578257, 0.59125,104.526954650879
0.0606652533333333, 227.367762924856, -0.000418229033252136, 0.5975,104.526954650879
0.0613336666666667, 227.371595722906, -0.000331089410157585, 0.605,102.972267150879
0.0619984766666667, 227.375273486098, -0.000336214652714935, 0.61125,103.727600097656
0.0626652466666667, 227.379869657836, -0.000672535259697789, 0.61875,109.129447937012
0.0633337033333333, 227.384217772189, -0.000942938677623492, 0.625,107.653091430664
0.0639985983333333, 227.388112687367, -0.00122852583287637, 0.63125,107.653091430664
0.0646656116666667, 227.392290564405, -0.00143981871985588, 0.6375,113.462677001953
0.0653317866666667, 227.396324352161, -0.00113490353540573, 0.645,106.574996948242
0.0659987, 227.399601125223, -0.000750024367481452, 0.65125,110.189994812012
0.0666651916666667, 227.402971008359, -0.000460441412895652, 0.6575,103.589279174805
0.0673318716666667, 227.407648472411, -0.000315916172216212, 0.665,103.589279174805
0.06799988, 227.411220591798, -0.000404549720271458, 0.67125,106.261138916016
0.0686654633333333, 227.414548707802, -4.85291028180672E-05, 0.6775,117.177711486816
0.069331955, 227.41838783786, -0.000373166796604807, 0.68375,131.362747192383
0.0699986683333333, 227.422000107879, -0.000694485157092023, 0.69125,103.060958862305
0.0706650966666667, 227.424753646244, -0.000636291080147508, 0.6975,103.060958862305
0.07133176, 227.42805802701, -0.000706786039269805, 0.7025,111.121620178223
0.07199993, 227.431431872136, -0.000945326557656052, 0.71,111.410652160645
0.0726653333333333, 227.435050507241, -0.000398868005675483, 0.7175,109.198287963867
0.07333328, 227.438746457228, 6.55371677121461E-05, 0.72375,106.571968078613
0.0739999166666667, 227.44299954741, 0.000139241965610021, 0.73,106.571968078613
0.0746651483333333, 227.446893516971, 0.000420288848886585, 0.7375,105.851806640625
0.07533181, 227.450567186707, 0.000160969874256335, 0.74375,111.738990783691
0.0759991483333333, 227.454830091466, -0.000270049976088737, 0.75,109.879760742188
0.0766651116666667, 227.457742572812, -0.0004388514973582, 0.7575,108.912055969238
0.0773318266666667, 227.460717027756, -0.000517725035642374, 0.7625,108.912055969238
0.0779984966666667, 227.463132895402, -0.000636133588085166, 0.76875,109.052391052246
0.0786651066666667, 227.466568213748, -0.000286408154457462, 0.7775,103.630867004395
0.0793321833333333, 227.468622640688, 0.000109552456828444, 0.78375,108.966705322266
0.079998585, 227.472529333144, 9.90919822335252E-05, 0.79,107.464744567871
0.0806650783333333, 227.476250366506, 0.000193287250911231, 0.79625,107.464744567871
0.0813326866666667, 227.480480780656, 0.000410101360575568, 0.8025,106.921775817871
0.081998635, 227.483172440408, 0.000510191333178274, 0.81,111.183326721191
0.08266527, 227.486857747616, 0.000352667745431029, 0.81625,107.164710998535
0.08333182, 227.489669501164, 0.000504200634091466, 0.8225,104.309425354004
0.08399844, 227.492465375444, 0.000325366116745775, 0.83,104.309425354004
0.084667, 227.494834170255, 5.52461845960499E-05, 0.83625,103.964935302734
0.0853332283333333, 227.498532928225, -0.000373706769517505, 0.8425,131.205291748047
0.0859989566666667, 227.50186227548, -0.00034505670858118, 0.85,109.416839599609
0.0866654266666667, 227.504692983844, -0.000741260307662922, 0.85625,112.325050354004
0.0873317466666667, 227.507237519708, -0.000373402284778627, 0.86375,112.325050354004
0.0879993183333333, 227.510986882491, -0.000203172835222213, 0.87,106.126106262207
0.08866656, 227.513119523176, -4.47537924786985E-05, 0.875,109.187072753906
0.0893318066666667, 227.516047477448, -0.000168818560845119, 0.8825,104.620658874512
0.089998475, 227.518717047902, 0.000178524992447638, 0.88875,104.327163696289
0.0906651333333333, 227.522253669643, 0.000123962233099779, 0.89625,104.327163696289
0.091331755, 227.524454365601, -0.000199394525034038, 0.90375,109.083290100098
0.0919985433333333, 227.528395963922, -0.000542757278259163, 0.91,110.782577514648
0.0926651333333333, 227.531128334482, -0.000496408106346315, 0.915,103.527946472168
0.0933319033333333, 227.534010746689, -0.000860856800445635, 0.92125,103.738441467285
0.0939989366666667, 227.535611405929, -0.000756432045616129, 0.92875,103.738441467285
0.094665115, 227.539052813835, -0.00056133384520288, 0.93625,106.39444732666
0.0953338016666667, 227.540963387236, -2.82336222531676E-05, 0.9425,112.062774658203
0.095998455, 227.544108791071, -0.000132724373798926, 0.94875,106.511123657227
0.0966652133333333, 227.547211910822, -1.69001915280285E-05, 0.955,105.995590209961
0.09733179, 227.551107371217, -6.54737517347365E-05, 0.96125,105.995590209961
0.0979987383333333, 227.554181546216, 0.000185856624206009, 0.97,109.188819885254
0.09866514, 227.55763190107, -8.22189106632643E-05, 0.97625,103.826568603516
0.0993318183333333, 227.560606572078, 0.000261055347043323, 0.9825,113.840522766113
0.0999990433333333, 227.563969240455, 0.000446435535568791, 0.9875,107.576873779297
0.100665126666667, 227.567197147344, 0.000327223023475819, 0.995,107.576873779297
0.101331725, 227.569994494246, 0.000325841592866624, 1.00125,105.7158203125
0.101998506666667, 227.572539161695, 0.00043758598003802, 1.00875,130.910110473633
0.10266523, 227.575123959947, 0.000189583936943219, 1.015,101.415687561035
0.103331781666667, 227.577670114915, -1.35163615429265E-05, 1.0225,114.710838317871
0.10399847, 227.580966269857, -5.94515542567137E-05, 1.0275,114.710838317871
0.104666051666667, 227.584036990523, -7.31293672279727E-05, 1.03375,109.15225982666
0.105331801666667, 227.587702442319, 3.72935863528668E-05, 1.04125,109.696426391602
0.105998405, 227.591127358163, 5.91504885191153E-05, 1.04875,112.161773681641
0.106665078333333, 227.594731580079, 0.000145406655927607, 1.055,112.161773681641
0.107331893333333, 227.596607309851, 0.000400542340695786, 1.06125,114.451393127441
0.10799862, 227.599575302813, 0.000300647358329266, 1.07,105.944366455078
0.108665106666667, 227.602325406704, 7.12998781833888E-05, 1.07375,114.144638061523
0.109331746666667, 227.604504968246, 0.000142622795725062, 1.08,103.963745117188
0.109998811666667, 227.607612685388, 0.000157181064491066, 1.0875,105.900253295898
0.110665225, 227.610876379137, 0.000263468725790739, 1.095,105.900253295898
0.11133181, 227.613369887779, 0.000424232150844136, 1.10125,111.930107116699
0.111998548333333, 227.61588379265, 0.000283762706452489, 1.1075,104.264526367188
0.112665126666667, 227.618379375924, 0.00018344474529798, 1.115,107.532699584961
0.113331876666667, 227.620430503148, 0.000264718163009939, 1.12,108.411247253418
0.113998573333333, 227.622855296757, -0.000579866914360157, 1.12625,108.411247253418
0.114665155, 227.625441493942, -0.000674770147526234, 1.1325,109.861831665039
0.115331776666667, 227.62779580234, -0.000459358467391484, 1.14125,110.951438903809
0.115998446666667, 227.630490751061, -0.000419134987804245, 1.1475,109.886329650879
0.116665066666667, 227.633316178732, -0.000637985995148272, 1.15375,105.028717041016
0.117331775, 227.635267420736, 0.000334077679125175, 1.16125,105.028717041016
0.117998933333333, 227.638013741178, 0.000410365347291796, 1.16625,105.08528137207
0.118665418333333, 227.640270337532, 0.000257800510450631, 1.1725,127.205688476563
0.119333655, 227.642998532538, 0.000233173247486483, 1.18,107.812873840332
0.119998505, 227.646260818381, 0.000240309889008667, 1.1875,106.889556884766
0.120665236666667, 227.649688851054, -0.000308146562595853, 1.19375,106.889556884766
0.121331828333333, 227.652251117159, -0.000439689955312162, 1.2,109.84049987793
0.121998675, 227.655816797838, -3.71251757097374E-05, 1.20625,108.053581237793
0.1226651, 227.658651726148, 3.78875565015733E-05, 1.2125,115.027214050293
0.123331958333333, 227.66035233826, 0.000202108307857086, 1.21875,109.888931274414
0.123998601666667, 227.662606046153, 0.000246606572758757, 1.225,109.888931274414
0.124665185, 227.665213008206, -9.8304102726834E-05, 1.2325,109.999069213867
0.125332713333333, 227.667715470474, -0.000249830991689657, 1.24,108.416458129883
0.125998533333333, 227.670109417416, -9.07009846514742E-05, 1.24625,105.579612731934
0.126665746666667, 227.672851672535, -0.000136756171338776, 1.25125,108.112815856934
0.127331795, 227.675901383243, -9.39978190636955E-05, 1.25875,108.112815856934
0.127998783333333, 227.678421665811, 0.000206873568472637, 1.265,108.432479858398
0.128666083333333, 227.68141368079, 0.000340303866407057, 1.27125,108.934852600098
0.129331761666667, 227.683872671108, 0.00025278626234163, 1.27875,106.979370117188
0.129998501666667, 227.686936493635, -8.75286439859773E-05, 1.28625,104.172637939453
0.130665173333333, 227.69008886072, -0.000161717917551121, 1.2925,104.172637939453
0.131331891666667, 227.693063851459, -9.07699811952781E-05, 1.2975,105.54288482666
0.131998558333333, 227.696115935349, -0.000197750607675526, 1.305,107.27326965332
0.132665195, 227.70014169005, -0.000499718440141927, 1.31125,111.462829589844
0.13333191, 227.704281223537, -0.000522580291807137, 1.3175,108.078857421875
0.133999926666667, 227.707958008424, -0.000633348228064488, 1.325,108.078857421875
0.13466527, 227.712393249843, -0.00109022977937013, 1.33125,109.949523925781
0.135331928333333, 227.717149857744, -0.000911777742811032, 1.3375,127.794792175293
0.135998533333333, 227.721457834742, -0.000963252157281231, 1.34375,108.705474853516
0.136665188333333, 227.725258035926, -0.000686610552699674, 1.35125,108.444137573242
0.137331741666667, 227.7296105295, -0.000421647361498513, 1.3575,108.444137573242
0.138000358333333, 227.734091500362, -6.96285430756541E-05, 1.36375,106.053153991699
0.138667026666667, 227.738190646586, -0.000261458407640343, 1.37,107.965156555176
0.139331985, 227.742822631302, -3.57452449824369E-05, 1.3775,109.730567932129
0.13999862, 227.747544905018, -6.22549134552469E-05, 1.38375,106.001121520996
0.140665078333333, 227.752515615734, -2.48032945903104E-05, 1.39,106.001121520996
0.141331808333333, 227.756910298033, -0.000164858759740387, 1.3975,107.073661804199
0.141998758333333, 227.762182350597, -0.000320918421057511, 1.40375,112.044372558594
0.142667016666667, 227.767145937663, -0.000443429267465853, 1.41,108.920127868652
0.143332683333333, 227.772279674783, -0.000355637177128359, 1.415,105.897872924805
0.14399845, 227.777444429374, -0.000419271480903688, 1.4225,105.897872924805
0.144665048333333, 227.783005905831, -0.000283658792601208, 1.43,108.660873413086
0.145332015, 227.787606854707, -0.000332542837201899, 1.43625,110.149612426758
0.145998431666667, 227.792547147707, -9.51197627086193E-05, 1.44375,108.543228149414
0.146666623333333, 227.7968947362, -0.000210808951804477, 1.45,108.242004394531
0.147331771666667, 227.801896021304, -0.000476204121276284, 1.45625,108.242004394531
0.147998746666667, 227.806770492536, -0.000834794109678791, 1.4625,110.741844177246
0.148665415, 227.811816307299, -0.00112117172521971, 1.47,103.683967590332
0.149333283333333, 227.81633629088, -0.00137797082646992, 1.47625,103.613899230957
0.149998546666667, 227.821189145569, -0.00135884078733638, 1.4825,111.725563049316
0.150665516666667, 227.825604084073, -0.00105174471248508, 1.49,111.725563049316
0.151331751666667, 227.830260538003, -0.000685677599614577, 1.49625,107.801139831543
0.151998521666667, 227.833801670221, -0.000286144167741234, 1.5025,126.224922180176
0.152665198333333, 227.838380161289, -0.000321458393948955, 1.50875,104.539131164551
0.153331858333333, 227.842679554101, -0.000309479995624144, 1.5175,107.979530334473
0.153998473333333, 227.846806554873, -0.000268013078451555, 1.5225,107.979530334473
0.154665118333333, 227.850695547647, -0.000304719234760548, 1.52875,102.488433837891
0.15533197, 227.855449287071, -0.000308380550845269, 1.53625,114.647483825684
0.155998426666667, 227.859950630589, -0.000665434616403791, 1.5425,105.73072052002
0.156665148333333, 227.864172191909, -0.000991414742743988, 1.54875,103.691749572754
0.157331931666667, 227.867859931555, -0.00104137873312757, 1.55625,103.691749572754
0.15799841, 227.871719552049, -0.00115672443942881, 1.5625,107.674880981445
0.158665161666667, 227.875511614126, -0.00154347251347835, 1.56875,109.32829284668
0.159333776666667, 227.879498449185, -0.00110523952544528, 1.575,108.875175476074
