Time (min), Depth (µm), Load (N), Position (µm), Acoustic (aJ)
8.10333333333333E-06, 227.032738814016, -3.15490581849655E-05, 0,105.951774597168
0.000664453333333333, 227.032526635805, 0.000165355051528617, 0.00125,109.954475402832
0.00133120166666667, 227.031683745045, 0.000329962783465186, 0.005,104.502395629883
0.00199795, 227.030128659603, 0.000259562319622803, 0.0125,104.502395629883
0.00266469833333333, 227.028449596917, 5.50640913377724E-05, 0.02125,106.516403198242
0.00333159833333333, 227.026819652209, 0.000171705732557224, 0.0275,107.702133178711
0.00399783333333333, 227.025891087862, 4.49530991925753E-05, 0.035,103.814643859863
0.00466430666666667, 227.026045765889, 0.000215353540173469, 0.0425,125.355529785156
0.00533116333333333, 227.027628862721, 7.15722621680772E-05, 0.05,125.355529785156
0.005997895, 227.030750979253, -8.18610310300984E-05, 0.0575,104.689392089844
0.00666452833333333, 227.034896543762, -0.000657922096070586, 0.06375,106.992431640625
0.00733129333333333, 227.03906702437, -0.000829858459852956, 0.07,108.287536621094
0.00799776833333333, 227.043496171509, -0.00102588361373871, 0.0775,108.576026916504
0.00866444333333333, 227.0485094342, -0.000747340104695006, 0.08375,108.576026916504
0.00933091333333333, 227.053394130308, -0.000723969778572075, 0.09125,109.158782958984
0.00999773666666667, 227.058182249516, -0.000710284465957546, 0.09625,105.958602905273
0.010664825, 227.063432014733, -0.000545063264855027, 0.10375,110.83177947998
0.011331235, 227.068802793526, -0.000540272505503366, 0.11125,104.836769104004
0.0119983033333333, 227.07459795281, -0.00061821459054183, 0.1175,104.836769104004
0.0126643083333333, 227.080084322874, -0.000782873319929364, 0.12375,110.505744934082
0.0133315566666667, 227.085676306778, -0.000688030083824434, 0.13,111.255485534668
0.01399781, 227.090858086827, -0.000776194155456444, 0.13625,112.28874206543
0.0146643283333333, 227.09617265175, -0.000687643103285885, 0.14375,111.480895996094
0.01533128, 227.101548790828, -0.000774788726056796, 0.15,111.480895996094
0.0159976566666667, 227.106500563759, -0.000421019495515269, 0.15625,110.206825256348
0.01666428, 227.111836821694, -0.000234701854025225, 0.16375,107.580680847168
0.0173311983333333, 227.118239999368, -0.000326476244290991, 0.17,106.229347229004
0.01799786, 227.124253072519, -0.000411080994655193, 0.17625,103.414451599121
0.01866448, 227.129857342588, -0.000275175821009062, 0.1825,103.414451599121
0.01933129, 227.136696638734, -0.000474224822980623, 0.19,106.566078186035
0.0199976516666667, 227.142859378403, -0.000602469881360308, 0.19625,111.881843566895
0.02066461, 227.148795448249, -0.000573407341149325, 0.2025,130.967880249023
0.0213313466666667, 227.15515549872, -0.000719257015268129, 0.21,112.967704772949
0.02199791, 227.161305272846, -0.00108861346290758, 0.21625,112.967704772949
0.02266435, 227.166774257915, -0.0010217978189841, 0.2225,108.532096862793
0.0233312966666667, 227.172452986345, -0.00100099386396148, 0.23,104.040176391602
0.02399814, 227.178501351074, -0.000959868929616596, 0.23625,107.136917114258
0.024664335, 227.183675680025, -0.000841853357409965, 0.2425,109.265747070313
0.02533118, 227.18965939992, -0.00053647469625544, 0.24875,109.265747070313
0.0259983216666667, 227.196143760791, -0.000748499546450011, 0.255,106.931121826172
0.0266643566666667, 227.201951613108, -0.000887002589587666, 0.26125,113.106307983398
0.02733288, 227.207363064606, -0.000850722411915469, 0.26875,110.771499633789
0.027998145, 227.213579865908, -0.000923333764732082, 0.275,118.076866149902
0.028664365, 227.219368826034, -0.00131576505332326, 0.28125,118.076866149902
0.0293314383333333, 227.224969972635, -0.0014214932427355, 0.28875,114.081047058105
0.0299978666666667, 227.230724447498, -0.0011903653520254, 0.295,104.738914489746
0.0306642983333333, 227.237148386881, -0.00102432519202867, 0.3025,101.207382202148
0.03149881, 227.242892198701, -0.000824460231054213, 0.31,107.875900268555
0.0321642916666667, 227.248240438445, -0.000532139914007386, 0.31625,106.217254638672
0.03283128, 227.25357274707, -0.000347428691850788, 0.3225,106.217254638672
0.0334978616666667, 227.25912715901, -0.000522621392086492, 0.32875,109.472587585449
0.034164665, 227.2637296928, -0.000475456261128238, 0.335,103.742370605469
0.0348316066666667, 227.268800886714, -0.000450837997668002, 0.3425,112.619361877441
0.03549921, 227.274039970959, -0.000238426166871121, 0.34875,104.475769042969
0.036164425, 227.279645654894, -0.000332208956252914, 0.35625,104.475769042969
0.03683114, 227.28440371751, -0.000101000069625037, 0.3625,107.285118103027
0.0374983033333333, 227.290281935327, -0.000248192176297298, 0.36875,126.655784606934
0.038164885, 227.295617115006, -0.000159689121728898, 0.375,101.520324707031
0.0388317, 227.300762773625, -0.000299839082137634, 0.38125,106.086761474609
0.039498315, 227.305954724912, 5.93928740157385E-05, 0.38875,106.086761474609
0.04016435, 227.311765340261, -7.54173546034732E-05, 0.39625,107.995895385742
0.0408317516666667, 227.317043158157, 2.27317154388435E-05, 0.40125,108.963729858398
0.0414978433333333, 227.322774362182, -0.000180125595251466, 0.40875,110.078994750977
0.0421644216666667, 227.328702686572, -0.000218147185474657, 0.415,110.448265075684
0.0428323266666667, 227.334181430003, -0.000445955742927742, 0.42125,110.448265075684
0.0434979766666667, 227.339545233636, -0.000526465698969665, 0.4275,109.893241882324
0.04416447, 227.34489096994, -0.000810423936044305, 0.435,111.286010742188
0.0448314133333333, 227.350512324609, -0.00115146630585627, 0.44125,109.544189453125
0.0454985416666667, 227.355222015872, -0.00114001438106077, 0.4475,103.576194763184
0.0461643533333333, 227.36100985779, -0.00100074487642552, 0.455,103.576194763184
0.0468313683333333, 227.367091410016, -0.00114835996190703, 0.46125,110.307838439941
0.047497835, 227.372153720316, -0.000762961820032952, 0.4675,106.778617858887
0.048164535, 227.377137050205, -0.000542058915722695, 0.47375,110.736305236816
0.0488312833333333, 227.383038386588, -0.000718769539709546, 0.48125,108.077880859375
0.0494978133333333, 227.388114627769, -0.000900416415757681, 0.4875,108.077880859375
0.0501658066666667, 227.392635183951, -0.000841032898548842, 0.49375,107.315528869629
0.0508315616666667, 227.397861549804, -0.00113322272217259, 0.5,107.997123718262
0.0514982983333333, 227.403381164042, -0.000827476579518009, 0.50625,113.63939666748
0.0521648633333333, 227.407878314459, -0.000767119611180168, 0.51375,115.905776977539
0.0528330283333333, 227.412567169638, -0.000659185032651924, 0.52,115.905776977539
0.053497925, 227.418036245929, -0.000520804983315335, 0.5275,108.101806640625
0.0541659183333333, 227.423034284279, -0.000524223311604221, 0.53375,129.339401245117
0.054832525, 227.427785500699, -0.00057804060841739, 0.54,105.391311645508
0.05549828, 227.432924313227, -0.000434871299674798, 0.54625,109.820594787598
0.0561650183333333, 227.438173040654, -0.000211718508377081, 0.5525,109.820594787598
0.0568319033333333, 227.442957103788, -0.000193527422111271, 0.56,108.321151733398
0.0574976016666667, 227.447418822454, -0.000101033068025671, 0.56625,107.292037963867
0.0581658966666667, 227.452019428908, -0.000179260138764516, 0.5725,103.965835571289
0.0588311916666667, 227.457089013962, -0.000504412306727844, 0.58,110.023834228516
0.0594986016666667, 227.461378262738, -0.000959480449153644, 0.58625,110.023834228516
0.0601643066666667, 227.46605934882, -0.000938493503332572, 0.5925,106.218307495117
0.060832515, 227.470849674815, -0.000967511045811456, 0.59875,109.681831359863
0.0614978016666667, 227.475784790704, -0.00113039536431113, 0.60625,106.956184387207
0.0621642733333333, 227.480434141263, -0.000985165159055883, 0.6125,108.575218200684
0.062831445, 227.485043053641, -0.000896167129349391, 0.6175,108.575218200684
0.0634978116666667, 227.489589579691, -0.00113786348916894, 0.625,110.845695495605
0.0641643166666667, 227.494261874083, -0.00122628254792825, 0.6325,116.543579101563
0.0648325566666667, 227.498928324493, -0.00113563910087508, 0.63875,101.983680725098
0.0654983883333333, 227.503706510483, -0.00100968292751734, 0.64625,111.539825439453
0.0661649966666667, 227.508987683132, -0.00108039387577496, 0.6525,111.539825439453
0.06683133, 227.514106458588, -0.000946476102366972, 0.65875,109.552452087402
0.0674983783333333, 227.519443614832, -0.00113055585622227, 0.665,108.075134277344
0.0681648, 227.524481862106, -0.00120921490525302, 0.6725,113.278312683105
0.06883495, 227.529852310652, -0.00101292276480224, 0.67875,112.283302307129
0.0695031566666667, 227.535086478464, -0.00105117234357723, 0.685,112.283302307129
0.0701688683333333, 227.54044867726, -0.00107729803127528, 0.69125,105.118026733398
0.0708354866666667, 227.545505240731, -0.000611832411164517, 0.6975,125.419288635254
0.0715030583333333, 227.550947140495, -0.000857254583903141, 0.705,107.024925231934
0.07216837, 227.555953031828, -0.00127827443650886, 0.7125,107.695869445801
0.0728352666666667, 227.560565260979, -0.0011479999800715, 0.71875,107.695869445801
0.073502185, 227.565564755088, -0.00115614907073591, 0.72375,102.42756652832
0.0741682483333333, 227.570781214224, -0.00130564956148987, 0.73125,101.0927734375
0.0748350516666667, 227.575435719799, -0.000714202269285257, 0.7375,104.246513366699
0.07550237, 227.580429733979, -0.000539344052233988, 0.745,105.656097412109
0.076168315, 227.585741851043, -0.000226455268295851, 0.75125,105.656097412109
0.07683504, 227.590830765471, -0.000316371251928423, 0.7575,107.479522705078
0.0775020633333333, 227.595389158591, -0.000277692694689081, 0.765,101.873908996582
0.07816834, 227.600431015074, -0.000632358880172535, 0.77125,109.746604919434
0.0788369033333333, 227.605297005334, -0.000808696022940466, 0.7775,108.521957397461
0.07950222, 227.609566321592, -0.000904980686673229, 0.78625,108.521957397461
0.0801682516666667, 227.613629824874, -0.000841374881504072, 0.79125,107.136428833008
0.0808367983333333, 227.618409562618, -0.000828666019888604, 0.7975,106.74609375
0.0815017383333333, 227.622326368531, -0.000544619287274172, 0.80375,106.24250793457
0.0821685816666667, 227.626578539085, -0.000160205095978668, 0.81125,106.187721252441
0.0828355516666667, 227.630888360586, -0.000287245714849996, 0.8175,106.187721252441
0.08350158, 227.63532797631, -7.97506370971573E-05, 0.82375,105.160690307617
0.084168255, 227.639526377812, -0.000497284664815841, 0.83125,113.609832763672
0.084835045, 227.644145620464, -0.000734257761903127, 0.83875,104.566696166992
0.0855019466666667, 227.648085668808, -0.000870737406659468, 0.84375,108.882659912109
0.08616832, 227.652268582572, -0.000832552324676322, 0.85,108.882659912109
0.0868360116666667, 227.65581551127, -0.000883297775801521, 0.8575,110.12678527832
0.08750194, 227.660522175359, -0.0004564057181156, 0.86375,121.834327697754
0.0881682483333333, 227.664080517594, -0.00051502727360006, 0.87125,111.514457702637
0.0888350366666667, 227.668559896101, -0.000494943282439782, 0.8775,103.346130371094
0.0895018933333333, 227.672472204337, -0.000305031821484417, 0.88375,103.346130371094
0.0901683833333333, 227.677314215614, -0.000256801744029818, 0.89,110.016166687012
0.0908355783333333, 227.680967404449, -0.00022766120777112, 0.89625,110.194396972656
0.0915021216666667, 227.685584969023, -0.000218675159140907, 0.90375,105.939422607422
0.09216827, 227.689391330593, -0.000315913774964176, 0.91125,104.68408203125
0.09283604, 227.693672064627, -0.000473455361825514, 0.91625,104.68408203125
0.0935017216666667, 227.696932792389, -0.000680738950152477, 0.9225,103.627723693848
0.094168295, 227.700701957815, -0.000551353949056283, 0.93125,103.897018432617
0.0948351233333333, 227.704071604464, -0.000681352419360934, 0.9375,113.25675201416
0.095503005, 227.707689711162, -0.000484028330729423, 0.94375,106.277137756348
0.0961688866666667, 227.711579000867, -0.000556188206194384, 0.95,106.277137756348
0.0968355833333333, 227.715386135204, -0.00033663373419896, 0.95625,105.341300964355
0.0975030233333333, 227.719064669387, -0.000526809181849298, 0.9625,105.839431762695
0.0981684683333333, 227.723284455736, -0.000659963493629756, 0.97,112.19213104248
0.098835225, 227.72735642611, -0.00103522664456818, 0.9775,106.379508972168
0.09950254, 227.731139687155, -0.00128568106448739, 0.9825,106.379508972168
0.100168836666667, 227.734694845653, -0.00142339664720706, 0.98875,109.420417785645
0.100835028333333, 227.738862488706, -0.00140098477290534, 0.995,108.852714538574
0.101501795, 227.74245250305, -0.00131542907029944, 1.00375,105.63883972168
0.102168315, 227.745775080075, -0.00104152932797337, 1.01,112.646484375
0.102835051666667, 227.749914451851, -0.00060083496356947, 1.01625,112.646484375
0.103501595, 227.753991959007, -0.0004416689583031, 1.02375,136.455612182617
0.104168931666667, 227.757147149881, -0.00054613121130645, 1.03,105.13899230957
0.104835468333333, 227.761040927111, -0.00032965758456667, 1.035,108.517066955566
0.105503051666667, 227.764866747735, -0.000488265617870011, 1.04125,105.663803100586
0.106169748333333, 227.767589110039, -2.85567085966383E-05, 1.04875,105.663803100586
0.106836515, 227.770761150542, -8.22090136829412E-05, 1.05625,108.056259155273
0.10750225, 227.774393380017, -2.33114720232654E-05, 1.0625,114.887145996094
0.108168271666667, 227.777599299007, 0.000224486581352693, 1.07125,113.293907165527
0.108835165, 227.780611103882, 0.000248521374135045, 1.07625,108.513847351074
0.109503145, 227.784679816426, -0.000688366067039543, 1.08125,108.513847351074
0.110168396666667, 227.788764773028, -0.00103608010172367, 1.08875,105.849227905273
0.110838416666667, 227.79222149134, -0.00143625250149907, 1.09625,104.197868347168
0.111504678333333, 227.796060630646, -0.00164996326702046, 1.10125,106.160118103027
0.112171108333333, 227.799731802583, -0.00137248170464555, 1.10875,105.632476806641
0.112838046666667, 227.80329506276, -0.00113346871000852, 1.11625,105.632476806641
0.113505098333333, 227.806243504063, -0.000793126805020395, 1.12125,114.721542358398
0.114171771666667, 227.809656312537, -0.000298639142615027, 1.1275,109.995254516602
0.114839258333333, 227.813063229378, -0.000190560571322816, 1.135,107.382064819336
0.115506401666667, 227.816057686738, -0.000431053991600917, 1.14125,106.131546020508
0.116171143333333, 227.819553381389, -0.000359332094125469, 1.1475,106.131546020508
0.116837961666667, 227.823497411713, -0.000643639813628576, 1.15375,110.20100402832
0.117504965, 227.827180304328, -0.000860230434535573, 1.16125,100.647430419922
0.118171451666667, 227.830832801007, -0.000669755001877059, 1.1675,107.80615234375
0.118838371666667, 227.835495362911, -0.000721826386387279, 1.17375,107.16722869873
0.11950588, 227.839651010722, -0.000851893853214479, 1.18,107.16722869873
0.120171103333333, 227.844251563791, -0.000909210474255564, 1.18875,129.618118286133
0.120838406666667, 227.848751139963, -0.000793258798389136, 1.19625,101.525177001953
0.121505776666667, 227.853392576171, -0.000871175384733998, 1.20125,106.022911071777
0.122171045, 227.857179528099, -0.000429836052751676, 1.20625,110.778770446777
0.122839236666667, 227.860387700893, -5.89391825375371E-05, 1.2125,110.778770446777
0.123505105, 227.86436342605, 0.000255056545758982, 1.22,104.896072387695
0.124172728333333, 227.867915458227, 0.000127153470207002, 1.2275,107.142295837402
0.124840568333333, 227.87201123095, 1.61185474058714E-05, 1.23375,107.192039489746
0.125504446666667, 227.876735268473, -0.000438586613208069, 1.24125,107.733299255371
0.126173053333333, 227.881669376247, -0.000551466443386527, 1.24625,107.733299255371
0.126837871666667, 227.885507821036, -0.000353137405213546, 1.2525,104.757377624512
0.127505426666667, 227.889489012644, -1.62468268511833E-05, 1.26,111.653526306152
0.128172976666667, 227.89345602225, -0.000150479584511378, 1.26625,111.79158782959
0.128838981666667, 227.89707388307, 3.60780448619331E-05, 1.2725,106.986633300781
0.129505316666667, 227.900488580983, -0.000125031862707362, 1.28125,106.986633300781
0.13017259, 227.905131652464, -0.000341415494004201, 1.28625,117.226821899414
0.130837988333333, 227.909671529188, -0.000653483819144977, 1.2925,101.796333312988
0.131506118333333, 227.913085629527, -0.000509641044175289, 1.29875,113.92041015625
0.132172573333333, 227.917494558175, -0.000624568271504259, 1.30625,108.577781677246
0.132838151666667, 227.921437890353, -0.000910366916140509, 1.3125,108.577781677246
0.1335047, 227.924726224145, -0.000977685034824099, 1.32,106.856910705566
0.134171118333333, 227.928397251926, -0.000741926876715993, 1.325,104.937133789063
0.134838921666667, 227.932818602699, -0.000891823347576172, 1.3325,104.507965087891
0.135505036666667, 227.93644714767, -0.000785012212574746, 1.33875,107.708625793457
0.136171373333333, 227.940052937247, -0.000249095131149379, 1.34375,107.708625793457
0.13683841, 227.944193560619, -0.000111757529443088, 1.3525,133.593948364258
0.137506168333333, 227.948173328801, -0.000425067792202302, 1.35875,108.766937255859
0.138171246666667, 227.951367559365, -0.000190919053233941, 1.365,102.413581848145
0.138839093333333, 227.955912170684, -0.000176713266766464, 1.37125,113.186836242676
0.139505008333333, 227.960548311935, -0.000739484999319899, 1.37875,113.186836242676
0.140171566666667, 227.96472436337, -0.0008176250744221, 1.385,107.930015563965
0.140838146666667, 227.969016943202, -0.00078972797568499, 1.39125,110.819274902344
0.141505465, 227.974143588704, -0.00116250575144088, 1.3975,98.7888717651367
0.142171046666667, 227.977471545286, -0.00109299624284281, 1.405,112.185203552246
0.14283971, 227.981384418226, -0.000732799835128111, 1.41125,112.185203552246
0.143505141666667, 227.985139882814, -0.000723171818747034, 1.41625,114.143325805664
0.144171756666667, 227.989805411433, -0.00068304733417041, 1.42375,105.371704101563
0.144837953333333, 227.99311794039, -0.000390722517329119, 1.43125,108.327629089355
0.14550498, 227.998080254514, -0.00023191499405889, 1.4375,107.759925842285
0.146171328333333, 228.002765725062, -0.000465306271033573, 1.445,107.759925842285
0.146838416666667, 228.006991307243, -0.000422577917246558, 1.4525,107.302192687988
0.147505865, 228.010703032149, -0.00057448278720151, 1.45875,105.816856384277
0.148171335, 228.014971253023, -0.000348931616379156, 1.46375,112.090049743652
0.14883968, 228.018739590442, -0.000513485351015954, 1.47125,103.022766113281
0.149506256666667, 228.021644262749, -0.00014068957614597, 1.4775,103.022766113281
0.150171166666667, 228.025439689525, -2.89181903353152E-05, 1.48375,106.997016906738
0.150838318333333, 228.029045641531, 0.000176719980623716, 1.49,110.752235412598
0.151504703333333, 228.032157288681, -4.97746427545579E-05, 1.4975,103.83415222168
0.15217121, 228.035722677328, -0.000195768309658583, 1.50375,107.469703674316
0.152837885, 228.039777810889, -0.000223770403146429, 1.51,107.469703674316
0.153504501666667, 228.043173647375, -5.8160721517197E-05, 1.5175,129.196044921875
0.154171153333333, 228.047262394766, 0.000184024613764082, 1.52375,109.999839782715
0.154838048333333, 228.051805301593, 0.000357271911729949, 1.53125,113.043670654297
0.155504543333333, 228.055751184498, 0.00044621894400673, 1.53625,112.839515686035
0.15617164, 228.059820417806, 0.000300618257381375, 1.5425,112.839515686035
0.156838063333333, 228.06373288741, 0.000175286052681661, 1.55,106.923133850098
0.157505995, 228.067064350473, 0.000250217788932687, 1.55625,104.512367248535
0.158171133333333, 228.070580074425, 0.000258569369391543, 1.5625,103.093078613281
0.158837991666667, 228.074050298617, 0.000218465883714057, 1.57,106.171722412109
0.159505366666667, 228.07838541315, 0.000410193753419324, 1.57625,106.171722412109
