Time (min), Depth (µm), Load (N), Position (µm), Acoustic (aJ)
8.02166666666667E-06, 226.974672653209, 0.00040215780714237, 0,108.453239440918
0.000667328333333333, 226.974730525315, -1.07069551225711E-05, 0,108.453239440918
0.00133317833333333, 226.97415065833, -0.000308525995988176, 0.00375,109.258041381836
0.00199961, 226.972774745402, -0.000573661678516965, 0.0125,104.699073791504
0.00266631166666667, 226.970399357766, -0.000976448446952326, 0.02125,113.349784851074
0.00333309833333333, 226.969036333745, -0.00105511949542081, 0.03,113.526557922363
0.00399966166666667, 226.967992005034, -0.000914882539354173, 0.0375,113.526557922363
0.004666775, 226.969718922773, -0.00114385653823862, 0.045,112.477531433105
0.00533296166666667, 226.97344167346, -0.00133464995489188, 0.05125,107.657455444336
0.005999655, 226.978609216942, -0.00146516289939437, 0.05875,109.450744628906
0.00666658166666667, 226.984081374614, -0.00141519290931318, 0.06375,105.651344299316
0.00733307833333333, 226.990963559437, -0.00158783723754142, 0.07125,105.651344299316
0.00800027333333333, 226.995677139452, -0.00159930266165655, 0.0775,109.00267791748
0.00866670166666667, 227.000343615927, -0.00124640488732084, 0.08375,108.127365112305
0.00933308833333333, 227.00633170877, -0.00105567596741692, 0.09,89.0979690551758
0.00999985333333333, 227.010924793982, -0.00117349054971101, 0.0975,106.302894592285
0.0106665016666667, 227.015379426128, -0.00113460050313081, 0.105,106.302894592285
0.01133329, 227.02023428501, -0.000646522018784519, 0.11125,107.5126953125
0.0120004633333333, 227.026029328966, -0.000791038259896286, 0.11625,109.144325256348
0.0126665216666667, 227.030209825245, -0.000895800497801542, 0.125,111.795188903809
0.01333318, 227.035549227223, -0.000653367674972471, 0.13125,129.958648681641
0.0139998483333333, 227.040356171402, -0.000386499579460362, 0.1375,129.958648681641
0.0146664266666667, 227.048758119093, -0.000851932201276763, 0.14625,111.754287719727
0.0154999816666667, 227.053997582557, -0.000638264933541814, 0.1525,108.264442443848
0.016166485, 227.059613762058, -0.000782323697625571, 0.15875,105.616500854492
0.0168330616666667, 227.065796727283, -0.00111216013026542, 0.16625,106.387962341309
0.0174998933333333, 227.071869209938, -0.00145330299503366, 0.1725,103.157218933105
0.018166605, 227.077943713387, -0.00107465901391643, 0.17875,103.157218933105
0.018833145, 227.083714793693, -0.00121258608599822, 0.185,111.279289245605
0.0194998466666667, 227.089820250187, -0.00113378904387987, 0.19125,102.696067810059
0.020166975, 227.095647772821, -0.00120283357587042, 0.19875,107.660980224609
0.0208330783333333, 227.102461506742, -0.00138715481759715, 0.20375,109.031059265137
0.0214998166666667, 227.107844143287, -0.0016186726886521, 0.2125,109.031059265137
0.022166675, 227.11327811099, -0.00171987860520212, 0.21875,102.510513305664
0.0228331133333333, 227.118666801901, -0.00202522276809537, 0.225,110.790374755859
0.0235009483333333, 227.123244243058, -0.00178101403443277, 0.23125,106.387786865234
0.0241664633333333, 227.128032931538, -0.00138376948760263, 0.23875,104.751594543457
0.02483298, 227.133506907317, -0.00130569990896864, 0.245,104.751594543457
0.0255003466666667, 227.138886099737, -0.0012006061877065, 0.25125,104.189888000488
0.02616694, 227.144266097623, -0.00107774885865473, 0.2575,101.945617675781
0.02683309, 227.150047892942, -0.000822427183196787, 0.26375,104.304908752441
0.027500215, 227.154783945305, -0.000789506836783002, 0.27125,104.386642456055
0.0281664633333333, 227.160174988432, -0.000882748153348949, 0.2775,104.386642456055
0.028833175, 227.165114260824, -0.000786081008893355, 0.28375,105.48681640625
0.0294997683333333, 227.170008847824, -0.000837706915792045, 0.29125,106.872100830078
0.03016801, 227.175906283054, -0.00104431103827932, 0.2975,128.569778442383
0.0308332383333333, 227.181457219754, -0.00122354603550444, 0.30375,111.739044189453
0.0314997933333333, 227.18723591826, -0.000976865426021449, 0.31,111.739044189453
0.0321666083333333, 227.192952439966, -0.000889569810767704, 0.3175,108.019676208496
0.0328331, 227.199381471834, -0.000796820469448533, 0.3225,113.706977844238
0.033499795, 227.204267817226, -0.00083341713123358, 0.33,108.14826965332
0.0341665516666667, 227.209277869018, -0.000767777428233539, 0.33625,109.740821838379
0.034833145, 227.213717848675, -0.000879557813633122, 0.3425,109.740821838379
0.0354997833333333, 227.218671456757, -0.00112815382691914, 0.35,106.053581237793
0.0361672766666667, 227.222691948445, -0.000984645535218901, 0.3575,107.80135345459
0.0368331766666667, 227.227660878364, -0.00078603751108566, 0.3625,106.635536193848
0.0375002216666667, 227.231884285931, -0.000754723583962814, 0.36875,102.074142456055
0.03816655, 227.236821639208, -0.000778132908077721, 0.37625,102.074142456055
0.0388331733333333, 227.242068234508, -0.000633670664244471, 0.38375,102.495780944824
0.0395002466666667, 227.24701898141, -0.000886802449712341, 0.39,106.004608154297
0.0401672433333333, 227.252222995236, -0.000973186110758872, 0.395,108.738082885742
0.040833185, 227.257829773023, -0.00110186614725801, 0.4025,102.123542785645
0.0414999633333333, 227.262784736443, -0.00114301358046894, 0.40875,102.123542785645
0.0421667516666667, 227.266354219712, -0.00111986824302775, 0.41625,109.295639038086
0.0428340316666667, 227.270840270925, -0.00086031528010558, 0.42125,100.592872619629
0.0435005666666667, 227.274846112619, -0.000711011279490958, 0.42875,104.55158996582
0.0441665716666667, 227.278770660661, -0.000851737210998069, 0.435,104.775253295898
0.0448333833333333, 227.282919608724, -0.00067673350125843, 0.44125,104.775253295898
0.0454999633333333, 227.287857805437, -0.000890097784221413, 0.44875,104.327369689941
0.0461667583333333, 227.292200430864, -0.000799527833400241, 0.455,103.979667663574
0.0468346933333333, 227.296816597827, -0.00103456752761292, 0.46125,131.590362548828
0.0474999916666667, 227.301999117615, -0.000955956476141821, 0.4675,107.289886474609
0.048167185, 227.306033960347, -0.00102539548831419, 0.475,107.289886474609
0.0488332283333333, 227.310868403132, -0.000983154610021997, 0.48125,108.721572875977
0.0495000983333333, 227.314989877959, -0.00100269412858138, 0.4875,110.735595703125
0.0501667016666667, 227.319821596588, -0.00118392252569976, 0.495,108.991821289063
0.0508332283333333, 227.32382419494, -0.000908096880142351, 0.50125,105.341506958008
0.0514998633333333, 227.328896601207, -0.000837069447771882, 0.50625,105.341506958008
0.0521666066666667, 227.333371778744, -0.000568647430301694, 0.51375,108.950820922852
0.0528334266666667, 227.337942785188, -0.000477089029192505, 0.52125,112.422088623047
0.0534998716666667, 227.341989022168, -4.30077689104382E-06, 0.5275,107.369926452637
0.0541681033333333, 227.346564749912, 0.000167704583456385, 0.53375,108.460021972656
0.0548331916666667, 227.350698925854, 8.237686935978E-05, 0.54125,108.460021972656
0.055499875, 227.355194904557, -0.000131135906161634, 0.5475,110.210899353027
0.056167365, 227.359573033082, -0.000371845315553804, 0.55375,106.065711975098
0.0568339383333333, 227.3649011668, -0.000749167863016712, 0.56,105.681976318359
0.0575000666666667, 227.369209040398, -0.00118810431567993, 0.5675,106.506164550781
0.05816676, 227.373899403576, -0.00115924876505785, 0.57375,106.506164550781
0.0588333333333333, 227.378719097404, -0.00126699435313254, 0.58,107.262046813965
0.059500445, 227.383574095288, -0.00151759426576138, 0.58625,106.84260559082
0.0601674666666667, 227.387959287579, -0.00151899669533347, 0.59375,105.472679138184
0.0608333583333333, 227.392163902688, -0.00132085214792585, 0.6,111.969062805176
0.0615001633333333, 227.397000874737, -0.00136685933705351, 0.60625,111.969062805176
0.0621669483333333, 227.401258299559, -0.00124285006586875, 0.61375,111.379852294922
0.0628339266666667, 227.405517443893, -0.000860225284705146, 0.61875,125.800064086914
0.0635000533333333, 227.409921815196, -0.000944218065849057, 0.625,106.276725769043
0.064168215, 227.414897094753, -0.00107259361767308, 0.63375,107.760223388672
0.0648335583333333, 227.41899006206, -0.00120019670828065, 0.64,107.760223388672
0.0655002733333333, 227.423535941077, -0.00137190208372617, 0.64625,105.150764465332
0.0661672866666667, 227.428412403791, -0.00144060913266222, 0.6525,113.125694274902
0.0668333833333333, 227.432400532884, -0.00134934021702663, 0.65875,108.767761230469
0.06750061, 227.437540244436, -0.00140179258235653, 0.66625,108.040412902832
0.0681667833333333, 227.442359087902, -0.00117551994776868, 0.67125,108.040412902832
0.0688338633333333, 227.446757491419, -0.000831816711597746, 0.6775,109.841438293457
0.0695001633333333, 227.450267043022, -0.000708177921846868, 0.685,108.631698608398
0.07016767, 227.45461937428, -0.000408293484716657, 0.6925,114.007720947266
0.07083334, 227.458116539228, -7.92430126341473E-05, 0.69875,105.266380310059
0.07150026, 227.462264578368, -1.42985743827889E-07, 0.70625,105.266380310059
0.0721666783333333, 227.466424821181, 0.000193429791275004, 0.7125,110.415336608887
0.072833935, 227.471799357784, 4.21728887472753E-05, 0.71875,107.453567504883
0.0735006333333333, 227.475937726811, 6.48997471949379E-05, 0.72625,106.730285644531
0.0741667466666667, 227.481066051809, -0.000131420891840761, 0.73125,105.723518371582
0.0748332833333333, 227.485613341341, -0.000339971916543526, 0.7375,105.723518371582
0.0755002133333333, 227.490389549176, -0.000608875409789667, 0.745,110.354667663574
0.07616686, 227.494428090052, -0.000756580490714113, 0.7525,111.172897338867
0.0768340766666667, 227.498962097074, -0.000861549718229526, 0.75875,107.37718963623
0.0775008, 227.503111542653, -0.00093536251070569, 0.765,108.049606323242
0.07816792, 227.506309160323, -0.000760714283092131, 0.77125,108.049606323242
0.0788352866666667, 227.510128709269, -0.000893037636604405, 0.77875,104.747253417969
0.0795012966666667, 227.513651705177, -0.000552014765852189, 0.785,134.042694091797
0.0801679466666667, 227.51705434153, -0.00062701549864702, 0.79125,111.283432006836
0.08083525, 227.520405432991, -0.000733142667993035, 0.79875,106.163185119629
0.081501205, 227.524254047997, -0.00078218120484977, 0.805,106.163185119629
0.0821678283333333, 227.527408320636, -0.000534207660297376, 0.81125,112.272644042969
0.0828345066666667, 227.531279697609, -0.000574318645575625, 0.8175,102.129699707031
0.0835005983333333, 227.5350294033, -0.000825670020436762, 0.825,105.471496582031
0.084167475, 227.538516367563, -0.000526072068910081, 0.8325,104.352157592773
0.084834255, 227.54257100203, -0.000681750749343762, 0.8375,104.352157592773
0.08550071, 227.547035187148, -0.000991312700360357, 0.84375,104.028472900391
0.0861673666666667, 227.550204965723, -0.00115316507070055, 0.85125,111.033500671387
0.0868346316666667, 227.553812869412, -0.000964285557925915, 0.8575,113.569526672363
0.087500575, 227.557609650818, -0.00119331055424008, 0.86375,112.624176025391
0.0881673366666667, 227.561015011537, -0.00110285459771606, 0.87125,112.624176025391
0.0888339183333333, 227.563160214314, -0.000981311202717852, 0.8775,110.001075744629
0.0895006283333333, 227.566919745305, -0.00110081620009071, 0.88375,111.20613861084
0.090168345, 227.570239814436, -0.00112243611415874, 0.89125,110.369445800781
0.0908338916666667, 227.573318299755, -0.000985061014384874, 0.9,114.591728210449
0.0915016116666667, 227.575888377132, -0.00109242562155486, 0.90375,114.591728210449
0.0921691816666667, 227.579061674293, -0.00107863831410217, 0.91,107.943161010742
0.092833905, 227.582380451528, -0.00131896224288019, 0.91625,101.486633300781
0.09350088, 227.585058242951, -0.00124114765141601, 0.92375,107.006690979004
0.0941678483333333, 227.587653458482, -0.00119609291447571, 0.93125,102.203620910645
0.094835335, 227.591601698642, -0.00117225011205948, 0.9375,102.203620910645
0.0955006566666667, 227.59521846884, -0.00118941225003588, 0.945,106.088821411133
0.09616771, 227.59827024267, -0.00108079520573412, 0.95125,126.248878479004
0.09683462, 227.601636152063, -0.00102408755410703, 0.95625,106.074333190918
0.0975012833333333, 227.605077005011, -0.000914665050273192, 0.96375,104.523696899414
0.0981672416666667, 227.607986283906, -0.00123037819237276, 0.97,104.523696899414
0.0988338933333333, 227.611067268916, -0.00117723886147488, 0.97625,105.860260009766
0.099500565, 227.614192772223, -0.000879016340923546, 0.98375,103.625419616699
0.100167685, 227.617420674313, -0.00092862934889049, 0.9925,102.697677612305
0.10083398, 227.620472877846, -0.00120291757167951, 0.9975,100.892311096191
0.10150124, 227.623512640963, -0.000901345719298074, 1.00375,100.892311096191
0.102167388333333, 227.626287485305, -0.000975091015154837, 1.00875,106.272964477539
0.10283404, 227.629232208678, -0.000972109164909808, 1.01625,104.006660461426
0.103501201666667, 227.631807063368, -0.000740982774166618, 1.0225,107.169921875
0.104167741666667, 227.634615241527, -0.000506910531364077, 1.03,111.214561462402
0.104834435, 227.637146607573, -0.00051853644739036, 1.03625,111.214561462402
0.105500776666667, 227.640193377138, -0.000665898045562697, 1.045,104.662956237793
0.106167905, 227.643208420074, -0.00044472815470866, 1.04875,105.408958435059
0.106835311666667, 227.646690929161, -0.000919823291209922, 1.05625,110.033493041992
0.107500625, 227.649536176361, -0.000907117429400753, 1.0625,105.354751586914
0.108167361666667, 227.652726124384, -0.000837112945685847, 1.07,105.354751586914
0.108833971666667, 227.655287490832, -0.000616366033556037, 1.07625,104.739944458008
0.109500683333333, 227.658041885504, -0.000965771983285847, 1.0825,108.250022888184
0.110167375, 227.660727388429, -0.000755683535772186, 1.08875,114.507316589355
0.110834616666667, 227.664138763795, -0.00092559200144254, 1.095,106.012771606445
0.11150057, 227.66773655346, -0.000847082944873375, 1.10125,106.012771606445
0.112167328333333, 227.671703346311, -0.000931683195485621, 1.10875,111.933082580566
0.112834626666667, 227.674847497958, -0.000643240183658838, 1.11625,127.423797607422
0.113500561666667, 227.677926354541, -0.000126949616408248, 1.1225,107.048492431641
0.114167523333333, 227.680730745397, 2.05769734697019E-05, 1.13,103.400283813477
0.114833925, 227.683174289612, -8.23943543792527E-05, 1.13625,103.400283813477
0.115501206666667, 227.68578340519, -0.000177507576961785, 1.14125,106.533882141113
0.116167845, 227.688916351712, -0.000552724230243709, 1.1475,110.842468261719
0.116835401666667, 227.691847724688, -0.0011515061540555, 1.15625,108.402183532715
0.117501111666667, 227.694945829903, -0.000984674033888833, 1.1625,107.700942993164
0.118167278333333, 227.698079947459, -0.000895551510414363, 1.16875,107.700942993164
0.118834483333333, 227.700855184261, -0.000731836233625257, 1.17375,107.595100402832
0.11950079, 227.703389462094, -0.000428815454036482, 1.18125,112.303344726563
0.120167893333333, 227.70682249249, -0.000509398906416672, 1.18875,104.939659118652
0.12083477, 227.709503153816, -0.000835994001889729, 1.195,110.585296630859
0.121500601666667, 227.712124516963, -0.000962337155807272, 1.20125,110.585296630859
0.122167341666667, 227.714686311387, -0.000879433319992668, 1.2075,105.072982788086
0.12283403, 227.716835140291, -0.000896616456889455, 1.21375,107.926193237305
0.123500728333333, 227.71908737951, -0.000857465423399324, 1.22125,109.997718811035
0.124167313333333, 227.721887112389, -0.00110315008290852, 1.22875,111.401458740234
0.124835451666667, 227.725340944166, -0.000987367898478404, 1.23375,111.401458740234
0.125500786666667, 227.728783388343, -0.00139222756280039, 1.24,106.266082763672
0.126167233333333, 227.732468164239, -0.00185827065395519, 1.24625,105.316673278809
0.126833903333333, 227.735722077552, -0.00196828112826137, 1.25375,104.646469116211
0.127501225, 227.738509797058, -0.00195784615240256, 1.26125,107.366073608398
0.128167571666667, 227.741530001234, -0.00214489575712892, 1.2675,107.366073608398
0.128833975, 227.745086695422, -0.00182719071514552, 1.27375,106.67822265625
0.12950131, 227.7480820763, -0.00140817926163458, 1.28,129.246337890625
0.130167353333333, 227.750708657272, -0.000919733295745727, 1.28625,108.545310974121
0.130833896666667, 227.753683490174, -0.000649275880498999, 1.29375,107.858360290527
0.131500741666667, 227.756339015045, -0.000431471820579733, 1.3,107.858360290527
0.132167218333333, 227.758995272185, -0.000334392196785718, 1.30625,111.34774017334
0.132833856666667, 227.762219380816, -0.000476955535984378, 1.3125,106.5634765625
0.133500566666667, 227.765603351988, -0.000711827238600125, 1.32,104.652679443359
0.134167331666667, 227.768290516654, -0.000611218292132638, 1.32625,104.227073669434
0.134834566666667, 227.770824125246, -0.000730723289526753, 1.3325,104.227073669434
0.135501546666667, 227.773706726253, -0.000924996531390685, 1.33875,105.90690612793
0.13616758, 227.776191012049, -0.00093773989133119, 1.34625,103.55883026123
0.136834391666667, 227.779155128564, -0.00110709338490858, 1.3525,109.306976318359
0.137501098333333, 227.782579759089, -0.00137774279045767, 1.35875,112.40576171875
0.138167931666667, 227.786019137435, -0.00156149856059936, 1.36625,112.40576171875
0.138834415, 227.788886988418, -0.00157322647152757, 1.3725,109.737197875977
0.139500723333333, 227.792696661909, -0.00135787028861699, 1.37875,106.474334716797
0.140168836666667, 227.796060251739, -0.00120768133247693, 1.385,109.155616760254
0.140835468333333, 227.799680859989, -0.00128182410836432, 1.3925,106.912910461426
0.141502116666667, 227.80321011658, -0.00139169058986402, 1.39875,106.912910461426
0.1421679, 227.806882570996, -0.00144398246326152, 1.405,105.458000183105
0.142834363333333, 227.809860161793, -0.00176399288949906, 1.41125,108.954559326172
0.143500631666667, 227.81346946686, -0.00188603425948417, 1.4175,108.170631408691
0.144167361666667, 227.817019368106, -0.00169325494260218, 1.42375,111.919372558594
0.144834403333333, 227.820269402261, -0.00143655033663189, 1.43125,111.919372558594
0.145500833333333, 227.823390460549, -0.00130654886647844, 1.43875,128.517501831055
0.14616745, 227.826459760629, -0.000896884943463909, 1.445,103.439453125
0.146834425, 227.829973734443, -0.000929310314760856, 1.45125,107.266464233398
0.147500858333333, 227.833404222431, -0.000864533068441467, 1.4575,111.57315826416
0.148167236666667, 227.836557150791, -0.00059630304131615, 1.46625,111.57315826416
0.14883388, 227.840305595764, -0.000438159984684089, 1.4725,102.98055267334
0.149502146666667, 227.844933661779, -0.000823684120186783, 1.4775,103.277053833008
0.150167251666667, 227.848703858493, -0.000849164840327671, 1.485,111.111610412598
0.151167293333333, 227.85505368276, -0.000905341518609739, 1.49375,108.253791809082
0.15183406, 227.859427014013, -0.00102093771235009, 1.50125,103.448066711426
0.15250192, 227.863156930325, -0.00134073064948539, 1.5075,107.735412597656
0.15316725, 227.867105217701, -0.000861683211543925, 1.51375,107.735412597656
0.153834458333333, 227.871249944108, -0.00101127519770773, 1.52125,107.170486450195
0.154500728333333, 227.87526977994, -0.00100012175795349, 1.5275,104.161399841309
0.15516788, 227.879743215844, -0.000893729101945594, 1.53375,104.071304321289
0.155834076666667, 227.884058310653, -0.000977097914410224, 1.54,104.307647705078
0.156501105, 227.888215086388, -0.000910085780347407, 1.5475,104.307647705078
0.157167338333333, 227.892340724439, -0.000639359878611242, 1.555,106.237159729004
0.15783386, 227.896359984298, -0.000554186656791935, 1.56,107.653038024902
0.158500555, 227.900149765037, -0.000249991436204122, 1.5675,104.623313903809
0.159167513333333, 227.904256293085, 6.59736931739409E-05, 1.57375,112.100128173828
0.159834383333333, 227.907785426971, 8.35333111809622E-05, 1.58,112.100128173828
