Time (min), Depth (µm), Load (N), Position (µm), Acoustic (aJ)
9.36166666666667E-06, 224.716868269081, 0.000140833588293693, 0,235.773956298828
0.000665356666666667, 224.716347650065, 0.000172981473491021, 0.00625000000020748,235.773956298828
0.00133169833333333, 224.715250750429, 6.16870636618564E-05, 0.0225000000000364,279.551177978516
0.00217084166666667, 224.71483509667, -0.000115787021995031, 0.0374999999994685,247.92707824707
0.00283729166666667, 224.714580581161, -7.09962717284537E-05, 0.0512500000002802,255.448944091797
0.00350408833333333, 224.714318139824, -0.00020276915292097, 0.0649999999993156,261.638214111328
0.00417081333333333, 224.716228522827, -0.000691603599251516, 0.0787500000001273,270.289215087891
0.004838975, 224.719449172403, -0.000804763915314637, 0.0937499999995595,270.289215087891
0.00550404, 224.723987522706, -0.000904033429098729, 0.107500000000371,261.672668457031
0.00617084, 224.730474010965, -0.00112751170403446, 0.121249999999407,213.797027587891
0.00683737, 224.738824354844, -0.000954637887287513, 0.135000000000218,258.991943359375
0.00750425666666667, 224.748152401639, -0.000826277334686269, 0.147499999998857,274.561859130859
0.00817093, 224.75935142097, -0.00116194547444744, 0.161249999999669,274.561859130859
0.00883738166666667, 224.769729031, -0.001213922363699, 0.173750000000084,264.300262451172
0.00950464166666667, 224.780797365352, -0.000933388454632109, 0.187499999999119,263.248474121094
0.0101709183333333, 224.790967524611, -0.000876271323579166, 0.201249999999931,266.465850830078
0.0108373783333333, 224.80124785513, -0.00072524690937645, 0.213750000000346,271.716674804688
0.0115043766666667, 224.811151555701, -0.000209778300847623, 0.227499999999381,271.716674804688
0.01217117, 224.821771175755, 6.71917872207553E-05, 0.241250000000193,262.092864990234
0.0128375816666667, 224.832099490748, -7.3603140808906E-05, 0.253749999998831,264.014953613281
0.0135040866666667, 224.843754374118, -0.000172166190092792, 0.26875000000004,260.877471923828
0.0141707883333333, 224.854666471537, -0.000426079436281029, 0.280000000000058,259.628967285156
0.0148375216666667, 224.865477663839, -0.000484258514002766, 0.293749999999093,259.628967285156
0.0155045733333333, 224.876579718948, -0.000458437310958576, 0.307499999999905,259.857543945313
0.0161707033333333, 224.887628448229, -0.000126394489117706, 0.32124999999894,257.785705566406
0.0168388216666667, 224.898788517137, 1.59573607188401E-05, 0.333749999999355,263.334136962891
0.0175047316666667, 224.910100098721, 1.21745507149468E-05, 0.347500000000167,301.145294189453
0.0181708066666667, 224.922121572873, -3.66164985727417E-05, 0.359999999998806,301.145294189453
0.0188379783333333, 224.933164680713, 5.50948948893417E-05, 0.373749999999617,257.217987060547
0.01950387, 224.945189066201, -0.000398239334628735, 0.387500000000429,252.553970336914
0.020171135, 224.956564091227, -0.000522563589916918, 0.399999999999068,259.400756835938
0.0208375533333333, 224.968456287494, -0.000554252498204342, 0.412499999999483,250.103256225586
0.0215047316666667, 224.979406249403, -0.000677412811985564, 0.426250000000294,250.103256225586
0.022170895, 224.991418392255, -0.000828050245628477, 0.43999999999933,258.630950927734
0.0228386633333333, 225.002299224224, -0.000703280512686255, 0.452499999999745,248.279724121094
0.0235041516666667, 225.013698557036, -0.000849181184256024, 0.466250000000557,248.54557800293
0.0241710183333333, 225.024751950658, -0.000744900422169231, 0.478749999999195,246.093841552734
0.0248372116666667, 225.03636327311, -0.000773075006963452, 0.492500000000007,246.093841552734
0.0255054833333333, 225.047328064683, -0.000818719214321753, 0.505000000000422,252.554962158203
0.02617114, 225.0585347383, -0.000673486009238959, 0.518749999999457,253.937927246094
0.0268375416666667, 225.070250094559, -0.000333783072174151, 0.532500000000269,261.411041259766
0.027504645, 225.082311459314, -0.000388887304359111, 0.544999999998907,252.546981811523
0.0281708033333333, 225.094496770733, -0.000342986609906598, 0.558749999999719,252.546981811523
0.02883786, 225.106587826023, -0.000412952095608274, 0.571250000000134,258.209991455078
0.0295041516666667, 225.119618741731, -0.000572311591143918, 0.58499999999917,259.419616699219
0.0301706516666667, 225.131789820505, -0.000855027890578866, 0.598749999999981,267.794708251953
0.0308375483333333, 225.144782622262, -0.00112603127832963, 0.611250000000396,262.639709472656
0.0315046233333333, 225.156667392871, -0.00111742771046476, 0.624999999999432,262.639709472656
0.0321710083333333, 225.169961389216, -0.0012427734144841, 0.637499999999847,260.572662353516
0.03283731, 225.181903430453, -0.00135256939955811, 0.651249999998882,272.401611328125
0.0335040866666667, 225.194001670366, -0.00152536372031169, 0.664999999999694,265.363830566406
0.0341707883333333, 225.205615079789, -0.00139506676498702, 0.677500000000109,307.583618164063
0.0348375333333333, 225.217323182691, -0.00124343788116478, 0.690000000000524,307.583618164063
0.035504255, 225.229042850457, -0.000963791927493399, 0.703749999999559,264.774200439453
0.0361711916666667, 225.241059034948, -0.00081988615567752, 0.717500000000371,259.120758056641
0.0368377816666667, 225.253267127125, -0.000597400830866777, 0.731249999999406,251.037139892578
0.037504665, 225.264747443293, -0.000364932007548877, 0.743749999999821,254.169021606445
0.038171115, 225.278720021657, -0.000252487155553634, 0.75999999999965,254.169021606445
0.0388373466666667, 225.296000281191, -0.000540367695601671, 0.771249999999668,251.418380737305
0.0395046266666667, 225.312985422328, -0.00060712484249468, 0.783750000000083,252.852203369141
0.0401707716666667, 225.329739594952, -0.000761468589975666, 0.797499999999118,251.983169555664
0.0408374633333333, 225.346963441734, -0.000887744247273808, 0.81124999999993,251.488662719727
0.0415040816666667, 225.361470725933, -0.00138288887667407, 0.824999999998965,251.488662719727
0.0421706783333333, 225.373074799143, -0.00127416383779402, 0.838749999999777,252.821517944336
0.0428378716666667, 225.384613463261, -0.000963836925182989, 0.852499999998813,254.655990600586
0.0435053516666667, 225.396850070203, -0.00108777569989954, 0.864999999999228,252.816909790039
0.044170775, 225.408483601199, -0.00117903261611865, 0.877499999999642,247.693420410156
0.0448373616666667, 225.422041977339, -0.00117756568979722, 0.892499999999075,247.693420410156
0.0455041983333333, 225.43388892848, -0.00101898765502445, 0.90499999999949,252.841903686523
0.0461708633333333, 225.446518247882, -0.00130250491426077, 0.918750000000301,251.444854736328
0.0468387616666667, 225.459340201063, -0.00107629227667031, 0.932499999999337,249.877166748047
0.0475047666666667, 225.472983395762, -0.000967618235241225, 0.944999999999752,251.362228393555
0.0481707516666667, 225.485587600858, -0.000756050862032156, 0.958750000000563,251.362228393555
0.0488375516666667, 225.498840707388, -0.00100733774016521, 0.972499999999599,252.571533203125
0.0495041433333333, 225.512248702783, -0.000937871729396086, 0.98625000000041,249.397155761719
0.0501708316666667, 225.52533554044, -0.00105312444036307, 0.999999999999446,255.436370849609
0.0508375666666667, 225.538541773069, -0.00132603123252164, 1.01249999999986,300.358276367188
0.0515046416666667, 225.551266476091, -0.00133208042868143, 1.0262499999989,300.358276367188
0.0521708533333333, 225.564566899647, -0.00125305089823806, 1.03874999999931,254.215682983398
0.0528378083333333, 225.577271937342, -0.00130465130637939, 1.05250000000012,255.574676513672
0.0535047233333333, 225.590014204389, -0.00106961911180998, 1.06624999999916,252.413970947266
0.0541707783333333, 225.602389183348, -0.00076856023370199, 1.07874999999957,258.611267089844
0.0548375283333333, 225.616156964156, -0.000733436497893483, 1.09250000000038,258.611267089844
0.0555046116666667, 225.629413621146, -0.000971609534737171, 1.10624999999942,258.427459716797
0.0561709766666667, 225.64272980103, -0.000964462393722909, 1.11874999999984,254.860290527344
0.0568374266666667, 225.65585864683, -0.00145417429602065, 1.13249999999887,248.679809570313
0.05750467, 225.66935824579, -0.00162366728258879, 1.14624999999968,251.043563842773
0.0581712966666667, 225.682711695266, -0.00170478770801162, 1.1587500000001,251.043563842773
0.0588374283333333, 225.696118425076, -0.00161795706945041, 1.17249999999913,258.351135253906
0.05950488, 225.710120046244, -0.00194362521147222, 1.18624999999994,258.759155273438
0.0601707916666667, 225.723687783569, -0.00177838451133121, 1.19875000000036,256.459625244141
0.06083726, 225.737026687512, -0.00183062238745019, 1.211249999999,256.822448730469
0.06150444, 225.750081456444, -0.00221868589543519, 1.22499999999981,256.822448730469
0.0621708483333333, 225.762185161949, -0.00211288270980278, 1.23874999999884,256.571838378906
0.06283891, 225.773759952323, -0.00191089685533954, 1.25249999999966,257.704895019531
0.0635052466666667, 225.785621199096, -0.00196451766201338, 1.26500000000007,260.644195556641
0.06417132, 225.79690993088, -0.00191644057686917, 1.27750000000049,266.063507080078
0.0648389916666667, 225.807845611742, -0.00138635520252261, 1.29124999999952,266.063507080078
0.0655047266666667, 225.820297552542, -0.00161425825519184, 1.30500000000033,262.115417480469
0.0661708833333333, 225.832086334985, -0.00131393733999652, 1.31749999999897,251.274429321289
0.0668375133333333, 225.843735029479, -0.00111334641550462, 1.33250000000018,302.256195068359
0.0675046683333333, 225.855687408686, -0.00128296389577698, 1.3437500000002,252.145492553711
0.068170805, 225.867654532411, -0.00133885558840117, 1.35749999999923,252.145492553711
0.0688373066666667, 225.879692005267, -0.00142375582391533, 1.36999999999965,248.458724975586
0.0695047233333333, 225.891234834201, -0.00163944948985914, 1.38375000000046,252.019287109375
0.0701708516666667, 225.903110818459, -0.00181399722251643, 1.3974999999995,246.002517700195
0.07083726, 225.915065889526, -0.00148014699147208, 1.40999999999991,251.061950683594
0.0715046666666667, 225.927459624713, -0.00170317678888371, 1.42374999999895,251.061950683594
0.0721712883333333, 225.93862745879, -0.00137626820921037, 1.43624999999936,254.742630004883
0.0728372266666667, 225.951073994184, -0.00119797066492857, 1.45000000000017,247.729522705078
0.0735046516666667, 225.963477166863, -0.00117007806594342, 1.46374999999921,254.781127929688
0.0741713583333333, 225.975225647286, -0.00119271942867884, 1.47624999999962,257.968475341797
0.0748378183333333, 225.986926825139, -0.00113640775715797, 1.48875000000004,257.968475341797
0.0755041166666667, 225.996891439998, -0.00139587822419546, 1.50249999999907,250.863220214844
0.0761712983333333, 226.006697671198, -0.00145933403686053, 1.51750000000028,239.350936889648
0.0768374466666667, 226.016257702945, -0.00129343786964902, 1.52999999999892,243.588836669922
0.07750391, 226.026482661313, -0.00157388178325171, 1.54249999999934,246.917114257813
0.0781708183333333, 226.036669917619, -0.00182512366363141, 1.55625000000015,246.917114257813
0.0788374133333333, 226.048889803229, -0.00205014986080635, 1.56999999999918,242.098403930664
0.0795047616666667, 226.060800490739, -0.00204256024202937, 1.58374999999999,237.025833129883
0.080171395, 226.072711339739, -0.00221517607169394, 1.59749999999903,239.105392456055
0.08083729, 226.084706204728, -0.00226030880472446, 1.60874999999905,245.694381713867
0.0815046266666667, 226.095781110047, -0.00204661603829591, 1.62249999999986,245.694381713867
0.0821707416666667, 226.107134128845, -0.00146181341234545, 1.6362499999989,242.255432128906
0.0828373016666667, 226.118042172544, -0.00145914204651566, 1.64999999999971,235.218292236328
0.0835042683333333, 226.128824633913, -0.00132036901696416, 1.66375000000052,285.168640136719
0.0841713, 226.139890275975, -0.000925941328673434, 1.67624999999916,238.188018798828
0.0848372866666667, 226.15104626565, -0.000512587591031777, 1.68999999999997,238.188018798828
0.0855038833333333, 226.162019980995, -0.000801704069000639, 1.703749999999,242.788543701172
0.0861713733333333, 226.17350465397, -0.000863553462396025, 1.71624999999942,239.461273193359
0.0868372483333333, 226.184889539131, -0.000822287535135981, 1.73000000000023,240.741241455078
0.0875042316666667, 226.195880611557, -0.000981716027194174, 1.74249999999887,234.992172241211
0.088171315, 226.206740371623, -0.00124457182420493, 1.75624999999968,234.992172241211
0.08883731, 226.217838057491, -0.00107083255092852, 1.77000000000049,238.106155395508
0.0895041033333333, 226.228832260178, -0.00104673326141808, 1.78374999999953,235.521301269531
0.09017084, 226.240233776177, -0.00127355636830443, 1.79750000000034,233.28173828125
0.090837605, 226.251167699783, -0.000873137980926899, 1.80999999999898,246.785903930664
0.0915041133333333, 226.262719070553, -0.00100546583427615, 1.82374999999979,246.785903930664
0.0921714683333333, 226.273854291056, -0.00116589777595141, 1.83749999999883,240.996932983398
0.0928372716666667, 226.285172850933, -0.00127131698085156, 1.84999999999924,246.564407348633
0.0935046416666667, 226.296355013987, -0.00139469778358382, 1.86375000000005,243.399124145508
0.0941713166666667, 226.307439344513, -0.0016131168126147, 1.87749999999909,251.525207519531
0.0948373033333333, 226.31826129804, -0.00148239087882569, 1.8899999999995,251.525207519531
0.0955046466666667, 226.329236567833, -0.00130233392290005, 1.90375000000031,238.143615722656
0.0961713916666667, 226.340502472163, -0.0013275701553207, 1.91749999999935,236.604919433594
0.09683731, 226.351591336996, -0.0012661002428631, 1.93125000000016,232.639465332031
0.0975042266666667, 226.362885796206, -0.00144757162775606, 1.9437499999988,232.824005126953
0.09817074, 226.374134765821, -0.0013726008934918, 1.95624999999922,232.824005126953
0.098837265, 226.384802742412, -0.00111028356942683, 1.97000000000003,232.182327270508
0.0995044283333333, 226.395136554471, -0.000816818809847776, 1.98374999999906,227.240844726563
0.100170765, 226.405826466342, -0.000727783282009949, 1.99749999999987,275.315277099609
0.100837665, 226.416827745515, -0.000862884496027155, 2.01000000000029,226.985717773438
0.101504208333333, 226.427386846005, -0.000773271497145295, 2.02249999999893,226.985717773438
0.102170813333333, 226.437809467076, -0.00120089701799193, 2.03750000000014,228.051147460938
0.102837826666667, 226.447997307093, -0.00126823313574711, 2.05000000000055,224.172790527344
0.103503991666667, 226.457366202238, -0.000806782813943996, 2.06249999999919,227.233428955078
0.104170716666667, 226.467156011388, -0.000636965843683494, 2.0749999999996,222.899810791016
0.10483747, 226.476902560602, -0.000633627011387982, 2.08875000000042,222.899810791016
0.105504703333333, 226.487137584317, -0.000482736090499664, 2.10249999999945,218.518432617188
0.106170633333333, 226.498031771372, -0.000279307308526697, 2.11625000000026,220.668395996094
0.106837513333333, 226.509290074246, -0.000605819908115067, 2.1287499999989,223.516906738281
0.107504645, 226.519222780335, -0.00042050421633894, 2.14124999999932,222.556823730469
0.108171005, 226.528906811129, -0.000391116192468688, 2.15500000000013,222.556823730469
0.108837575, 226.539096970783, -0.00033001676142371, 2.16750000000054,217.809112548828
0.109504681666667, 226.54921528956, -0.00050522896069791, 2.18124999999958,219.650833129883
0.110170771666667, 226.558702281828, -0.000469109274958116, 2.19500000000039,215.855911254883
0.110837566666667, 226.569139521012, -0.000641086136741883, 2.20749999999903,219.607696533203
0.111504235, 226.579790358437, -0.000400436724325843, 2.22124999999984,219.607696533203
0.112170793333333, 226.589834776087, -0.00043976324899241, 2.23375000000026,222.194458007813
0.112837305, 226.599242992318, -0.000544655980320749, 2.24749999999929,226.378143310547
0.113503981666667, 226.609356454047, -0.000631270629746636, 2.25999999999971,223.668792724609
0.114170738333333, 226.618164244836, -0.000387618368122668, 2.27375000000052,222.256378173828
0.114837283333333, 226.628344757214, -0.000790594127075348, 2.28624999999916,222.256378173828
0.115505186666667, 226.637420669372, -0.00103758372104917, 2.29874999999957,229.412933349609
0.11617078, 226.646257122728, -0.000993436438542879, 2.31250000000038,229.144744873047
0.116837303333333, 226.655708622957, -0.0011013545179452, 2.32749999999982,282.042877197266
0.117504705, 226.666060416601, -0.0015773346099294, 2.34000000000023,239.27082824707
0.118171058333333, 226.675134925669, -0.00166014995020421, 2.35249999999887,232.898712158203
0.118837276666667, 226.685744211112, -0.00125564726795396, 2.36750000000008,232.898712158203
0.119504721666667, 226.695841945363, -0.00107569830660662, 2.38000000000049,232.956359863281
0.120170841666667, 226.705393581919, -0.000913190469217183, 2.39249999999913,229.802917480469
0.120837525, 226.714399943862, -0.000756754326853587, 2.40624999999994,239.084426879883
0.121504086666667, 226.724017661416, -0.000552775072518354, 2.41999999999898,239.084426879883
0.122171156666667, 226.733510112482, -0.000966448294142921, 2.43374999999979,236.451797485352
0.122837266666667, 226.743942550961, -0.00101970461910175, 2.44749999999883,237.386840820313
0.123504286666667, 226.754492558586, -0.00105005859447898, 2.46124999999964,233.452514648438
0.124171215, 226.765330484119, -0.000776344842821431, 2.47375000000005,228.444107055664
0.124837505, 226.775680526849, -0.000901374062749179, 2.48625000000047,228.444107055664
0.12550511, 226.785758975638, -0.000494888480097761, 2.4999999999995,231.520523071289
0.126172248333333, 226.795136478221, -0.000451252671897996, 2.51375000000031,220.601150512695
0.126837261666667, 226.805175823415, -0.000545582933750741, 2.52749999999935,231.672744750977
0.127504683333333, 226.815094730398, -0.000793955458258163, 2.53999999999976,229.974029541016
0.128171101666667, 226.824751364975, -0.000849659660289442, 2.5537499999988,229.974029541016
0.128837701666667, 226.834814386539, -0.000829019197026777, 2.56749999999961,230.300537109375
0.129504098333333, 226.845378473278, -0.000910603099153973, 2.58125000000042,225.185531616211
0.130171286666667, 226.854528250787, -0.00071296852612848, 2.59374999999906,221.460494995117
0.13083724, 226.864488717429, -0.000569526231059478, 2.60624999999948,226.436447143555
0.131503956666667, 226.874345583426, -0.000355522980236945, 2.62000000000029,226.436447143555
0.132171355, 226.883832868034, -0.000579217244329255, 2.63374999999932,239.441467285156
0.132837223333333, 226.893109896698, -0.000551284147385212, 2.64750000000014,227.526458740234
0.133504123333333, 226.902668126881, -0.000645612909356063, 2.66124999999917,271.757568359375
0.134171346666667, 226.911997943003, -0.000641480616923702, 2.67374999999959,223.501708984375
0.134837461666667, 226.921105484911, -0.000376478427688057, 2.6875000000004,229.879241943359
0.135504401666667, 226.930605233819, -0.000419017790957754, 2.70124999999943,229.879241943359
0.136170828333333, 226.940429589551, -0.000575051953560023, 2.71500000000025,225.034057617188
0.136837355, 226.950404167881, -0.000784697923268453, 2.72874999999928,227.510986328125
0.137504101666667, 226.960372023383, -0.000870591108950102, 2.7412499999997,231.081176757813
0.138171331666667, 226.970213242177, -0.000988206201234792, 2.75500000000051,231.081176757813
0.138837453333333, 226.980269115448, -0.000731419099401069, 2.76749999999915,227.285400390625
0.139504098333333, 226.989378824336, -0.000230951237358462, 2.78124999999996,227.328979492188
0.140171353333333, 226.999102521354, 6.62843327867515E-05, 2.79375000000037,225.377807617188
0.140837438333333, 227.008033496683, 0.000169117667569352, 2.80749999999941,229.06901550293
0.141504416666667, 227.018388153642, -0.000122026708554034, 2.82125000000022,229.06901550293
