Time (min), Depth (µm), Load (N), Position (µm), Acoustic (aJ)
8.51666666666667E-06, 223.278969088408, 0.000306654836671285, 0,241.173400878906
0.000664571666666667, 223.279322807312, -1.41685487203475E-05, 0.00625000000020748,241.173400878906
0.00133108166666667, 223.279089481385, 8.55089445651922E-05, 0.0187499999988461,236.013153076172
0.00199757833333333, 223.278261195067, 4.01107248515335E-05, 0.0374999999994685,253.839477539063
0.00283117, 223.278301257447, 0.000145396436458543, 0.0512500000002802,269.710113525391
0.003497395, 223.278434294079, 9.96187358496058E-05, 0.0662499999997124,273.958282470703
0.00416417333333333, 223.278599375495, 3.72218700045229E-05, 0.0787500000001273,274.906982421875
0.00483087666666667, 223.279689182079, 0.000288466750211774, 0.0937499999995595,274.906982421875
0.00549751833333333, 223.282571918638, 7.72443597004711E-05, 0.107500000000371,271.827880859375
0.00616439, 223.286952958318, 0.000106641383138397, 0.121249999999407,277.802825927734
0.0068309, 223.293289278422, -5.04352271154234E-05, 0.135000000000218,277.982452392578
0.007497385, 223.301891151547, 0.000141477133333953, 0.147499999998857,283.776550292969
0.00816421, 223.311791024693, 0.000131237147690076, 0.161249999999669,283.776550292969
0.00883084666666667, 223.322192915684, 8.43735015793851E-05, 0.178749999999894,281.125549316406
0.00966441166666667, 223.332088929161, 3.20171313900379E-05, 0.191250000000309,280.337738037109
0.01033133, 223.342759479522, -2.96867692744694E-05, 0.204999999999345,278.928375244141
0.0109974133333333, 223.353416032096, -0.000435276896908364, 0.218750000000156,278.928375244141
0.0116641583333333, 223.36431659539, -0.00069782820922275, 0.231249999998795,284.449371337891
0.0123317916666667, 223.374783042109, -0.000740006090626245, 0.244999999999607,284.449371337891
0.01299738, 223.385594384136, -0.000631531539185303, 0.257500000000022,279.293212890625
0.01366426, 223.395915640636, -0.000486061345983031, 0.271249999999057,276.073211669922
0.0143310016666667, 223.406618961217, -0.000278123790488723, 0.284999999999869,272.850402832031
0.0149974483333333, 223.416803353514, -0.000267027347861807, 0.297500000000284,274.781799316406
0.015664495, 223.427620756953, -0.000268905253576006, 0.311249999999319,274.781799316406
0.0163310483333333, 223.43859483675, -0.000393610489726379, 0.323749999999734,269.682830810547
0.0169974516666667, 223.449965114332, -0.000329347717583578, 0.337500000000546,273.000915527344
0.01766483, 223.460969109941, -0.000171770132515308, 0.351249999999581,266.548309326172
0.01833167, 223.472648458237, -6.45090201291423E-05, 0.363749999999996,262.976989746094
0.01899762, 223.483889213231, 0.000183035545980157, 0.377499999999031,262.976989746094
0.0196643766666667, 223.495737807733, 0.000376446331120929, 0.389999999999446,261.561676025391
0.02033095, 223.507263103834, 0.000216375871290616, 0.403750000000258,262.618804931641
0.020997435, 223.519228047076, 9.95707382899557E-05, 0.417499999999293,255.759521484375
0.0216648283333333, 223.531464086343, -0.000328189775752976, 0.429999999999708,261.813812255859
0.0223309033333333, 223.543491641439, -0.000530442616802502, 0.44375000000052,261.813812255859
0.02299755, 223.555225155072, -0.000531276574898238, 0.456249999999159,261.897003173828
0.023664845, 223.566888113837, -0.000437565781887801, 0.468749999999574,310.980163574219
0.0243308283333333, 223.578172861832, -0.000414411444921447, 0.483749999999006,258.047607421875
0.0249974633333333, 223.589394188496, -1.12016977406052E-05, 0.496249999999421,263.295715332031
0.0256648266666667, 223.601067171751, 0.000170607170206845, 0.508749999999836,263.295715332031
0.0263315, 223.613400916202, 0.00019743332277125, 0.522499999998871,261.213439941406
0.0269980983333333, 223.625854183116, 6.59694260908215E-05, 0.536249999999683,263.107208251953
0.02766426, 223.639222146247, 0.000111255151452982, 0.548750000000098,267.016387939453
0.028331645, 223.652250122377, 4.27385930011561E-05, 0.561250000000513,269.038726806641
0.028997525, 223.665444908837, -2.36615717988613E-05, 0.574999999999548,269.038726806641
0.0296645216666667, 223.678040292171, -0.000262221589202351, 0.58875000000036,273.887023925781
0.0303317183333333, 223.69047103838, -0.000142848585198231, 0.602499999999395,271.477691650391
0.0309974166666667, 223.702219981725, -0.000227186348997399, 0.613749999999413,273.216827392578
0.0316649383333333, 223.714240358346, -0.00021549743614618, 0.627500000000225,276.824584960938
0.032330955, 223.726181905101, -0.000167340855008594, 0.64124999999926,276.824584960938
0.0329977366666667, 223.737750542684, -0.000280166687866026, 0.653749999999675,277.300567626953
0.03366503, 223.749488065633, -0.000312964040499998, 0.667500000000487,272.083312988281
0.03433153, 223.76070041023, -0.00012433051534875, 0.681249999999523,273.407318115234
0.0349974316666667, 223.77215128587, -1.6542929369516E-05, 0.693749999999937,270.856781005859
0.0356645866666667, 223.782987912746, 3.0451210143004E-05, 0.707499999998973,270.856781005859
0.03633133, 223.79471363097, 0.000126387891329196, 0.719999999999388,267.939208984375
0.0369974383333333, 223.806194294487, 0.000123115055707427, 0.7337500000002,270.633514404297
0.0376651566666667, 223.818539332577, -4.12655307644617E-06, 0.747499999999235,273.65283203125
0.038331615, 223.831810773534, -8.51989808971152E-05, 0.762500000000443,256.174346923828
0.0389974166666667, 223.84923986693, -5.9226285466942E-05, 0.773750000000462,256.174346923828
0.03966469, 223.864916421258, -7.15391669974413E-05, 0.787499999999497,315.315368652344
0.0403307983333333, 223.880857053715, -0.000191227155190008, 0.801250000000309,266.15380859375
0.040997535, 223.895866046746, -0.000334727947310736, 0.814999999999344,265.861419677734
0.0416649833333333, 223.910061962806, -0.000347631799162389, 0.828750000000156,260.831512451172
0.0423314366666667, 223.920349428901, -0.000584795386712651, 0.841249999998794,260.831512451172
0.0429974483333333, 223.931713994748, -0.000699743612962013, 0.854999999999606,262.883453369141
0.043664895, 223.943548398603, -0.000540565608300417, 0.868750000000418,267.519561767578
0.04433128, 223.955997777873, -0.00056139656198355, 0.882499999999453,265.963531494141
0.04499743, 223.967754862084, -0.000638525687889178, 0.894999999999868,272.213562011719
0.0456641283333333, 223.979939824072, -0.000690166594010646, 0.908749999998903,272.213562011719
0.04633239, 223.991634470839, -0.000623265454396178, 0.922499999999715,265.101959228516
0.0469974233333333, 224.003648730009, -0.000589409154984728, 0.93500000000013,262.044006347656
0.04766488, 224.015618823222, -0.000510657110598473, 0.948749999999166,267.505523681641
0.0483310333333333, 224.027933522845, -0.000217225349335036, 0.962499999999977,263.145233154297
0.0489974833333333, 224.03985192838, 9.09731701652032E-05, 0.975000000000392,263.145233154297
0.04966505, 224.052312413247, 0.000431633059190576, 0.988749999999428,270.542755126953
0.05033116, 224.063981766345, 0.000380827611089247, 1.00250000000024,261.887237548828
0.0509975266666667, 224.075737513308, 0.000250766143917151, 1.01499999999888,264.953002929688
0.0516648016666667, 224.087512961389, -0.000111725148538361, 1.02874999999969,265.845703125
0.052331325, 224.099943319067, -0.000462526028196996, 1.0425000000005,265.845703125
0.0529975533333333, 224.1116619407, -0.000810061571834624, 1.05624999999954,271.281372070313
0.0536643383333333, 224.124081709215, -0.000732161484658198, 1.06874999999995,259.385711669922
0.0543309966666667, 224.13596932148, -0.000625252854549307, 1.08374999999938,270.186737060547
0.0549977583333333, 224.148468864377, -0.000352278565750084, 1.0949999999994,266.991394042969
0.0556642366666667, 224.160460333, -0.000529893644322131, 1.10875000000021,266.991394042969
0.056331195, 224.17331020349, -0.000602876978454514, 1.12249999999925,319.376617431641
0.05699749, 224.185070503298, -0.000936652213299959, 1.13625000000006,264.674743652344
0.0576649, 224.197329504399, -0.00111828559000721, 1.1499999999991,265.543121337891
0.0583309383333333, 224.208676405788, -0.00142377074583687, 1.16249999999951,268.454010009766
0.0589977066666667, 224.220145558404, -0.00111692365847902, 1.17499999999993,268.454010009766
0.0596648783333333, 224.231604310902, -0.00129987996878625, 1.18874999999896,271.343994140625
0.0603310983333333, 224.243357267848, -0.00107923355159146, 1.20249999999977,268.401062011719
0.0609979433333333, 224.254771885823, -0.00104617071235936, 1.21500000000019,274.007995605469
0.0616649733333333, 224.266376238993, -0.000977460663574501, 1.22749999999883,274.264892578125
0.0623311833333333, 224.278370492074, -0.00136437072948085, 1.24250000000004,274.264892578125
0.0629975283333333, 224.289505723959, -0.00137012744029699, 1.25500000000045,268.567352294922
0.063665185, 224.300493953093, -0.00168924241149576, 1.26874999999949,264.958312988281
0.0643313583333333, 224.31140130199, -0.00157498715036321, 1.2812499999999,268.763488769531
0.064997975, 224.321963868301, -0.00175236374093388, 1.29499999999894,263.978973388672
0.0656643, 224.332424832334, -0.00170658304041238, 1.30749999999935,263.978973388672
0.0663308133333333, 224.343142071818, -0.00152281977066992, 1.32125000000016,264.352020263672
0.0669974666666667, 224.353844630615, -0.00143336276401102, 1.3337499999988,259.884185791016
0.0676643633333333, 224.364615496058, -0.00147619311267871, 1.34875000000001,258.841369628906
0.0683309516666667, 224.375471865371, -0.00144119387063818, 1.36125000000042,259.400115966797
0.06899753, 224.385660925565, -0.00131377227090467, 1.37374999999906,259.400115966797
0.0696641733333333, 224.396392624696, -0.00146680658412656, 1.38749999999987,264.158172607422
0.0703307933333333, 224.406888738095, -0.0013076465785578, 1.40124999999891,257.292144775391
0.0709977383333333, 224.417665278519, -0.00120303283321098, 1.41374999999933,257.030334472656
0.0716650866666667, 224.428107363841, -0.00111092695960958, 1.42624999999974,257.902923583984
0.0723310216666667, 224.439128950807, -0.00104079648218104, 1.44000000000055,257.902923583984
0.0729979566666667, 224.450285024778, -0.000904943805974039, 1.45249999999919,306.316528320313
0.073665135, 224.46194535915, -0.000913116895471416, 1.4675000000004,264.045715332031
0.0743309466666667, 224.473652895458, -0.00109820759854455, 1.47999999999904,263.693908691406
0.07499773, 224.48512368547, -0.0012445807463651, 1.49249999999945,264.529693603516
0.075664535, 224.495533199202, -0.00115917353629638, 1.50499999999987,264.529693603516
0.0763310283333333, 224.505275006548, -0.000862104457781183, 1.5199999999993,257.780822753906
0.0769975783333333, 224.515056608927, -0.00090793315581983, 1.53375000000011,258.283264160156
0.07766467, 224.524272127442, -0.000983169376767226, 1.54749999999915,254.449951171875
0.07833132, 224.534520729193, -0.000878413138580838, 1.55999999999956,251.245498657227
0.078997485, 224.54588190943, -0.0012598634787029, 1.57375000000037,251.245498657227
0.0796642833333333, 224.557327149615, -0.00143230381723354, 1.58624999999901,256.368988037109
0.0803309716666667, 224.568442480846, -0.00166930391298134, 1.59999999999982,251.082427978516
0.0809983383333333, 224.580091312537, -0.0017919602520568, 1.61250000000024,251.116821289063
0.08166432, 224.591131236644, -0.0016123952714417, 1.62624999999927,251.040130615234
0.08233094, 224.601112194585, -0.00120752210780009, 1.63874999999969,251.040130615234
0.0829977083333333, 224.611052421854, -0.000976796196915079, 1.65374999999912,247.672439575195
0.08366418, 224.621836128935, -0.00100462129928083, 1.66624999999954,254.560943603516
0.0843317133333333, 224.631444492091, -0.000644709877287769, 1.68000000000035,253.420822143555
0.0849975683333333, 224.641758912283, -0.000648585682604664, 1.69249999999899,259.022796630859
0.08566489, 224.651590165024, -0.000647231250613473, 1.7062499999998,259.022796630859
0.0863312266666667, 224.661972999911, -0.000916602720337193, 1.71999999999883,248.519821166992
0.0869979083333333, 224.671842234313, -0.000736263778581239, 1.73374999999965,253.369384765625
0.0876642883333333, 224.681698520769, -0.000512464519780702, 1.74750000000046,259.516174316406
0.0883308633333333, 224.691137523827, -0.000677087250982558, 1.7599999999991,256.051727294922
0.0889974433333333, 224.701672069004, -0.000928995097903573, 1.77374999999991,256.051727294922
0.08966492, 224.710866668565, -0.000932087942554444, 1.78749999999894,308.498352050781
0.090330875, 224.720020906238, -0.00100268939630937, 1.79999999999936,258.579010009766
0.0909977166666667, 224.729328585273, -0.00105710966283892, 1.81375000000017,248.229705810547
0.091664315, 224.738786270435, -0.00118031497435224, 1.8274999999992,255.541778564453
0.092331145, 224.747502347116, -0.000995512256807045, 1.83999999999962,255.541778564453
0.09299777, 224.756653174268, -0.00083648574457394, 1.85375000000043,256.38134765625
0.0936645683333333, 224.765392317604, -0.00085648573998889, 1.86749999999947,254.532958984375
0.09433132, 224.774054881004, -0.00102223791445769, 1.88125000000028,248.223602294922
0.09499746, 224.781876748805, -0.000669602626956309, 1.89374999999892,250.878982543945
0.09566448, 224.790275582449, -0.000941583965609288, 1.90749999999973,250.878982543945
0.0963308783333333, 224.798205814502, -0.00116494524639906, 1.92000000000014,247.964920043945
0.0969977166666667, 224.806691894265, -0.001192084883185, 1.93374999999918,242.752380371094
0.09766479, 224.81440900233, -0.00131190186491875, 1.94749999999999,236.410568237305
0.0983308833333333, 224.822505039701, -0.00159382620418377, 1.96000000000041,249.596939086914
0.098997995, 224.829876137231, -0.00134815954376741, 1.97374999999944,249.596939086914
0.0996650783333333, 224.837633938672, -0.0012553457056989, 1.98624999999986,237.770721435547
0.100330935, 224.844632497506, -0.00111943903212837, 1.99999999999889,235.920394897461
0.100997528333333, 224.852368711278, -0.00099223942120653, 2.0137499999997,238.348373413086
0.101665336666667, 224.859834213442, -0.000960880496330332, 2.02625000000012,236.060317993164
0.102331516666667, 224.867552088317, -0.0010401395152499, 2.03875000000053,236.060317993164
0.102997448333333, 224.875259690445, -0.00102448480159634, 2.05374999999997,228.488922119141
0.103664258333333, 224.883280046368, -0.0013874260714791, 2.06625000000038,233.783554077148
0.104331233333333, 224.891391137337, -0.00127805906486944, 2.07874999999902,234.633880615234
0.104997671666667, 224.899124720843, -0.00117871755469274, 2.09249999999983,233.852066040039
0.105664458333333, 224.907444415922, -0.00116123293290588, 2.10500000000025,233.852066040039
0.106330956666667, 224.915865839266, -0.00102609422077859, 2.11874999999928,275.402130126953
0.106997386666667, 224.924258960094, -0.000670919560837419, 2.1312499999997,231.701919555664
0.107664478333333, 224.932479959163, -0.000817673689520166, 2.14500000000051,229.432540893555
0.108331388333333, 224.941397819848, -0.000648623180735999, 2.15749999999915,232.980407714844
0.108998001666667, 224.949659650797, -0.000383638990635702, 2.17250000000035,232.980407714844
0.10966499, 224.958098788946, -0.000382220061937679, 2.18499999999899,234.637985229492
0.110330876666667, 224.966212885989, -0.000387177312961864, 2.19749999999941,231.21354675293
0.11099793, 224.974747731071, -0.000289862201015283, 2.21125000000022,231.71044921875
0.111665286666667, 224.982392116493, -0.000425692378398743, 2.22374999999886,226.912078857422
0.112331355, 224.990787346665, -0.000349419709454901, 2.23749999999967,226.912078857422
0.112999198333333, 224.998992743794, -0.000886881713313181, 2.25125000000048,229.909088134766
0.11366463, 225.007250514293, -0.00108215690480601, 2.26374999999912,232.889251708984
0.114332338333333, 225.020144066332, -0.00183244471863898, 2.27749999999993,236.601821899414
0.114997491666667, 225.024801470721, -0.00181167826170519, 2.29000000000035,237.040435791016
0.11566468, 225.032082449715, -0.00176217774806849, 2.30374999999938,237.040435791016
0.116331415, 225.039768278376, -0.00140379474927614, 2.31750000000019,243.995452880859
0.116999078333333, 225.047212620918, -0.00107303136314254, 2.32999999999883,247.327239990234
0.117664683333333, 225.055046657681, -0.000657102254832895, 2.34374999999964,247.526824951172
0.118332398333333, 225.061822804349, -0.000247418832801124, 2.35750000000046,253.126068115234
0.118997533333333, 225.070626920103, -0.000468932206428524, 2.3699999999991,253.126068115234
0.119664433333333, 225.079082971283, -5.88153061804495E-05, 2.38374999999991,253.052337646484
0.120332451666667, 225.088306260771, -0.000200567186149422, 2.39749999999894,254.591339111328
0.120999035, 225.097142807925, -0.000292730056941902, 2.40999999999936,251.149032592773
0.121665106666667, 225.107169777305, -0.000308957741845036, 2.42249999999977,299.874938964844
0.122331665, 225.117170756355, -0.00027339152829506, 2.43624999999881,299.874938964844
0.122998868333333, 225.127485728768, -0.000853604384806404, 2.44999999999962,245.599578857422
0.123664403333333, 225.138259159592, -0.000957405171020393, 2.46375000000043,250.897827148438
0.124330936666667, 225.149263698607, -0.0010906944760184, 2.47749999999947,248.398483276367
0.124998878333333, 225.160313495763, -0.00130772157496925, 2.48999999999988,244.809204101563
0.125665578333333, 225.171198026834, -0.00162312573253548, 2.50374999999892,244.809204101563
0.126332326666667, 225.182525986076, -0.00176150278198075, 2.51749999999973,239.824005126953
0.126997471666667, 225.193052388101, -0.00146162884434262, 2.53125000000054,245.930023193359
0.12766423, 225.204237348077, -0.00166818496924898, 2.54374999999918,241.261688232422
0.12833171, 225.215653623475, -0.00167187778372492, 2.55749999999999,248.483291625977
0.128997651666667, 225.226744401085, -0.00175092381333672, 2.57000000000041,248.483291625977
0.129664303333333, 225.23702152936, -0.00140385324632787, 2.58374999999944,242.759674072266
0.130331821666667, 225.247533469907, -0.00129891101747297, 2.59750000000025,241.58056640625
0.130997475, 225.257511980536, -0.000926685213982491, 2.60999999999889,244.444259643555
0.13166415, 225.267658790531, -0.00098089549107433, 2.6237499999997,242.209533691406
0.132331123333333, 225.278140217295, -0.00100217042246584, 2.63750000000051,242.209533691406
0.13299755, 225.289149732778, -0.0011398575066006, 2.65124999999955,242.447570800781
0.133664276666667, 225.299951339959, -0.00148450869512192, 2.66500000000036,248.117172241211
0.134331673333333, 225.310780193361, -0.00177933388636853, 2.6787499999994,244.322296142578
0.134997735, 225.320916698452, -0.00121937901233325, 2.69124999999981,243.357727050781
0.135664848333333, 225.331632919232, -0.00099498578338401, 2.70375000000023,243.357727050781
0.136331061666667, 225.341827492151, -0.000564601901113444, 2.71749999999926,239.919586181641
0.136997996666667, 225.352313252748, -5.60119470244246E-05, 2.73125000000007,244.004028320313
0.137664401666667, 225.362704265715, 0.000203101537962579, 2.74499999999911,244.725509643555
0.138331456666667, 225.373507537846, 7.29755740623977E-05, 2.75749999999952,287.878845214844
0.138998318333333, 225.383317641897, 0.000237691300577256, 2.77125000000034,287.878845214844
0.139664666666667, 225.393881211952, 5.85994523700993E-06, 2.78374999999897,256.13720703125
0.140330916666667, 225.404342849536, -0.000214240499347471, 2.79749999999979,250.733947753906
0.140997441666667, 225.414950847786, -9.94392656896287E-05, 2.81124999999882,247.318344116211
0.141664171666667, 225.424895202499, -8.93807709197997E-05, 2.82374999999924,247.66389465332
0.142330986666667, 225.436067419225, 0.000114868469850528, 2.83750000000005,247.66389465332
0.142998005, 225.446526145549, 0.000177677814970269, 2.85124999999908,253.378601074219
