Time (min), Depth (µm), Load (N), Position (µm), Acoustic (aJ)
8.77833333333333E-06, 224.528850376915, -0.000289572192244038, 0,222.375427246094
0.000668018333333333, 224.528394180382, -0.000155460928545523, 0.00499999999981071,219.787414550781
0.00133289333333333, 224.527277673833, -0.000104745475950898, 0.0175000000002257,219.787414550781
0.00199974333333333, 224.526344549183, -0.000310464642891467, 0.0324999999996578,270.566711425781
0.002666165, 224.525330996829, -0.000629266129804935, 0.0474999999990899,248.391265869141
0.00333286833333333, 224.524871412927, -0.000936365204526299, 0.0612499999999017,256.105041503906
0.00416638166666667, 224.523970418495, -0.000868403618146187, 0.0787500000001273,256.459655761719
0.00483285, 224.526010327078, -0.00114305782253211, 0.0924999999991627,257.715087890625
0.00549953166666667, 224.5299152871, -0.00111050495763963, 0.106249999999974,257.715087890625
0.006166185, 224.535039172632, -0.00109485924348998, 0.118750000000389,252.734878540039
0.00683287666666667, 224.542119083022, -0.00110283434292361, 0.133749999999822,252.406051635742
0.00750121166666667, 224.551059039536, -0.00124527768817001, 0.146250000000236,252.081481933594
0.00816637166666667, 224.560490727502, -0.00118713310873081, 0.159999999999272,252.029876708984
0.00883284833333333, 224.57003033492, -0.000998555080824987, 0.173750000000084,252.029876708984
0.00949950333333333, 224.579833637924, -0.000964623785172119, 0.187499999999119,253.914916992188
0.0101661833333333, 224.589803817231, -0.000951299954402537, 0.199999999999534,261.336608886719
0.0108328766666667, 224.599678753618, -0.000847649160650128, 0.213750000000346,253.678146362305
0.0114995283333333, 224.609579721894, -0.000860649007642336, 0.227499999999381,256.344299316406
0.0121661666666667, 224.619865153992, -0.000588432180815537, 0.239999999999796,256.344299316406
0.0128328416666667, 224.630738550813, -0.000683266417352793, 0.253749999998831,258.177062988281
0.01349951, 224.64150665074, -0.000668648151610659, 0.266249999999246,256.359069824219
0.0141663216666667, 224.65234791727, -0.000754371845792232, 0.280000000000058,250.70491027832
0.01483341, 224.663809699781, -0.000996722172800378, 0.292500000000473,252.475387573242
0.0154998466666667, 224.675356883182, -0.00138149484604951, 0.306249999999508,252.475387573242
0.0161661733333333, 224.686749530519, -0.00141803001093403, 0.318749999999923,253.243286132813
0.0168328383333333, 224.698987359843, -0.00146562412031412, 0.332499999998959,254.136672973633
0.01749972, 224.710923515323, -0.00158567209042723, 0.34624999999977,246.514511108398
0.01816623, 224.722984701169, -0.00137321976167146, 0.359999999998806,297.659118652344
0.0188328716666667, 224.734960191423, -0.00134305777670286, 0.372499999999221,297.659118652344
0.019499755, 224.747513186643, -0.00106567670924172, 0.386250000000032,249.202285766602
0.020166165, 224.759179382377, -0.000821541471896137, 0.398750000000447,244.510162353516
0.0208328916666667, 224.771605062734, -0.000257392808485463, 0.412499999999483,240.466171264648
0.021500105, 224.784037135089, -0.000181043643439563, 0.424999999999898,237.299087524414
0.0221663, 224.796649157659, 3.02012459377892E-05, 0.438749999998933,237.299087524414
0.0228328516666667, 224.809084547047, 7.62774315667368E-05, 0.452499999999745,240.691299438477
0.023500095, 224.821893408119, -0.000170562169945507, 0.46500000000016,242.385330200195
0.0241679183333333, 224.835019807057, -0.000399308180299407, 0.477499999998798,243.934906005859
0.0248329166666667, 224.847845995494, -0.000362309538689271, 0.492500000000007,239.271148681641
0.025499515, 224.861053321939, -0.000205916894133369, 0.505000000000422,239.271148681641
0.02616628, 224.87419206569, -8.91777578277061E-05, 0.518749999999457,246.559722900391
0.0268328566666667, 224.887218450222, 4.6526425884626E-05, 0.531249999999872,241.56379699707
0.0274995616666667, 224.900114951084, 6.66329159959693E-05, 0.543750000000287,248.395797729492
0.0281670633333333, 224.913435969493, -0.000141601624572692, 0.557499999999322,250.376907348633
0.02883504, 224.925886494218, -0.000198483267451815, 0.569999999999737,250.376907348633
0.0295002933333333, 224.938257546616, -0.000191366124946873, 0.583750000000549,252.582046508789
0.0301661833333333, 224.951074016509, -0.000202092086161168, 0.597499999999584,248.543167114258
0.03083283, 224.96381956336, -0.000200142184139376, 0.609999999999999,258.549835205078
0.0314996133333333, 224.976429214741, -0.00012826879425669, 0.623749999999035,258.771789550781
0.0321661966666667, 224.988972931474, 4.49920030500605E-05, 0.637499999999847,258.771789550781
0.032832845, 225.001789516612, 0.000242260594478651, 0.650000000000261,253.469985961914
0.0334995216666667, 225.014563818925, 0.000292952048282825, 0.663749999999297,256.733245849609
0.0341661983333333, 225.026757812472, 0.000353072028564951, 0.676249999999712,302.669097900391
0.0348329633333333, 225.038885295534, 0.000599142168730799, 0.690000000000524,256.051971435547
0.0354995333333333, 225.051344946797, 0.000388740236995602, 0.703749999999559,256.051971435547
0.0361662416666667, 225.063756579639, 9.86683069905779E-05, 0.716249999999974,254.973083496094
0.0368328583333333, 225.075766153855, 7.68219043376605E-05, 0.728750000000389,252.378387451172
0.0374994983333333, 225.088368108329, -4.24206062646301E-05, 0.742499999999424,247.136383056641
0.0381661733333333, 225.102398131016, 4.24301317654683E-05, 0.75999999999965,244.260147094727
0.0388329433333333, 225.11988061916, 0.000116194926660728, 0.769999999999271,244.260147094727
0.0395000316666667, 225.136026086863, 0.000150940681434597, 0.783750000000083,241.015686035156
0.0401667583333333, 225.15255026807, -0.000114988461209786, 0.796250000000498,247.736679077148
0.04083364, 225.168409331942, -0.000141379635612231, 0.809999999999533,248.925765991211
0.0414995083333333, 225.183436682297, -0.00046787573601091, 0.823750000000345,241.606231689453
0.0421662866666667, 225.194450622623, -0.000528513190275923, 0.83749999999938,241.606231689453
0.042832895, 225.206672276077, -0.000400262132177371, 0.849999999999795,238.359848022461
0.0434995883333333, 225.219029005905, -0.000136344388476568, 0.863749999998831,239.283386230469
0.0441663016666667, 225.231825780202, -0.000241801091508057, 0.877499999999642,240.95979309082
0.0448328416666667, 225.244228768383, 6.43155325378869E-05, 0.891250000000454,247.098922729492
0.0454998633333333, 225.257005948081, 1.01532530482059E-05, 0.903749999999093,247.098922729492
0.0461677433333333, 225.270178579423, -0.000293954971924218, 0.917499999999905,240.696197509766
0.0468332666666667, 225.283216353522, -0.000590644569522883, 0.93124999999894,251.389175415039
0.0475010016666667, 225.296143805039, -0.000518820677188013, 0.943749999999355,249.107208251953
0.04816794, 225.309002595108, -0.00068348690617631, 0.957500000000167,249.107208251953
0.0488343233333333, 225.322046124716, -0.000775312293871787, 0.972499999999599,240.491241455078
0.049499795, 225.334630862088, -0.000792619924536553, 0.985000000000014,243.862045288086
0.0501664183333333, 225.347399869787, -0.000470865085941718, 0.998749999999049,246.202682495117
0.0508329416666667, 225.360530806639, -0.000580853061339342, 1.01249999999986,293.107666015625
0.0514997833333333, 225.373303223199, -0.000561193548827694, 1.02374999999988,245.157760620117
0.0521662083333333, 225.386043031375, -0.0002166458550902, 1.03874999999931,245.157760620117
0.05283484, 225.398718726255, -0.000160248687878345, 1.05250000000012,244.646408081055
0.0534995416666667, 225.411520650832, 3.87373172682787E-05, 1.06375000000014,242.766326904297
0.054166675, 225.42373218318, 0.000488341234136576, 1.07749999999918,243.682220458984
0.0548328983333333, 225.436581250826, 0.000565573854847282, 1.09124999999999,242.701034545898
0.0555001666666667, 225.44957962067, 0.000412007068377216, 1.10499999999902,242.701034545898
0.056166195, 225.462715181681, 0.000496412328817039, 1.11874999999984,243.99446105957
0.0568329383333333, 225.475982172887, 0.000204739979218689, 1.12999999999985,241.813430786133
0.05750006, 225.489705604067, 0.000241192648239769, 1.14499999999929,247.349060058594
0.0581664666666667, 225.502971226534, 0.000188707284509234, 1.1587500000001,245.385467529297
0.0588329983333333, 225.515993761774, 0.000270550673600702, 1.17125000000051,245.385467529297
0.0595000866666667, 225.529070105382, 0.000380891131318108, 1.18499999999955,246.357696533203
0.060166195, 225.541787561185, 0.000636611786752336, 1.19749999999996,247.047164916992
0.0608333066666667, 225.554612806145, 0.000335368417857725, 1.211249999999,253.406814575195
0.06149951, 225.567316273142, 0.000174915477240819, 1.22374999999941,249.662628173828
0.0621663433333333, 225.580407253154, 8.92772787714857E-05, 1.23750000000022,249.662628173828
0.06283447, 225.592627609335, -0.000246834838698062, 1.25124999999926,253.516189575195
0.063499515, 225.604759416311, -0.000385822357502986, 1.26374999999967,248.361557006836
0.064166185, 225.615931574941, -0.000282666538888669, 1.27750000000049,251.112579345703
0.0648340016666667, 225.627551625659, -7.29380733593138E-05, 1.28999999999913,239.826766967773
0.0654999583333333, 225.6387625367, -0.000402263031735144, 1.30374999999994,239.826766967773
0.0661667833333333, 225.650513937566, -0.000266330859428501, 1.31749999999897,242.868713378906
0.0668328816666667, 225.661618034446, -0.000301874574091174, 1.32999999999939,242.163360595703
0.0674995183333333, 225.673833644217, -0.000372260038710778, 1.3424999999998,290.729736328125
0.06816623, 225.685508827343, -0.000229507708973546, 1.35624999999884,239.891036987305
0.0688329683333333, 225.69704818544, 0.00040200107100401, 1.36999999999965,239.891036987305
0.0695010516666667, 225.708842405932, 0.00073778020512851, 1.38250000000006,243.589859008789
0.07016651, 225.7211590321, 0.000673542931721818, 1.3962499999991,239.939041137695
0.0708334083333333, 225.733266212465, 0.00103208342259776, 1.40999999999991,245.151824951172
0.0714995116666667, 225.745917460528, 0.00095610023917002, 1.42250000000033,243.229614257813
0.0721662983333333, 225.758094104862, 0.000841369501980385, 1.43499999999896,243.229614257813
0.0728336133333333, 225.770327188071, 0.000798306664966427, 1.44874999999978,241.391098022461
0.0734995683333333, 225.782126784623, 0.000842756932265939, 1.46125000000019,246.089050292969
0.074166195, 225.793795014438, 0.000450565631600536, 1.47499999999923,244.82405090332
0.0748328866666667, 225.805150624109, 0.000330793647620133, 1.48749999999964,241.976623535156
0.07549952, 225.815285256201, 6.31170927271429E-05, 1.50125000000045,241.976623535156
0.07616689, 225.825047756649, 0.000266716866103335, 1.51499999999949,238.550109863281
0.0768350716666667, 225.835424407057, 0.000113721550894673, 1.5287500000003,226.153518676758
0.0774995466666667, 225.845802251612, 5.58184593056444E-05, 1.54124999999894,226.699890136719
0.0781664566666667, 225.855686379963, 0.000434181954495701, 1.55499999999975,229.413391113281
0.07883317, 225.867238553137, 0.000778654652013033, 1.56875000000056,229.413391113281
0.0795001566666667, 225.878771081959, 0.000854210356943339, 1.5824999999996,223.373641967773
0.08016807, 225.8901599716, 0.00117873105662663, 1.59500000000001,224.662261962891
0.08083302, 225.901084122592, 0.0013456996699565, 1.60874999999905,226.801910400391
0.0814995833333333, 225.912546774025, 0.00100707367880451, 1.62124999999946,224.060821533203
0.08216643, 225.924280085182, 0.0006936959194259, 1.63500000000028,224.060821533203
0.0828330333333333, 225.935608412046, 0.000216727377068665, 1.64874999999931,224.153610229492
0.08349956, 225.946523799088, 9.07832031061516E-05, 1.66250000000012,232.227752685547
0.08416682, 225.957978873261, 0.000115572457969613, 1.67500000000054,268.316741943359
0.0848335183333333, 225.968910486489, 0.00028761831627593, 1.68874999999957,223.438751220703
0.0855008416666667, 225.979899413964, 2.05552305701432E-05, 1.70250000000038,223.438751220703
0.0861662833333333, 225.990899398129, 7.32190853259205E-05, 1.71624999999942,224.556732177734
0.0868354383333333, 226.002049052354, 4.61169466288073E-05, 1.72874999999983,227.531112670898
0.0874995166666667, 226.012859835821, -1.55554556232316E-05, 1.74249999999887,222.881439208984
0.0881661883333333, 226.024427129962, -0.000382150541926188, 1.75499999999928,229.392333984375
0.0888328516666667, 226.035326311057, -0.000361264091040134, 1.7687500000001,229.392333984375
0.0894998316666667, 226.046661590826, -0.000294389950086179, 1.78249999999913,219.485565185547
0.09016824, 226.057810395738, -0.000365352885686055, 1.79499999999955,220.190017700195
0.09083341, 226.069050463813, -0.000165750411524675, 1.80875000000036,221.793212890625
0.0914997933333333, 226.080015170471, 0.000178858779113353, 1.82249999999939,224.170181274414
0.09216632, 226.090899854857, 0.000394442950575731, 1.83625000000021,224.170181274414
0.0928328716666667, 226.101648814257, 0.000164963477103621, 1.84874999999884,225.442138671875
0.09350017, 226.112860623576, 0.000240174199357416, 1.86249999999966,224.176345825195
0.0941667033333333, 226.123719254864, 6.7784858277737E-05, 1.87625000000047,220.858612060547
0.0948329016666667, 226.134849976561, -6.55584440200393E-05, 1.8899999999995,221.246017456055
0.0954995366666667, 226.145749749452, -6.14126522467954E-05, 1.90249999999992,221.246017456055
0.096166395, 226.156566509299, -9.0419150171732E-07, 1.91624999999895,223.404022216797
0.09683308, 226.166944217261, -2.73163648883156E-05, 1.92999999999977,213.95539855957
0.0974994983333333, 226.177413949668, 0.000112661104214046, 1.94250000000018,210.922927856445
0.0981664966666667, 226.187349087658, 0.000164080021481324, 1.95624999999922,212.47673034668
0.0988332783333333, 226.197656344103, 0.000564211923255329, 1.96874999999963,212.47673034668
0.0994995066666667, 226.208104401082, 0.00100680519223006, 1.98250000000044,203.50813293457
0.100167175, 226.219104357056, 0.00109315135518776, 1.99624999999948,209.576965332031
0.100833785, 226.23001983313, 0.00111471577201036, 2.00874999999989,251.329208374023
0.10149953, 226.240840956587, 0.000755725303749676, 2.02249999999893,204.571578979492
0.102166178333333, 226.251685841139, 0.000669205149561194, 2.03499999999934,204.571578979492
0.102832836666667, 226.262380620424, 0.00035826476778421, 2.04875000000015,202.91357421875
0.103500275, 226.272992828248, 6.91647889837834E-05, 2.06124999999879,200.799224853516
0.104166185, 226.28304221694, 0.000221789622822333, 2.0749999999996,199.634124755859
0.104833155, 226.293249425793, 0.00067527834453269, 2.08750000000002,197.356552124023
0.10549965, 226.303712544683, 0.000528171733551415, 2.10124999999906,197.356552124023
0.106166195, 226.31401322363, 0.000561914038729472, 2.11499999999987,200.354644775391
0.10683302, 226.323884680339, 0.00104649619865414, 2.12750000000028,207.461547851563
0.107500018333333, 226.334131215071, 0.0010377501379072, 2.13999999999892,202.847579956055
0.108166201666667, 226.343962690131, 0.00109558573287683, 2.15374999999973,204.834762573242
0.10883286, 226.353565762903, 0.0010647337825552, 2.16750000000054,204.834762573242
0.109499513333333, 226.363354190993, 0.00131955748300499, 2.17999999999918,207.025405883789
0.110166378333333, 226.373105197654, 0.000960072039584962, 2.19374999999999,203.168685913086
0.110833391666667, 226.383378362959, 0.000699464629637264, 2.20625000000041,199.733856201172
0.111499838333333, 226.393113839484, 0.000687292741021925, 2.21999999999944,207.093963623047
0.112166248333333, 226.403140836419, 0.000500684114176394, 2.23375000000026,207.093963623047
0.112832846666667, 226.412709658451, 0.000515204884811063, 2.24749999999929,205.716934204102
0.113500296666667, 226.422680823866, 0.000284094993236309, 2.25999999999971,206.844650268555
0.114166746666667, 226.432457431943, 0.000407436797870326, 2.27250000000012,209.361419677734
0.114832851666667, 226.442742402771, 0.000196686883652319, 2.28500000000054,209.352722167969
0.115499546666667, 226.45219082711, 0.000633635936183666, 2.29874999999957,209.352722167969
0.116166475, 226.461855557033, 0.000458597728204006, 2.31250000000038,213.540283203125
0.116832835, 226.471526509077, 0.000479305688064818, 2.32499999999902,266.119049072266
0.117500755, 226.480769909124, 0.000340385665900549, 2.33874999999983,218.352264404297
0.11816814, 226.490204853915, 0.000371053125478066, 2.35249999999887,216.133514404297
0.118832835, 226.499737897559, -3.88462857102814E-05, 2.36499999999928,216.133514404297
0.11950002, 226.509711521928, -0.000167209838160332, 2.3787500000001,216.801132202148
0.120166421666667, 226.518882569438, 5.01457443198513E-05, 2.39249999999913,219.884185791016
0.120832938333333, 226.528935277549, -0.000124541481349447, 2.40499999999955,218.78498840332
0.121499548333333, 226.538414535427, -0.000236612852083262, 2.41875000000036,216.239318847656
0.12216674, 226.548419522741, -0.000226182375997662, 2.43249999999939,216.239318847656
0.122833401666667, 226.558470797552, -0.000317751276577674, 2.44499999999981,225.070251464844
0.123500268333333, 226.5688185621, -0.000354712420056475, 2.45874999999884,214.571563720703
0.124166566666667, 226.579081344193, -0.000423560461907691, 2.47249999999966,215.824111938477
0.124832848333333, 226.589377545259, -0.000293665486429373, 2.48625000000047,213.785522460938
0.125499543333333, 226.599569986451, -0.000483080472322243, 2.49874999999911,213.785522460938
0.126166475, 226.609481275187, -0.000523026465916134, 2.51375000000031,216.302871704102
0.126832848333333, 226.619977514281, -0.000732195459579311, 2.52624999999895,207.642471313477
0.127500181666667, 226.629656616062, -0.00060618078914859, 2.53999999999976,218.527526855469
0.128166555, 226.64053226164, -0.000845945246039183, 2.5537499999988,210.098846435547
0.12883285, 226.650598002718, -0.000881658452201932, 2.56749999999961,210.098846435547
0.129499726666667, 226.661057729355, -0.000791880461678222, 2.57874999999963,224.668640136719
0.130166691666667, 226.670533415704, -0.000756860220696048, 2.59250000000044,208.341857910156
0.13083297, 226.680424061618, -0.00082924658478841, 2.60624999999948,207.860137939453
0.131499675, 226.689814775157, -0.000853876847643873, 2.61874999999989,213.158874511719
0.132166686666667, 226.699654086446, -0.000597323734038312, 2.63249999999893,213.158874511719
0.13283285, 226.709315346336, -0.00048964114278856, 2.64624999999974,210.811676025391
0.13349956, 226.719151648715, -0.000178547768658681, 2.66000000000055,257.905090332031
0.13416621, 226.729160375395, 9.61784321411044E-05, 2.67374999999959,211.95539855957
0.134833, 226.738933408021, 0.000300645162013667, 2.68625,210.882110595703
0.135499621666667, 226.748829738106, 0.000439374693778723, 2.69999999999904,210.882110595703
0.13616618, 226.7585821965, 0.000491761062456135, 2.71374999999985,214.194351196289
0.13683285, 226.769085905252, 0.000456496333753722, 2.72749999999888,216.252258300781
0.137499845, 226.77865567273, 0.000220037710843024, 2.7399999999993,212.990676879883
0.138166443333333, 226.789142970865, 6.60554451857316E-05, 2.75375000000011,217.767333984375
0.138833608333333, 226.799381784905, -0.000144425982542837, 2.76749999999915,217.767333984375
0.139499516666667, 226.809757565607, -0.000130286192770359, 2.77999999999956,216.09342956543
0.14016618, 226.819952704307, -0.000278564244901865, 2.79375000000037,220.141311645508
0.140833356666667, 226.830704662395, -0.000134030004718513, 2.80749999999941,214.330093383789
0.1414995, 226.841168234477, -0.000120571180752638, 2.81999999999982,223.589385986328
0.14216672, 226.852052128194, -0.000443947437924951, 2.83374999999886,223.589385986328
0.14283335, 226.86288603116, -0.000652397967671444, 2.84624999999927,212.753143310547
