Time (min), Depth (µm), Load (N), Position (µm), Acoustic (aJ)
8.36E-06, 217.180559318792, -0.000582299983985743, 0,110.56462097168
0.000665545, 217.180115376525, -0.000612263978954371, 0.00500000000000001,108.159851074219
0.00133153833333333, 217.179178545774, -0.000586424776817342, 0.00874999999999997,112.109214782715
0.00199902, 217.178696779859, 0.00012011323453996, 0.015,105.65055847168
0.00266492333333333, 217.177932632027, -6.58609241554678E-05, 0.0225,102.987777709961
0.00333166666666667, 217.176889729889, 0.000276592874753759, 0.03125,102.987777709961
0.00399821333333333, 217.176763045031, 4.49250111947223E-05, 0.0375,110.044876098633
0.00466496833333333, 217.177261116937, 2.61474543597146E-05, 0.04375,104.699264526367
0.00533298166666667, 217.177198387834, -0.000677735690336231, 0.05,108.534187316895
0.00599829, 217.178253067937, -0.000472322508037688, 0.0575,105.262329101563
0.00666636, 217.179078245455, -0.00037327348316213, 0.0649999999999999,105.262329101563
0.007331735, 217.181114194154, -0.000341905558760766, 0.07125,108.891387939453
0.00799858666666667, 217.182448944476, -0.000218104777131827, 0.07875,104.577926635742
0.008665065, 217.185306135947, -8.67329667682565E-06, 0.0837500000000001,104.887481689453
0.00933168333333333, 217.187678135885, -1.89372811536632E-05, 0.09,123.632125854492
0.00999841833333333, 217.190597337858, -0.000165577415581763, 0.0975,123.632125854492
0.01066494, 217.193418836526, -0.000188296774407409, 0.10375,111.634918212891
0.0113315883333333, 217.197086802962, -0.000157446323988932, 0.11,99.8541488647461
0.0119984533333333, 217.19999153317, -8.92477495318508E-05, 0.1175,106.364074707031
0.0126650466666667, 217.204078905444, -0.000205241423260316, 0.12375,101.789443969727
0.0133316183333333, 217.208249148608, -0.000493718933369628, 0.13,101.789443969727
0.0139983466666667, 217.212199576141, -0.000515853321571733, 0.1375,114.408584594727
0.0146650416666667, 217.216284190066, -0.000708938623116998, 0.14375,108.977233886719
0.015332215, 217.22058855378, -0.000882260917324283, 0.15,105.388595581055
0.0159985583333333, 217.224664180231, -0.00103519923538437, 0.1575,108.064208984375
0.01666495, 217.228977358274, -0.00108596118563549, 0.16375,108.064208984375
0.0173318833333333, 217.23364006321, -0.000938899572365062, 0.17,108.195426940918
0.017998455, 217.238075047769, -0.000684707340174057, 0.1775,105.58226776123
0.0186651066666667, 217.242401622135, -0.000504848374290908, 0.18375,111.337989807129
0.0193323666666667, 217.247648797691, -0.000183826998878045, 0.19,104.651405334473
0.0199982783333333, 217.253007753174, -2.89222795852243E-05, 0.19625,104.651405334473
0.0206654383333333, 217.257746108511, -3.34505521238072E-05, 0.20375,103.235214233398
0.0213316366666667, 217.262833051485, -0.000200888641876914, 0.21,112.718521118164
0.021998355, 217.268648376109, -0.000452049526317583, 0.2175,107.522521972656
0.0226649466666667, 217.273162485063, -0.000239559699451732, 0.22375,105.307060241699
0.02333236, 217.278016059832, -0.000519529636879233, 0.22875,105.307060241699
0.0239984883333333, 217.283356701324, -0.000594348878800015, 0.235,107.715026855469
0.0246655883333333, 217.288506711554, -0.000686870231567382, 0.24375,111.24430847168
0.0253326683333333, 217.2932929272, -0.000644645852443624, 0.24875,127.604995727539
0.0259985083333333, 217.299004978193, -0.00115062893747344, 0.255,106.212661743164
0.0266649866666667, 217.304608611983, -0.00102567471380837, 0.2625,106.212661743164
0.02733169, 217.309730441, -0.000982868363888621, 0.26875,109.594871520996
0.0279982416666667, 217.315571948757, -0.000847551160693583, 0.275,107.383476257324
0.0286653133333333, 217.32143103277, -0.000782550425616855, 0.2825,102.142463684082
0.0293319566666667, 217.327148717014, -0.000540552580864729, 0.2875,106.123893737793
0.02999937, 217.33317265859, -0.000735962765617617, 0.295,106.123893737793
0.0306649466666667, 217.338743964398, -0.000649652600909354, 0.3025,110.057678222656
0.0313316683333333, 217.344711363076, -0.000430998083704663, 0.30875,110.857795715332
0.0319985416666667, 217.350508521989, -0.000426973785808083, 0.315,109.460792541504
0.0326651016666667, 217.356600530934, -0.000500158109831756, 0.32125,105.663192749023
0.0333322616666667, 217.362412235499, -0.000341242592025747, 0.3275,105.663192749023
0.0339988383333333, 217.368882713737, -0.000320953111137207, 0.33375,111.112091064453
0.0346662866666667, 217.374079525704, -0.000599886600610769, 0.34125,111.668632507324
0.035332095, 217.380237353125, -0.000692455950959041, 0.3475,107.193923950195
0.035998335, 217.385570942344, -0.00081095149905973, 0.355,107.809684753418
0.036664965, 217.391620889943, -0.000461841034522378, 0.3625,107.809684753418
0.03733167, 217.397391172723, -0.000465383856536734, 0.36875,105.348770141602
0.0379987733333333, 217.404456981154, -0.000495005868656402, 0.37375,103.773963928223
0.0386650816666667, 217.410155847423, -0.000316391840283006, 0.38,105.116508483887
0.0393325133333333, 217.416443559249, -0.00026431745592398, 0.3875,102.17113494873
0.03999842, 217.422415397719, -0.00059363041488333, 0.39375,102.17113494873
0.0406650216666667, 217.428839639236, -0.000980146000629118, 0.40125,109.362892150879
0.04133204, 217.434690226913, -0.00107557870715205, 0.4075,107.090309143066
0.04199836, 217.4407395652, -0.000924378801730393, 0.41375,129.774688720703
0.0426656233333333, 217.446849567077, -0.000863453361937447, 0.42,103.601211547852
0.0433316666666667, 217.452472479765, -0.00042212452938344, 0.4275,103.601211547852
0.0439999783333333, 217.458764639992, -0.000186241877507356, 0.43375,104.109420776367
0.044665505, 217.464463054046, 7.3032099412051E-05, 0.44,105.034233093262
0.0453316366666667, 217.471138606983, -7.33386390841309E-06, 0.44625,99.1142578125
0.0459994633333333, 217.476808631829, -0.000344083449313108, 0.45375,99.1339416503906
0.0466664516666667, 217.483586223783, -0.000503939419932501, 0.46,99.1339416503906
0.0473321033333333, 217.489412424856, -0.000638047683824717, 0.46625,102.812911987305
0.0479987866666667, 217.496345151365, -0.000750968011940809, 0.47375,107.238357543945
0.0486650166666667, 217.502457519603, -0.0006851588174832, 0.48,103.051010131836
0.0493317933333333, 217.510002883862, -0.0004832614585385, 0.485,99.8296127319336
0.0499984466666667, 217.515384062634, -0.000501023566403723, 0.49125,99.8296127319336
0.0506649283333333, 217.522314314929, -0.000353031999833239, 0.50125,109.394187927246
0.0513320733333333, 217.526202553362, -0.000260753634882962, 0.5075,108.622657775879
0.0519982066666667, 217.53120192239, -0.000406088834867686, 0.5125,105.51057434082
0.0526649133333333, 217.535234366592, 1.52040040431849E-05, 0.51875,108.984191894531
0.0533321666666667, 217.541084410441, 4.48755136894148E-05, 0.52625,108.984191894531
0.053998805, 217.546243495284, -4.49564741340668E-05, 0.5325,109.068389892578
0.0546648816666667, 217.553223393518, 0.000288619270659474, 0.53875,104.994941711426
0.0553316366666667, 217.559697545606, 0.000667098260071089, 0.545,108.061126708984
0.0559982416666667, 217.566704025087, 0.000847680189601625, 0.5525,102.302658081055
0.0566652316666667, 217.573291912719, 0.000701520031067584, 0.55875,102.302658081055
0.057331685, 217.57955284348, 0.0010124289144321, 0.565,106.174499511719
0.05799853, 217.586350741967, 0.000435544390702938, 0.5725,105.861190795898
0.0586654966666667, 217.593235894258, 0.000290042699109452, 0.57875,126.197937011719
0.0593316733333333, 217.599810187752, 8.41510408412537E-05, 0.58625,110.270217895508
0.0599988816666667, 217.606759232214, -6.5778428377051E-05, 0.5925,110.270217895508
0.0606654916666667, 217.613373252215, -0.000359856657122054, 0.59875,104.580497741699
0.0613321983333333, 217.620195278406, -0.000370236135756688, 0.605,108.599494934082
0.0619983183333333, 217.626782825193, -0.000602059991453664, 0.6125,113.320785522461
0.0626663483333333, 217.633956078068, -0.000831735955086362, 0.61875,105.312294006348
0.0633316866666667, 217.63988379243, -0.000768131649862862, 0.625,105.312294006348
0.0639988266666667, 217.645768174085, -0.000380521119132663, 0.63125,102.332336425781
0.064664955, 217.652283809977, 4.2793618213865E-05, 0.63875,108.760368347168
0.0653315916666667, 217.658290476947, 0.000253224048512723, 0.64625,103.488304138184
0.0659983433333333, 217.664373806335, 0.000476651325976237, 0.6525,108.526458740234
0.06666501, 217.671244030974, 0.000707233244076028, 0.6575,108.526458740234
0.0673322883333333, 217.678420133011, 0.000541506568385849, 0.66625,103.477699279785
0.067998755, 217.684856028238, 0.000442195056697213, 0.67125,100.326766967773
0.0686649216666667, 217.692057903504, 5.01207501777713E-05, 0.6775,109.409469604492
0.0693316983333333, 217.69852485064, -0.000301286099067305, 0.685,112.507972717285
0.0699987766666667, 217.705111108163, -2.1229166024415E-05, 0.6925,112.507972717285
0.0706649866666667, 217.711152679177, -0.000114272492590386, 0.69875,111.276374816895
0.0713320983333333, 217.718301145214, -7.02632031079395E-05, 0.70375,106.62028503418
0.0719983016666667, 217.724733414965, 7.06187205583649E-05, 0.71,104.356567382813
0.0726649033333333, 217.730798166492, 0.000346277874549517, 0.7175,108.675758361816
0.0733316516666667, 217.737237295912, 0.00017931076114405, 0.725,108.675758361816
0.073998535, 217.743513053932, 0.000245719925490487, 0.73125,112.078430175781
0.0746650316666667, 217.749530355855, 0.00014323457321195, 0.73875,106.929054260254
0.075331935, 217.755552149456, 0.000275080950678972, 0.745,129.697982788086
0.0759984283333333, 217.762624830949, 0.000212336102287317, 0.75,102.646057128906
0.0766649733333333, 217.768482099511, 0.000359780196280579, 0.7575,102.646057128906
0.0773317633333333, 217.775163582588, 0.00034587889455198, 0.76375,105.60489654541
0.0779986766666667, 217.781701591607, 0.000477954760516463, 0.77125,112.633964538574
0.0786649333333333, 217.788331417289, 0.00049321199418191, 0.77875,104.871215820313
0.0793330016666667, 217.795007658799, 0.000783199928356589, 0.785,100.957130432129
0.0799984083333333, 217.803018227027, 0.000360261672099041, 0.79125,100.957130432129
0.0806655133333333, 217.810565653626, 0.000340852647026499, 0.79625,104.743835449219
0.0813316666666667, 217.817272637468, 0.000683835919313839, 0.8025,102.827781677246
0.0819983116666667, 217.823568016199, 0.000705931309502713, 0.81125,108.309158325195
0.082665465, 217.829973157543, 0.000539448671764514, 0.8175,105.770050048828
0.0833335183333333, 217.835771287316, 0.000673306448260133, 0.82375,105.770050048828
0.0839983966666667, 217.842158386213, 0.000809441110361216, 0.83,107.332984924316
0.0846649966666667, 217.849219471941, 0.000313618515003154, 0.83875,105.178733825684
0.085332125, 217.857803864358, 0.000415454399908809, 0.8425,106.675048828125
0.085999215, 217.864383358512, 0.000427126813591593, 0.84875,105.592353820801
0.0866651416666667, 217.871614861044, 0.000493603474536176, 0.8575,105.592353820801
0.0873322266666667, 217.878898290439, 0.00058232551810996, 0.86375,107.861526489258
0.0879988183333333, 217.884971144276, 0.000705545828931076, 0.87,111.142349243164
0.08866508, 217.891348793609, 0.000848995623579586, 0.87625,108.08268737793
0.0893321166666667, 217.898497801429, 0.000910837517331701, 0.88375,100.075653076172
0.08999869, 217.90604375382, 0.00107476578336482, 0.88875,100.075653076172
0.0906651533333333, 217.912174149812, 0.00128624016126088, 0.89625,100.506271362305
0.0913316216666667, 217.920228688585, 0.00107246939874211, 0.90375,104.446716308594
0.0919994316666667, 217.926599857031, 0.000832364458948214, 0.91,131.059127807617
0.0926651783333333, 217.933468334957, 0.000906007759903047, 0.91625,109.521583557129
0.09333176, 217.939951450227, 0.000973430873316119, 0.9225,109.521583557129
0.0939987466666667, 217.947255616198, 0.000519219187894612, 0.92875,102.701049804688
0.094665005, 217.95374112095, 0.000550384622480282, 0.935,110.880172729492
0.0953320583333333, 217.96012649854, 0.000642602990433174, 0.9425,101.041244506836
0.0959982566666667, 217.967743638397, 0.000515467876324441, 0.95,113.179527282715
0.0966649683333333, 217.97417015774, 0.000172798088258637, 0.95625,113.179527282715
0.0973315616666667, 217.981606828645, 6.55849734321218E-05, 0.9625,108.467742919922
0.0979990033333333, 217.987691233365, 8.72798837415643E-05, 0.96875,109.210098266602
0.0986649366666667, 217.994979363565, 0.000199703736816415, 0.975,102.264915466309
0.0993324966666667, 218.000770847927, 0.000143392065274292, 0.9825,110.694366455078
0.0999988266666667, 218.007411375486, 0.000238436291313021, 0.98875,110.694366455078
0.100665491666667, 218.013441677844, 0.000446481841385617, 0.995,107.543022155762
0.10133175, 218.019999617332, 0.000477551280788224, 1.0025,105.376998901367
0.101998415, 218.026186498541, 0.000445785876313727, 1.00875,105.112983703613
0.10266492, 218.033404814374, 0.000257482334616212, 1.01375,104.73503112793
0.103331648333333, 218.039474444344, 8.48890037964352E-05, 1.02125,104.73503112793
0.10399833, 218.045811278128, 7.67489126784386E-05, 1.02875,105.974983215332
0.10466493, 218.052672859176, 0.00030946372368349, 1.035,108.262588500977
0.105332663333333, 218.059093455974, 0.000112973593168969, 1.04125,107.535621643066
0.105998875, 218.064732350394, 0.000446079861581782, 1.0475,105.102416992188
0.106664931666667, 218.071240964784, 0.000463531485031768, 1.05375,105.102416992188
0.107331766666667, 218.077409787641, 0.000403080021456522, 1.06125,110.943290710449
0.108000823333333, 218.083994963079, 0.000369727696708329, 1.0675,129.152694702148
0.108665443333333, 218.089896389676, 0.000366922837606647, 1.07375,105.572929382324
0.109331751666667, 218.096767552792, 0.000347786798796752, 1.08,103.379264831543
0.109998325, 218.102548097792, 0.000513025998970855, 1.08875,103.379264831543
0.110664998333333, 218.109308726947, 0.000579645152755003, 1.09375,115.455825805664
0.111332093333333, 218.114374111316, 0.000596288316802855, 1.1,110.770195007324
0.111999926666667, 218.121169819865, 0.000848887628937535, 1.10625,109.743324279785
0.112664905, 218.12665834131, 0.000750354578120459, 1.11375,109.412124633789
0.11333173, 218.133825136625, 0.000706253793313176, 1.12125,109.412124633789
0.113998273333333, 218.139479307659, 0.000620171617114208, 1.12625,106.181678771973
0.11466487, 218.146601694776, 0.000805629801772407, 1.1325,111.77668762207
0.11533209, 218.152350213044, 0.000747810705992468, 1.14,104.947021484375
0.115998288333333, 218.158894797528, 0.000829009127505519, 1.14625,110.367813110352
0.116664858333333, 218.16475248531, 0.000955652266324968, 1.1525,110.367813110352
0.117333241666667, 218.170793809346, 0.00109367983332052, 1.16,105.71411895752
0.117998278333333, 218.177044527545, 0.0011290435570548, 1.16625,109.720932006836
0.118665011666667, 218.182849480354, 0.00117750612283441, 1.1725,109.927452087402
0.119331688333333, 218.188634734503, 0.00128677563433661, 1.17875,107.028709411621
0.119998245, 218.194761354341, 0.00140196534847866, 1.185,107.028709411621
0.120664895, 218.200873675097, 0.00154540464369885, 1.1925,106.985412597656
0.121332133333333, 218.206571457251, 0.00122349981259993, 1.19875,103.873840332031
0.121998856666667, 218.212910919905, 0.000978571115096247, 1.205,100.90771484375
0.122665613333333, 218.218574636005, 0.000689582130722916, 1.21125,104.82527923584
0.123332105, 218.223999676697, 0.000443203006066235, 1.2175,104.82527923584
0.123998781666667, 218.22856592246, 0.00044130260154975, 1.225,109.316505432129
0.1246649, 218.23390152507, 0.00062574683712006, 1.2325,128.835540771484
0.125333668333333, 218.23936208107, 0.000782308973197292, 1.2375,106.453498840332
0.125998826666667, 218.244277383434, 0.00114079996654668, 1.24375,106.914855957031
0.12666492, 218.249428411315, 0.00115247538009952, 1.25125,106.914855957031
0.127331603333333, 218.255139231941, 0.00102550825748144, 1.25875,101.301254272461
0.127998841666667, 218.260508021462, 0.000732977950954398, 1.265,111.846870422363
0.128665501666667, 218.26517304008, 0.00059424091958858, 1.27,110.739288330078
0.129333046666667, 218.270613181441, 6.34235819844535E-05, 1.2775,105.881561279297
0.129998821666667, 218.276169172208, 1.69229176431134E-05, 1.285,105.881561279297
0.1306649, 218.281866079859, 7.98837551913458E-05, 1.29125,110.78946685791
0.1313316, 218.287186939719, 6.28161124948636E-05, 1.2975,111.278915405273
0.131998486666667, 218.293476644722, -5.01657125642698E-05, 1.30375,109.071327209473
0.132665805, 218.299575154299, -9.08616684660595E-05, 1.31125,105.12801361084
0.133331716666667, 218.305532873898, -0.000183444518112706, 1.3175,105.12801361084
0.133998821666667, 218.312004568984, -0.000542280494138602, 1.32375,100.992805480957
0.134666303333333, 218.31725167811, -0.000321335591966308, 1.33125,102.517082214355
0.135332833333333, 218.323244911699, -0.000313783471278151, 1.3375,107.87532043457
0.1360101, 218.328673432395, -0.000221838089609159, 1.34375,105.174423217773
0.136665503333333, 218.33451751244, -6.37985277821769E-05, 1.35125,105.174423217773
0.137332206666667, 218.34005683286, -9.83402927946948E-05, 1.3575,108.075531005859
0.137999786666667, 218.346573020499, -0.000350510626507535, 1.36375,107.057281494141
0.138665045, 218.352196514232, -0.000115188946464539, 1.37,106.24690246582
0.139331961666667, 218.358733196334, -5.30446585073969E-06, 1.3775,110.371231079102
0.139998376666667, 218.364302344466, -0.000229330213236169, 1.38375,110.371231079102
0.14066532, 218.370727742473, -0.000310305145991881, 1.39,113.477958679199
0.141331698333333, 218.376750485637, -0.000307120805931158, 1.3975,125.456085205078
0.141998545, 218.382738251197, -0.000338037253044633, 1.40375,110.044540405273
0.14266684, 218.388684356131, -8.17106281089802E-05, 1.41,100.455528259277
0.143332153333333, 218.394342403926, 0.000196315406888071, 1.41625,100.455528259277
0.143999773333333, 218.400029125661, 0.000437719281448982, 1.42375,109.099868774414
0.144664973333333, 218.40536993925, 0.000296283885592859, 1.43,108.741516113281
0.145332215, 218.411332652164, 0.000341929592854309, 1.43625,105.337043762207
0.145999663333333, 218.417051143951, 0.000120977191059999, 1.44375,103.243141174316
0.146665326666667, 218.423080376166, -0.000143639517497739, 1.45,103.243141174316
0.147331701666667, 218.428394979771, -0.00024050465205958, 1.45625,104.616928100586
0.147998756666667, 218.43409692133, -8.33965434783077E-05, 1.4625,107.717391967773
0.148664928333333, 218.439420307315, 2.66964266700528E-05, 1.46875,106.36572265625
0.149331756666667, 218.445228512568, 0.000199570243417001, 1.47625,105.830894470215
0.149998225, 218.451046654613, 0.000514503424656843, 1.4825,105.830894470215
0.150665505, 218.456264525605, 0.000860627539197211, 1.48875,109.712203979492
0.15133315, 218.461776812927, 0.000997302174168483, 1.49625,105.572662353516
0.151998606666667, 218.467110171404, 0.000935814262660553, 1.50375,103.714950561523
0.152664921666667, 218.472556008033, 0.000894461339763866, 1.51,104.96044921875
0.153332096666667, 218.478164862721, 0.000899646579318601, 1.51625,104.96044921875
0.153998223333333, 218.484146531226, 0.000698718171750946, 1.52375,102.13916015625
0.154664923333333, 218.490467622808, 0.000844759836235876, 1.52875,103.381721496582
0.155332158333333, 218.496138233213, 0.00084052104914963, 1.535,108.909019470215
0.155998628333333, 218.502526925182, 0.00065826670359065, 1.5425,103.906349182129
0.156664916666667, 218.508247040661, 0.000772026989521345, 1.54875,103.906349182129
0.157332916666667, 218.513978214652, 0.000766430770637609, 1.555,107.130241394043
0.157998435, 218.519812706577, 0.000592294017351832, 1.56375,129.73681640625
0.158664878333333, 218.525753992743, 0.000440309651360998, 1.57,104.631378173828
0.159333103333333, 218.530758054734, 0.000186742887731168, 1.575,109.322883605957
