Time (min), Depth (µm), Load (N), Position (µm), Acoustic (aJ)
7.55666666666667E-06, 239.329490772549, 0.000262872510548231, 0,169.903884887695
0.000666423333333333, 239.329181372185, 0.000352194524010843, 0.00375000000000001,169.903884887695
0.00133298833333333, 239.327768144038, 0.000305537867552818, 0.01625,178.389038085938
0.00199966166666667, 239.326869189706, -5.41770643646735E-05, 0.03375,192.037841796875
0.002666335, 239.328239094783, -0.000684985379539637, 0.05,208.967254638672
0.00333380666666667, 239.331237815663, -0.000444908938309404, 0.0625,215.257736206055
0.00399960666666667, 239.336956383512, -0.000687631246612066, 0.07625,215.257736206055
0.00466629, 239.346022472661, -0.000676356312959908, 0.09,228.707778930664
0.00533327666666667, 239.356905964361, -0.000891982482263069, 0.10375,218.34782409668
0.005999605, 239.367812670223, -0.00055350948340022, 0.1175,227.111114501953
0.00666637, 239.378416342293, -0.000573569475833808, 0.13,227.111114501953
0.007334, 239.389218376354, -0.000842697957804201, 0.14375,225.15625
0.00799963333333333, 239.400448216753, -0.0011996965261598, 0.1575,229.74235534668
0.00866642333333333, 239.411455082947, -0.00092239645463769, 0.17,224.921646118164
0.00933321166666667, 239.422453636207, -0.0010272036902963, 0.185,229.582733154297
0.009999805, 239.433070389099, -0.000921460501640025, 0.1975,229.582733154297
0.010666305, 239.444046078424, -0.000841501017896606, 0.21,234.384857177734
0.01133296, 239.454478164443, -0.000873933888815569, 0.22375,237.404067993164
0.0119997183333333, 239.465410648897, -0.000890572553090212, 0.23625,225.885971069336
0.0126668316666667, 239.475532067375, -0.000861318022534358, 0.25,284.176544189453
0.013333305, 239.487254909469, -0.0011340523233653, 0.2625,284.176544189453
0.013999595, 239.497859133088, -0.00132960950075221, 0.27625,235.957397460938
0.0146662783333333, 239.508844074797, -0.00116795512047576, 0.29,235.99560546875
0.0153332666666667, 239.519157104675, -0.00110462230161175, 0.3025,238.339828491211
0.0159996016666667, 239.530497783084, -0.00106546826829407, 0.31625,234.09016418457
0.0166662733333333, 239.540779401165, -0.000873914389862089, 0.32875,224.00813293457
0.0173331216666667, 239.55138529885, -0.000581825061194618, 0.3425,224.00813293457
0.0179996816666667, 239.562773968377, -0.000353067051488, 0.355,228.893707275391
0.018666365, 239.574446164695, -0.000381181639348599, 0.36875,225.395782470703
0.0193337416666667, 239.586202445274, -0.000421552111548611, 0.38125,226.550262451172
0.0199996116666667, 239.599044472394, -0.000525915369498838, 0.395,224.582595825195
0.0206664016666667, 239.614799356168, -0.000580079148934176, 0.40875,224.582595825195
0.02133313, 239.62911975549, -0.00112232141265204, 0.42125,230.503997802734
0.0219996433333333, 239.643827583118, -0.00107511578375615, 0.435,225.233291625977
0.02266625, 239.658076578034, -0.00132674614462006, 0.44875,223.088241577148
0.023333025, 239.671655035787, -0.00118655568623118, 0.4625,227.839080810547
0.023999835, 239.682634554182, -0.00123652567631237, 0.47625,227.839080810547
0.0246663133333333, 239.69409459398, -0.000613065492064213, 0.48875,226.156921386719
0.025333685, 239.705849492326, -0.000881926987405809, 0.50375,219.461288452148
0.0260000983333333, 239.718035285606, -0.000786597775751715, 0.51625,227.788269042969
0.0266662633333333, 239.730232582066, -0.000868969138318147, 0.52875,233.955551147461
0.027333335, 239.742404169722, -0.000714571393537389, 0.5425,233.955551147461
0.0279997266666667, 239.754866799236, -0.000988921113248194, 0.55625,225.734146118164
0.02866635, 239.766999851693, -0.000811871506282446, 0.57,228.023727416992
0.02933306, 239.778970618658, -0.000486677340435827, 0.58375,269.368804931641
0.0299996933333333, 239.790988494954, -0.000656765797034572, 0.59625,223.276336669922
0.0306662666666667, 239.80945831967, -0.000713077468534187, 0.6125,223.276336669922
0.0315005333333333, 239.82212952951, -0.000796561775156614, 0.62625,223.872665405273
0.032166335, 239.834542784425, -0.000756375793679457, 0.64,225.423950195313
0.0328333583333333, 239.847277877745, -0.00107372385365488, 0.65375,227.137191772461
0.033499605, 239.859757201506, -0.000997721171209895, 0.6675,226.733795166016
0.0341664766666667, 239.872160252093, -0.00100147248280132, 0.68,226.733795166016
0.03483338, 239.884412021201, -0.000809218139545493, 0.69375,222.984893798828
0.0354997216666667, 239.896461476381, -0.000911427505670068, 0.70625,227.359436035156
0.036166325, 239.908192326729, -0.000822346980078889, 0.72,221.410446166992
0.0368334316666667, 239.919937821538, -0.000774745371055524, 0.73375,229.653121948242
0.0375002216666667, 239.931645476029, -0.000838313678093347, 0.7475,226.936370849609
0.0381664566666667, 239.943112289524, -0.00100138098737021, 0.76,226.936370849609
0.0388329783333333, 239.954779975627, -0.000772987459336095, 0.77375,219.345611572266
0.0394999216666667, 239.966347367599, -0.000670052129651564, 0.7875,226.873992919922
0.0401663, 239.978204929971, -0.000543122505186077, 0.8,224.874694824219
0.04083304, 239.989945064294, -0.000557883263789029, 0.81375,224.874694824219
0.0414996783333333, 240.001841843531, -0.000444389964465877, 0.8275,229.07649230957
0.042166345, 240.013642784529, -0.000408222281123924, 0.84,223.908096313477
0.0428332616666667, 240.025461558792, -0.000419138732801195, 0.85375,230.396499633789
0.043499605, 240.037241081984, -0.000361429131523949, 0.8675,232.209777832031
0.0441663766666667, 240.049353160203, -0.000384656964807316, 0.87875,227.964340209961
0.0448329983333333, 240.061673790984, -0.000475964878519907, 0.89375,227.964340209961
0.0454996033333333, 240.074072921119, -0.000304980966839875, 0.90625,233.385833740234
0.0461663166666667, 240.086784304965, -0.000501265607668642, 0.92,277.692962646484
0.0468329366666667, 240.099107449365, -0.000732886973549923, 0.9325,232.06396484375
0.04750061, 240.111029606364, -0.000674857888289766, 0.94625,230.369888305664
0.0481664183333333, 240.122354510445, -0.000607889252055898, 0.95875,230.369888305664
0.0488329866666667, 240.133814603569, -0.00089506332760373, 0.9725,233.689239501953
0.049499875, 240.144503030818, -0.000654352418265902, 0.985,230.952743530273
0.0501663216666667, 240.154926335118, -0.00038069716368133, 0.99875,229.077087402344
0.0508329916666667, 240.166200888252, -0.000503456997604375, 1.01125,233.175506591797
0.0514996283333333, 240.176666349409, -0.000565423385081961, 1.025,233.175506591797
0.052166395, 240.187199427516, -0.000479492701268976, 1.03875,231.682998657227
0.0528336783333333, 240.198067147732, -0.00055251803328465, 1.05125,229.099060058594
0.05349957, 240.209186464878, -0.000857875695497529, 1.065,231.634063720703
0.0541663683333333, 240.219123710323, -0.000811742512720003, 1.07875,240.617172241211
0.0548329483333333, 240.230183292198, -0.00105212643847416, 1.09125,240.617172241211
0.0554996716666667, 240.240837666612, -0.000976062259107385, 1.105,231.041030883789
0.05616628, 240.251457509428, -0.000895681296585396, 1.11875,233.735137939453
0.0568329366666667, 240.262189306351, -0.00105830012840193, 1.13125,236.273010253906
0.057499605, 240.273678226688, -0.00112032951274696, 1.14375,228.379104614258
0.05816628, 240.284437688522, -0.00131106293240283, 1.1575,228.379104614258
0.05883299, 240.295696918662, -0.00173373270214969, 1.17125,227.873809814453
0.05950012, 240.30666131618, -0.00165941893481657, 1.185,236.988876342773
0.0601663083333333, 240.317435213952, -0.00153994393593177, 1.19875,237.931549072266
0.0608329566666667, 240.327942330752, -0.00124140493122508, 1.21,230.442840576172
0.0614996233333333, 240.338889910303, -0.00090986458416557, 1.22375,230.442840576172
0.06216695, 240.349352791728, -0.000688574699338018, 1.2375,234.214920043945
0.0628341616666667, 240.359669735244, -0.000817614717800209, 1.25125,277.966796875
0.0635009166666667, 240.368377888064, -0.000543101506329448, 1.26375,232.31037902832
0.0641662733333333, 240.377553514632, -0.000537973263923292, 1.2775,218.68342590332
0.06483296, 240.386791367052, -0.000556623327141514, 1.29,218.68342590332
0.0654997683333333, 240.396402658669, -0.000476146369393955, 1.30375,214.344924926758
0.0661664933333333, 240.407151019863, -0.00065510688038952, 1.3175,215.898544311523
0.0668329183333333, 240.419306826524, -0.000840431571712067, 1.33125,219.534225463867
0.0674996266666667, 240.431252161137, -0.000972369444610195, 1.34375,210.287567138672
0.0681663233333333, 240.443577243232, -0.000865481813442949, 1.3575,210.287567138672
0.0688330766666667, 240.455694501696, -0.000814785859865566, 1.37125,209.407684326172
0.0695018733333333, 240.467684761908, -0.000829548118350413, 1.385,210.913116455078
0.0701664216666667, 240.479528778255, -0.000886150775269277, 1.39875,209.117218017578
0.070833505, 240.491887129176, -0.000851174032094797, 1.41125,216.931884765625
0.0715003266666667, 240.503753743453, -0.000788231193660658, 1.425,216.931884765625
0.0721664566666667, 240.515500603428, -0.000796990753705979, 1.4375,211.014053344727
0.0728337366666667, 240.526980280034, -0.000623923446711011, 1.45125,219.987106323242
0.0735002916666667, 240.539264682984, -0.000501703585679409, 1.465,211.590225219727
0.07416629, 240.550704999452, -0.000807091246380353, 1.4775,214.423492431641
0.0748329983333333, 240.56260072125, -0.000537488788192261, 1.49125,214.423492431641
0.0754996816666667, 240.574368573102, -0.000631751553489368, 1.505,214.803680419922
0.0761665583333333, 240.586586063924, -0.000732317002149161, 1.51875,211.638244628906
0.0768329816666667, 240.598515494633, -0.000895984281314855, 1.53125,207.767761230469
0.0774997016666667, 240.610419747268, -0.000644334421454961, 1.54375,214.798416137695
0.0781662716666667, 240.621993916632, -0.000886927736258943, 1.5575,214.798416137695
0.0788329683333333, 240.633720630066, -0.000849149133810334, 1.57,206.433807373047
0.0794999966666667, 240.644720601542, -0.000827913200453305, 1.58375,253.722640991211
0.080166795, 240.655497911361, -0.000489168715273466, 1.5975,211.32731628418
0.08083465, 240.666712127001, -0.000358249291215182, 1.61,204.12467956543
0.0814999233333333, 240.678289873233, -0.000340130201320729, 1.625,204.12467956543
0.0821675666666667, 240.689791491213, -0.000331012159321775, 1.63875,207.862899780273
0.08283365, 240.701062447726, -5.17111883694145E-05, 1.65125,209.446212768555
0.0834996466666667, 240.713036892291, -4.77528871890859E-05, 1.665,206.158615112305
0.0841662916666667, 240.724243957364, -0.000101687178105709, 1.6775,203.094192504883
0.0848329483333333, 240.735521201299, -0.000180256231693513, 1.69125,203.094192504883
0.0854997566666667, 240.746879783909, 4.17236184870613E-05, 1.70375,198.700103759766
0.0861664383333333, 240.75857015772, -0.000206774899712743, 1.7175,204.684326171875
0.0868331216666667, 240.769617904127, -0.000264096020505783, 1.73125,193.630752563477
0.087499865, 240.780733019858, -0.00029241309820333, 1.74375,196.014526367188
0.08816706, 240.791522781904, -0.000289192759935675, 1.75625,196.014526367188
0.0888342433333333, 240.801796090418, -0.000282243608963898, 1.77,196.914337158203
0.0894998416666667, 240.812597229611, -0.000330920663954431, 1.78375,192.890090942383
0.0901668233333333, 240.822828379666, -0.000311271650892352, 1.79625,194.576095581055
0.0908335016666667, 240.833089430175, -9.14726911129253E-05, 1.81,199.541000366211
0.09149964, 240.842698449544, -0.000143670069315527, 1.8225,199.541000366211
0.0921663966666667, 240.852824301755, -0.000227338866703317, 1.83625,196.69953918457
0.092832945, 240.862277192734, -1.72619900168348E-06, 1.85,200.689529418945
0.0934997683333333, 240.872005475897, 4.14266334977245E-05, 1.86375,190.839462280273
0.0941663516666667, 240.881851985096, -0.000248046826564129, 1.875,194.648483276367
0.0948330333333333, 240.891854583904, -8.94477928072075E-05, 1.88875,194.648483276367
0.09550084, 240.901726973781, 2.01461309766449E-06, 1.9025,238.409820556641
0.096166285, 240.910959551132, 0.000101297626201385, 1.915,198.775833129883
0.0968331583333333, 240.920712400443, -2.83108637159104E-05, 1.92875,198.094985961914
0.0975001616666667, 240.930239371939, 5.42994151648908E-06, 1.94125,184.771240234375
0.0981662916666667, 240.939929175502, -0.000207058385403704, 1.955,184.771240234375
0.0988329466666667, 240.949007606886, -0.000205999438562463, 1.9675,192.765380859375
0.0994996116666667, 240.959292581829, -0.000454142474572425, 1.98,188.372482299805
0.100167255, 240.968410483874, -0.000163665564936013, 1.99375,192.080474853516
0.100832968333333, 240.97797622524, 0.000184487947683282, 2.0075,190.769393920898
0.10149961, 240.988068875884, 9.62518797011701E-05, 2.02,190.769393920898
0.102166961666667, 240.99836857847, 0.000187381302367265, 2.035,188.271270751953
0.102832988333333, 241.008673144577, 1.08656685528381E-05, 2.0475,193.111557006836
0.103500345, 241.019790940068, -0.000148381332652562, 2.06125,197.525772094727
0.104167765, 241.031226473352, -0.000358762265446112, 2.075,196.115417480469
0.10483297, 241.042177776339, -0.000131369187180254, 2.0875,196.115417480469
0.10550018, 241.053635393677, -0.000357044851706825, 2.10125,196.063858032227
0.106166818333333, 241.064492005226, -3.81863676447796E-05, 2.11375,194.50700378418
0.10683295, 241.075766580175, -0.000133365586858547, 2.12875,191.563247680664
0.107499655, 241.086720924517, -0.00015035973325927, 2.14125,182.831100463867
0.10816691, 241.097975761513, -0.000239768742358525, 2.155,182.831100463867
0.10883325, 241.109082677373, -0.000380251686048546, 2.1675,187.670028686523
0.1094996, 241.120399753012, -0.000277743834925215, 2.18125,187.198684692383
0.110166423333333, 241.131346162946, 1.74162683501749E-06, 2.195,186.606338500977
0.110832988333333, 241.142246355803, 0.000159845685453848, 2.2075,190.749359130859
0.111499633333333, 241.152831664625, 0.000397316757506777, 2.22125,190.749359130859
0.11216716, 241.164115409232, 0.000624799831258085, 2.235,221.166473388672
0.11283296, 241.174808065426, 0.000671421989476089, 2.24875,184.803985595703
0.113501865, 241.186219266833, 0.00017927270957672, 2.2625,183.651489257813
0.11433305, 241.196772122139, 0.000285060895943837, 2.2775,186.231887817383
0.115000261666667, 241.208371115425, 5.41774930177373E-05, 2.29125,185.918014526367
0.115666495, 241.218861019178, -0.00048838725451059, 2.305,185.918014526367
0.116332976666667, 241.230024769302, -0.000763267947587673, 2.31875,192.142288208008
0.116999818333333, 241.239981897618, -0.000333208049009464, 2.33125,186.090759277344
0.117668273333333, 241.251599645497, -0.000647748249970637, 2.345,187.272323608398
0.118334531666667, 241.262011386463, -0.000665523857134236, 2.35875,190.525619506836
0.119001435, 241.272875703312, -0.000247310363575859, 2.37125,190.525619506836
0.119666335, 241.283547908548, -1.72819176658868E-05, 2.385,189.633804321289
0.12033424, 241.294823814281, 3.50744525234604E-05, 2.39875,180.529724121094
0.120999708333333, 241.305422465508, 0.000161990577690572, 2.4125,188.666351318359
0.121666823333333, 241.316376961618, 0.000240607628838026, 2.425,187.614227294922
0.122334585, 241.327293128802, 0.000438665180609001, 2.43875,187.614227294922
0.123001606666667, 241.337722322638, 0.000534811851275411, 2.4525,182.305908203125
0.123667911666667, 241.348876408426, 4.32130437595619E-05, 2.465,185.598266601563
0.124335151666667, 241.359346983525, -2.61554719233469E-05, 2.47875,188.107269287109
0.125000143333333, 241.369714026771, -0.000181381175080973, 2.49125,185.856536865234
0.125666296666667, 241.380090516931, -0.000566410335445575, 2.505,185.856536865234
0.126333515, 241.390967279455, -0.00105879960327072, 2.51875,192.539138793945
0.126999718333333, 241.401226945175, -0.000794005903569635, 2.5325,190.693588256836
0.127666308333333, 241.412082239795, -0.00109464930253291, 2.545,183.854721069336
0.128332955, 241.422685641375, -0.000870277072546566, 2.55875,225.906372070313
0.128999688333333, 241.432781115179, -0.000527170806415652, 2.57125,225.906372070313
0.129666338333333, 241.44301226357, -0.000112914114091947, 2.585,188.90315246582
0.13033372, 241.453261458453, -9.2189655083953E-05, 2.5975,187.417938232422
0.131000943333333, 241.463268389014, 0.000130781645297208, 2.61125,197.246307373047
0.131667018333333, 241.473120326364, 9.86337600573714E-05, 2.625,185.634460449219
0.132333168333333, 241.483512305316, -9.89978131193157E-05, 2.6375,185.634460449219
0.132999901666667, 241.493773240528, -0.000374260986940484, 2.65125,194.803100585938
0.13366638, 241.503763327341, -0.000494226461211415, 2.66375,194.813995361328
0.13433298, 241.513735972291, -0.000430899642066279, 2.67875,188.284652709961
0.135000223333333, 241.52418131135, -0.000503606990044701, 2.69,199.064697265625
0.135666918333333, 241.534756710719, -0.00028219861112553, 2.70375,199.064697265625
0.136332911666667, 241.544651713187, -0.000102564633945378, 2.71625,192.368057250977
0.137000121666667, 241.554541212293, 8.85947643047848E-05, 2.73,188.965957641602
0.137668286666667, 241.564874395098, -0.000156605419558395, 2.74375,197.040786743164
0.138332975, 241.574668206395, 9.84192708251973E-05, 2.75625,194.354110717773
0.139000531666667, 241.58460415023, 0.000187667787949541, 2.77,194.354110717773
0.139666625, 241.595286112088, 3.84302128530137E-06, 2.78375,188.532836914063
0.140333436666667, 241.605678583404, -0.000148933304896723, 2.79625,192.472427368164
0.140999655, 241.616261221038, 0.000278156742810428, 2.81,188.934219360352
0.1416669, 241.626708281907, 5.80247997709707E-05, 2.8225,186.557968139648
0.142332955, 241.637512181406, -0.000156813909071702, 2.83625,186.557968139648
0.142999643333333, 241.647685048203, -1.70449295464097E-05, 2.85,188.36051940918
0.143666371666667, 241.657917895623, -2.72264181385599E-05, 2.8625,196.014022827148
0.14433293, 241.668040085174, -0.000334574480353373, 2.875,184.922470092773
0.145000273333333, 241.678762234978, -3.83033617057255E-05, 2.88875,227.180389404297
0.145666871666667, 241.688590156864, 0.000272749514401504, 2.90125,227.180389404297
0.14633351, 241.698917053055, 0.00027691030541878, 2.91625,185.958770751953
0.146999941666667, 241.709425374833, 0.000686544229902735, 2.93,188.704956054688
0.147666293333333, 241.720227116427, 0.00087850458795427, 2.9425,186.068969726563
0.148332988333333, 241.731206085455, 0.000812770389695569, 2.95625,181.769638061523
0.14900023, 241.742122364299, 0.000260993104930884, 2.97,181.769638061523
0.149666306666667, 241.753175116164, 0.000275183892154327, 2.98375,184.495559692383
0.150332941666667, 241.763962040095, -0.000214051034076905, 2.99625,185.797332763672
0.150999643333333, 241.77429761153, -0.000542828519918022, 3.01,192.88525390625
0.151666573333333, 241.784159114779, -0.000622401023080384, 3.02375,183.79833984375
0.152333473333333, 241.794399459627, -0.000443887489663261, 3.03625,183.79833984375
0.153000353333333, 241.804776563088, -0.000661096079488163, 3.05,186.379608154297
0.153666236666667, 241.815018984735, -0.000695589846898522, 3.06375,183.953948974609
0.154333966666667, 241.825118541793, -0.000863485413679639, 3.0775,187.300964355469
0.155000183333333, 241.835441559033, -0.000941937473100227, 3.09,183.840133666992
0.155667891666667, 241.845727606814, -0.00111112297508069, 3.10375,183.840133666992
0.156333601666667, 241.85561955193, -0.0009464612458656, 3.1175,188.779708862305
0.15700152, 241.866048047648, -0.00101442733199767, 3.13,183.601333618164
0.157669811666667, 241.876648454316, -0.000887649199939418, 3.14375,186.683685302734
0.15833349, 241.886994288424, -0.000870319070408603, 3.15625,199.935501098633
0.159001545, 241.89710392258, -0.00100198095717402, 3.17,199.935501098633
0.159666488333333, 241.907511710086, -0.00115379583166478, 3.18375,190.537826538086
0.160332983333333, 241.91786894658, -0.001222418884813, 3.1975,191.124526977539
