Time (min), Depth (µm), Load (N), Position (µm), Acoustic (aJ)
8.12333333333333E-06, 224.920022609772, -0.000170982083018176, 0,328.342102050781
0.000663863333333333, 224.919446250316, 6.29731656596567E-05, 0.00625000000020748,323.923156738281
0.001330805, 224.917956524172, 0.000171873695737394, 0.0199999999992428,334.342346191406
0.0019973, 224.916515226444, 0.000236907429150995, 0.034999999998675,334.342346191406
0.00266383833333333, 224.915388048694, 0.000322905609562126, 0.0499999999998835,349.322906494141
0.003330585, 224.914133558785, 0.000282179655193526, 0.0624999999985221,420.928344726563
0.00399732666666667, 224.913984416157, 0.000104593075163886, 0.0762499999993338,357.392608642578
0.00466375833333333, 224.916825844277, 0.000294072557806096, 0.0912499999987659,360.340576171875
0.005330815, 224.921002481133, 0.000191455212180073, 0.103749999999181,360.340576171875
0.00599747, 224.927052862349, -0.000105925850674764, 0.117499999999993,361.438598632813
0.00666399333333333, 224.935296736769, -0.000481102005976546, 0.131249999999028,360.121490478516
0.00733077, 224.9442201358, -0.000557706158234762, 0.143749999999443,351.364440917969
0.00799754833333333, 224.953712904407, -0.00102831502001697, 0.157500000000255,352.431060791016
0.008663785, 224.963188382713, -0.000855613694640159, 0.17124999999929,352.431060791016
0.00933104333333333, 224.972621760045, -0.000684599784514571, 0.185000000000102,357.991241455078
0.00999733, 224.982178000857, -0.000754361280433642, 0.19749999999874,352.027618408203
0.010663965, 224.991994532835, -0.000903384795099838, 0.209999999999155,352.027618408203
0.0113307166666667, 225.001485094503, -0.000668237106351382, 0.223749999999967,348.225189208984
0.0119975066666667, 225.011230023465, -0.000944005754802719, 0.237499999999002,348.225189208984
0.01266404, 225.021107610905, -0.00104589563694438, 0.249999999999417,347.561462402344
0.0133305866666667, 225.030857384747, -0.000958003051693126, 0.262499999999832,352.063049316406
0.0139973966666667, 225.040564945126, -0.00113576962269366, 0.276249999998868,350.974914550781
0.0146638583333333, 225.049789154311, -0.000985607665171601, 0.288749999999283,345.712341308594
0.015330655, 225.059819548183, -0.00112737004459014, 0.302500000000094,345.712341308594
0.01599747, 225.069251860838, -0.00107580563461324, 0.31624999999913,344.240081787109
0.0166637533333333, 225.079504697448, -0.00102302028600205, 0.328749999999545,352.540588378906
0.01733064, 225.08921184699, -0.000776200183507051, 0.34249999999858,353.865570068359
0.0179978083333333, 225.100641067301, -0.00094238283632209, 0.356249999999392,353.865570068359
0.0186638266666667, 225.111583889285, -0.00088495522085391, 0.368749999999807,350.918151855469
0.0193306083333333, 225.123407860383, -0.00101163735775035, 0.382499999998842,281.279449462891
0.0199974483333333, 225.134907835265, -0.00108140035359383, 0.394999999999257,429.852661132813
0.0206638433333333, 225.146966324838, -0.00116019589578778, 0.407499999999672,361.912353515625
0.021331175, 225.158066229663, -0.00140228673578914, 0.422499999999104,361.801239013672
0.0219973866666667, 225.169497080869, -0.00140257472131707, 0.434999999999519,361.801239013672
0.022663775, 225.180784081761, -0.00153328865571086, 0.447499999999934,359.213684082031
0.0233307616666667, 225.192033875112, -0.0016846895509813, 0.461249999998969,360.051544189453
0.023997445, 225.203365594704, -0.00159058277788589, 0.474999999999781,355.956634521484
0.024664, 225.213847949941, -0.00130382268157963, 0.487500000000196,362.311614990234
0.0253306433333333, 225.224948831781, -0.000984098740988128, 0.501249999999231,362.311614990234
0.0259973966666667, 225.235281067397, -0.00056581625084344, 0.515000000000043,354.019104003906
0.0266638716666667, 225.246476192901, -0.000137163281631791, 0.527499999998682,351.537994384766
0.0273306383333333, 225.25751097317, -0.000441072016616073, 0.541249999999494,353.770965576172
0.0279976466666667, 225.269046385081, -0.000405343811209291, 0.554999999998529,348.871612548828
0.0286638416666667, 225.28228617048, -0.000166456810243383, 0.569999999999737,348.871612548828
0.0293306316666667, 225.297911903388, -0.000648300107782624, 0.582500000000152,351.672637939453
0.029997545, 225.312202753189, -0.000723129849152974, 0.593750000000171,357.638092041016
0.0306638433333333, 225.326209695076, -0.000508045152644406, 0.607499999999206,355.631011962891
0.0313310133333333, 225.340437909628, -0.000631292462083526, 0.621250000000018,355.631011962891
0.0319974233333333, 225.352823162185, -0.00130377018424677, 0.634999999999053,358.551635742188
0.0326638183333333, 225.363049074268, -0.00121662906124907, 0.648749999999865,355.769897460938
0.0333305816666667, 225.373753600036, -0.00158818439842502, 0.6624999999989,357.657318115234
0.03399729, 225.384865590027, -0.00170542750939394, 0.676249999999712,367.016204833984
0.034663875, 225.396150251892, -0.00202142263726007, 0.688750000000127,357.627136230469
0.0353309966666667, 225.407130309361, -0.00188904228659921, 0.702499999999162,357.627136230469
0.0359974583333333, 225.418387199184, -0.0018425071239966, 0.716249999999974,355.441467285156
0.0366637733333333, 225.429402515905, -0.00214250855523026, 0.728749999998612,422.770568847656
0.03733057, 225.440697962018, -0.00191261510258035, 0.742499999999424,356.891235351563
0.0379971083333333, 225.451566792474, -0.00174353009553491, 0.756250000000236,355.561767578125
0.03866401, 225.462387616322, -0.00147843641088941, 0.768749999998875,355.561767578125
0.0393307433333333, 225.474036699818, -0.00136281021866099, 0.782499999999686,350.382354736328
0.0399973616666667, 225.486126469494, -0.00120653756807861, 0.796249999998722,356.05712890625
0.04066411, 225.498088373976, -0.00123858795823223, 0.809999999999533,354.324127197266
0.04133133, 225.509999903179, -0.00106876498823161, 0.822499999999948,354.898284912109
0.04199755, 225.522672535028, -0.00133556708706998, 0.836249999998984,354.898284912109
0.0426638733333333, 225.534620125114, -0.00134625105042223, 0.848749999999399,365.882019042969
0.043331185, 225.546373473519, -0.000956615621428825, 0.86250000000021,358.187622070313
0.04399743, 225.558159378091, -0.00101922247675413, 0.876249999999246,358.210632324219
0.0446638383333333, 225.570051771167, -0.000971328382450873, 0.888749999999661,358.364166259766
0.0453306433333333, 225.582023764109, -0.000945633173056557, 0.902499999998696,358.364166259766
0.0459978133333333, 225.594337318838, -0.000980261933684463, 0.917499999999905,357.620635986328
0.04666389, 225.607037683956, -0.000986972596591106, 0.928749999999923,353.400146484375
0.0473312816666667, 225.619514471344, -0.000859504499179833, 0.942499999998958,355.307189941406
0.0479973466666667, 225.632431049301, -0.000841116922732181, 0.95624999999977,361.231170654297
0.0486639183333333, 225.645329557813, -0.000808895541196585, 0.968750000000185,361.231170654297
0.0493306683333333, 225.658569107103, -0.000756735661125318, 0.98249999999922,365.538787841797
0.049997335, 225.671749492432, -0.00114831949230113, 0.994999999999635,367.029815673828
0.0506641066666667, 225.684851542541, -0.00139223274077127, 1.00874999999867,358.322540283203
0.0513306966666667, 225.69830471289, -0.00187651941556724, 1.02249999999948,362.263824462891
0.0519974066666667, 225.710779014665, -0.00225463242338196, 1.03624999999852,362.263824462891
0.0526638666666667, 225.722804456318, -0.00238282048459181, 1.04874999999893,430.632232666016
0.0533312483333333, 225.733940729626, -0.00214926571583592, 1.06124999999935,361.097869873047
0.05399739, 225.745731029405, -0.00220701431519016, 1.07624999999878,358.711029052734
0.054663785, 225.756913853186, -0.00206019718963996, 1.08874999999919,356.372375488281
0.0553305516666667, 225.768304179561, -0.00167150821309379, 1.10250000000001,356.372375488281
0.0559988866666667, 225.779513250253, -0.00156412410690656, 1.11499999999864,355.191192626953
0.0566641283333333, 225.791072782313, -0.00119578610814946, 1.12749999999906,357.080139160156
0.0573312833333333, 225.802626009834, -0.00117515464443321, 1.14124999999987,350.320281982422
0.0579976016666667, 225.814409603541, -0.00101955246018661, 1.15374999999851,351.675903320313
0.0586640933333333, 225.826256086783, -0.00123091584359181, 1.16749999999932,351.675903320313
0.0593312433333333, 225.838197558916, -0.00129395767707908, 1.18125000000013,358.018371582031
0.05999783, 225.850050728426, -0.00153983282700874, 1.19374999999877,353.70166015625
0.06066386, 225.861799131595, -0.0015632361514898, 1.20749999999958,353.082763671875
0.0613305733333333, 225.873062474349, -0.00155025580347232, 1.22124999999862,354.153472900391
0.0619973883333333, 225.884571231004, -0.0011415683314356, 1.23374999999903,354.153472900391
0.0626641183333333, 225.896457337737, -0.00127051535454228, 1.24749999999985,350.743286132813
0.06333117, 225.909195535209, -0.00146873639813697, 1.25999999999848,348.026489257813
0.0639974666666667, 225.921042275698, -0.00139450512668854, 1.2724999999989,355.415069580078
0.06466417, 225.933479384777, -0.00150149175288765, 1.28624999999971,354.794525146484
0.065331225, 225.9443299685, -0.00172208267285827, 1.29875000000013,354.794525146484
0.065997325, 225.952850229778, -0.00145362915699687, 1.31374999999956,354.063812255859
0.0666645, 225.961383462125, -0.0014521697303187, 1.32624999999997,344.035125732422
0.0673307233333333, 225.97043974795, -0.00144729497517921, 1.33999999999901,341.586181640625
0.0679975633333333, 225.978926345624, -0.00149419611937872, 1.35374999999982,347.859344482422
0.068663875, 225.989071413268, -0.0014798988375014, 1.36625000000024,347.859344482422
0.069330665, 226.00096611083, -0.00168400408552901, 1.38124999999967,417.615844726563
0.0699979033333333, 226.012387915002, -0.00169669794790045, 1.39375000000008,340.468780517578
0.0706642, 226.023494475709, -0.00168851885874796, 1.40624999999872,343.237243652344
0.0713312283333333, 226.035158289242, -0.00176612946042955, 1.41999999999953,344.508148193359
0.07199765, 226.046609740491, -0.00159079276742987, 1.43374999999857,344.508148193359
0.07266413, 226.057771524754, -0.00172225816405596, 1.44624999999898,343.508514404297
0.0733308433333333, 226.06903993008, -0.00154387512404067, 1.45999999999979,347.864349365234
0.0739971416666667, 226.0805147222, -0.00151479008494238, 1.47250000000021,336.890686035156
0.0746641466666667, 226.091916893753, -0.00138569606918042, 1.48624999999925,341.980865478516
0.07533118, 226.102634381802, -0.00178076722518892, 1.50124999999868,341.980865478516
0.075997315, 226.113368580527, -0.00169180669357126, 1.5124999999987,337.713134765625
0.07666385, 226.123774845602, -0.00165946531804089, 1.5274999999999,339.912750244141
0.0773304966666667, 226.134994548727, -0.00175799836883671, 1.53999999999854,348.323669433594
0.07799747, 226.145942173103, -0.00226312799671105, 1.55374999999935,341.815002441406
0.078664125, 226.156861878587, -0.00224627034343102, 1.56624999999977,341.815002441406
0.0793306016666667, 226.167638727527, -0.00221458143516485, 1.5812499999992,344.363037109375
0.07999736, 226.178156015458, -0.00247414789740666, 1.59374999999962,336.658874511719
0.0806638166666667, 226.188416820163, -0.00261111651762473, 1.60749999999865,344.377960205078
0.081331325, 226.198219822565, -0.00238925216166572, 1.62124999999946,339.568023681641
0.0819971433333333, 226.208179372142, -0.00208747931939299, 1.63374999999988,339.568023681641
0.0826640633333333, 226.218385111726, -0.00227015214390299, 1.64749999999891,340.955413818359
0.08333117, 226.228584541879, -0.00208672785711818, 1.66124999999973,349.416900634766
0.0839980033333333, 226.237964281191, -0.0019119551357579, 1.67375000000014,339.897521972656
0.0846638733333333, 226.24750891415, -0.00141685550406848, 1.68749999999918,337.508117675781
0.08533131, 226.257254025962, -0.00141460561708102, 1.70124999999999,337.508117675781
0.085997265, 226.267122934969, -0.00109116336327747, 1.71499999999902,399.083129882813
0.0866640783333333, 226.276797231685, -0.000913611281509102, 1.72624999999904,337.31103515625
0.087331145, 226.286801893766, -0.000731211443261752, 1.74125000000025,328.6240234375
0.08799763, 226.296666352312, -0.00105032641443926, 1.75374999999889,335.213165283203
0.0886651833333333, 226.30675729524, -0.00113029489770785, 1.7662499999993,335.213165283203
0.0893310233333333, 226.316903663494, -0.00123047936556921, 1.78000000000011,326.728546142578
0.0899986916666667, 226.326931899307, -0.00152169873791276, 1.79374999999915,328.881927490234
0.09066455, 226.337106055082, -0.0017846115321146, 1.80749999999996,327.589996337891
0.0913307433333333, 226.34701529286, -0.00166860135917519, 1.8199999999986,326.080383300781
0.091997365, 226.356580132211, -0.00180986576360684, 1.83374999999941,326.080383300781
0.0926641733333333, 226.366199112144, -0.00185654491897342, 1.84624999999983,319.714935302734
0.0933307583333333, 226.37580061864, -0.00179110020616706, 1.85999999999886,320.325805664063
0.0939977683333333, 226.384678627165, -0.00145120377881172, 1.87249999999928,323.605743408203
0.0946637833333333, 226.393843675001, -0.00122070585647851, 1.88625000000009,320.713653564453
0.0953306933333333, 226.403277350154, -0.00121299774365241, 1.89999999999912,320.713653564453
0.09599756, 226.412014159235, -0.00131222975932642, 1.91249999999954,320.322387695313
0.0966640766666667, 226.421259115742, -0.00127737001029791, 1.92624999999857,323.200653076172
0.0973306833333333, 226.430120889013, -0.00153080628046215, 1.93874999999899,323.259643554688
0.09799742, 226.439214480943, -0.00151571853831803, 1.9524999999998,316.329559326172
0.0986638783333333, 226.447592736733, -0.00124739401597656, 1.96500000000022,316.329559326172
0.0993306016666667, 226.456649744747, -0.000898093060997488, 1.97874999999925,320.59423828125
0.0999979266666667, 226.464545477203, -0.000645706738106817, 1.99124999999967,319.258239746094
0.100663811666667, 226.473215038608, -0.000368598656929576, 2.0049999999987,316.233795166016
0.10133071, 226.481859895165, -0.000373948888211177, 2.01749999999912,325.298278808594
0.101997143333333, 226.491262448617, -0.000644299808761512, 2.03124999999993,325.298278808594
0.102663836666667, 226.499824672036, -0.000750657966508137, 2.04499999999896,387.760070800781
0.103330793333333, 226.509143099208, -0.000950408933227948, 2.05749999999938,313.674102783203
0.103997841666667, 226.517563227896, -0.000861709388520213, 2.07125000000019,322.851593017578
0.104663843333333, 226.52607659418, -0.000952432331588008, 2.08374999999883,325.892578125
0.105331235, 226.533851624936, -0.000612381412019136, 2.09624999999924,325.892578125
0.105997296666667, 226.542005437164, -0.000654682287287461, 2.11000000000006,327.809143066406
0.106664101666667, 226.549870674848, -0.000705969211207253, 2.12374999999909,321.823089599609
0.107330656666667, 226.558072421691, -0.000607523156069328, 2.13624999999951,321.414733886719
0.107997821666667, 226.566029688652, -0.000538877604097569, 2.15124999999894,325.629425048828
0.108663815, 226.574065961401, -0.000389564603894019, 2.16374999999935,325.629425048828
0.109330596666667, 226.58215751001, -0.000232804477795557, 2.17624999999977,323.699371337891
0.109997221666667, 226.590730556062, -1.80992622035206E-05, 2.1899999999988,327.805480957031
0.11066381, 226.599275657407, -0.000105921351007825, 2.20374999999962,333.269226074219
0.111330703333333, 226.607907985858, 7.3186152621767E-05, 2.21749999999865,335.037536621094
0.111998036666667, 226.617163916388, 0.0002257614889125, 2.22999999999907,335.037536621094
0.112663935, 226.626489896679, 0.000131782209391372, 2.24374999999988,328.364013671875
0.113330641666667, 226.636170464408, 0.000306077954706403, 2.25624999999852,326.552734375
0.113997738333333, 226.646280026304, 0.000368851301682974, 2.26999999999933,328.018310546875
0.114663855, 226.656901424453, 0.000347607868746437, 2.28375000000014,329.192718505859
0.115330885, 226.667847586228, -3.46449725044217E-06, 2.29749999999918,329.192718505859
0.115997325, 226.67857636634, 0.000143529619379335, 2.31124999999999,328.024078369141
0.116664071666667, 226.689392167236, -1.89272205591353E-05, 2.32374999999863,328.074035644531
0.117330813333333, 226.700505447961, -0.000507932658335415, 2.33749999999944,319.286529541016
0.117997356666667, 226.711451585046, -0.000925118703550035, 2.34999999999985,317.306823730469
0.118664003333333, 226.722327801696, -0.000885048216209421, 2.36499999999928,317.306823730469
0.119330455, 226.73360629616, -0.00142467611124607, 2.3774999999997,382.129730224609
0.119998718333333, 226.744316386363, -0.00155141524529109, 2.39124999999873,325.873138427734
0.120665201666667, 226.755158931632, -0.00122524762837923, 2.40374999999915,319.405548095703
0.12133066, 226.766238037742, -0.00127234376277243, 2.41749999999996,324.100646972656
0.121998886666667, 226.77652196262, -0.00143774795473716, 2.431249999999,324.100646972656
0.122663818333333, 226.786855788301, -0.00121853546552693, 2.44374999999941,327.085510253906
0.123330566666667, 226.797570392913, -0.00131786347640526, 2.45750000000022,319.382659912109
0.123997866666667, 226.808215251961, -0.0016523871736342, 2.47124999999926,317.375061035156
0.124664081666667, 226.818475074465, -0.00165940682105293, 2.48500000000007,322.430877685547
0.125331093333333, 226.829143619235, -0.00163250117243139, 2.49874999999911,322.430877685547
0.125997303333333, 226.839859342832, -0.00151797442504561, 2.51124999999952,327.769989013672
0.126663846666667, 226.850155585853, -0.00125097133631596, 2.52499999999856,322.582672119141
0.127330876666667, 226.861042567025, -0.00122446016791874, 2.53749999999897,321.0234375
0.12799783, 226.871424110379, -0.00088232135324047, 2.55250000000018,318.978485107422
0.128663981666667, 226.881813882132, -0.00100277430304873, 2.56499999999882,318.978485107422
0.12933116, 226.89222858909, -0.00117405369985746, 2.57874999999963,321.642181396484
0.129997856666667, 226.902896976108, -0.00135058283301277, 2.59125000000004,327.689147949219
0.130663828333333, 226.913133097335, -0.00124375669878856, 2.60374999999868,316.649688720703
0.13133064, 226.923804971698, -0.00173336510623872, 2.6174999999995,325.339569091797
0.131997385, 226.934216462511, -0.00147159225481715, 2.63124999999853,325.339569091797
0.132664275, 226.944994376815, -0.00147329016949668, 2.64499999999934,324.554718017578
0.133330708333333, 226.956547889265, -0.00153871988301651, 2.65749999999976,329.291351318359
0.133997318333333, 226.96768283568, -0.00145571705219129, 2.67124999999879,320.558502197266
0.13466384, 226.979130095379, -0.00123966490425133, 2.68374999999921,387.498931884766
0.13533055, 226.990751976782, -0.00149870339301817, 2.69750000000002,387.498931884766
0.135997503333333, 227.002042478184, -0.00152144825057993, 2.71124999999905,319.780609130859
0.136663726666667, 227.012858534019, -0.00148587603733234, 2.72374999999947,321.732086181641
0.137330683333333, 227.023574480252, -0.00158379411901655, 2.73749999999851,324.605194091797
0.137997153333333, 227.03458237597, -0.00167804338495152, 2.74999999999892,327.437316894531
0.138663796666667, 227.045049584528, -0.001232646756757, 2.76374999999973,327.437316894531
0.139330908333333, 227.056348980055, -0.00107695607694935, 2.77625000000015,325.193542480469
0.139997901666667, 227.066971439587, -0.000825021231367821, 2.78999999999918,321.139739990234
0.140663805, 227.078323783907, -0.000881938872475131, 2.8024999999996,326.803558349609
0.14133074, 227.089045107772, -0.000578643606678052, 2.81624999999863,324.364105224609
0.14199796, 227.100369264247, -0.000766944148548014, 2.82999999999944,324.364105224609
0.142664025, 227.110790068411, -0.000519797062469341, 2.84249999999986,334.704010009766
0.14333046, 227.121729712251, -0.000740312986177286, 2.85624999999889,322.128082275391
