Time (min), Depth (µm), Load (N), Position (µm), Acoustic (aJ)
7.84833333333333E-06, 227.422802669626, 0.000198621096436373, 0,331.482757568359
0.000666076666666667, 227.422981040104, 4.26979282611996E-05, 0.00625000000020748,333.586242675781
0.00133123166666667, 227.42289114497, -0.000115410630088332, 0.0225000000000364,333.155120849609
0.002164405, 227.423237275112, -4.02164070242274E-05, 0.0374999999994685,344.433319091797
0.00283108, 227.425375391792, -0.000216169569081162, 0.0524999999989006,348.329864501953
0.00349791166666667, 227.428957566324, -0.000371350274549199, 0.0649999999993156,360.531585693359
0.00416441166666667, 227.434353247544, -0.000566088493041903, 0.0774999999997306,360.531585693359
0.00483199333333333, 227.441684474842, -0.000828110331956922, 0.0924999999991627,363.322387695313
0.00549827833333333, 227.449722964768, -0.000857739843698607, 0.106249999999974,368.388000488281
0.006164685, 227.459065701299, -0.000885443452166443, 0.118749999998613,370.097198486328
0.00683143333333333, 227.468395197839, -0.00109109362256321, 0.132499999999425,369.190551757813
0.00749808, 227.478605735679, -0.000878284311756955, 0.146250000000236,369.190551757813
0.00816449833333333, 227.489084598844, -0.00105955470673737, 0.158749999998875,374.807556152344
0.00883153, 227.500458161678, -0.00115211355761481, 0.172499999999687,376.37744140625
0.00949786833333333, 227.510906103111, -0.000909635737011137, 0.186249999998722,378.572326660156
0.0101649316666667, 227.521815069222, -0.000598146382817544, 0.199999999999534,377.521850585938
0.010831055, 227.53264049052, -0.000673193613247621, 0.211249999999552,377.521850585938
0.0114978616666667, 227.543894164954, -0.000865180969917161, 0.224999999998587,452.927520751953
0.0121649683333333, 227.554971396837, -0.00101066616234221, 0.238749999999399,378.41796875
0.0128313233333333, 227.566431272496, -0.00125603583768421, 0.252500000000211,377.449768066406
0.0134977033333333, 227.576755560343, -0.00131204002468116, 0.266249999999246,378.692901611328
0.014164945, 227.587630982541, -0.00137177752411293, 0.277499999999264,378.692901611328
0.0148312533333333, 227.597799753397, -0.00101540592430667, 0.292499999998697,373.830291748047
0.015498015, 227.608429254683, -0.000816541413057964, 0.304999999999112,377.664764404297
0.016164465, 227.618978935317, -0.000501741725111265, 0.317499999999526,367.102996826172
0.0168312716666667, 227.630560130095, -0.000336192040500671, 0.332499999998959,366.436614990234
0.0174978266666667, 227.643637107398, -5.47911749799215E-05, 0.347500000000167,366.436614990234
0.0181644683333333, 227.659626464727, -0.000154633660013582, 0.358750000000185,372.562866210938
0.0188310366666667, 227.674128220123, -0.000197814991055398, 0.372499999999221,373.117309570313
0.0194985883333333, 227.689158574281, -0.000481585737537123, 0.386250000000032,380.403076171875
0.02016467, 227.70344190591, -0.000367462469815823, 0.398749999998671,382.441986083984
0.0208312416666667, 227.716163138486, -0.000765126995563895, 0.412499999999483,382.441986083984
0.02149847, 227.726513919715, -0.000715007013042379, 0.426249999998518,381.871429443359
0.02216493, 227.737797128192, -0.00093584392061513, 0.43999999999933,376.767547607422
0.022831355, 227.74899537295, -0.00103921722831043, 0.452499999999745,371.743225097656
0.0234982433333333, 227.760795161815, -0.00133067058892465, 0.46624999999878,375.628540039063
0.024164425, 227.772243907031, -0.00107617237211287, 0.478749999999195,375.628540039063
0.0248312183333333, 227.784227707883, -0.00101152861910788, 0.492500000000007,376.494506835938
0.0254979816666667, 227.796381437927, -0.00109926221237239, 0.506249999999042,370.769104003906
0.02616491, 227.808690175536, -0.00105766180192791, 0.519999999999854,370.695037841797
0.0268313233333333, 227.821193321474, -0.000945498935762991, 0.533749999998889,373.896301269531
0.0274978066666667, 227.834195204375, -0.00121050112495613, 0.546249999999304,373.896301269531
0.0281646716666667, 227.846523144462, -0.00135747124279545, 0.560000000000116,451.575225830078
0.0288311633333333, 227.85855060283, -0.000979887708422614, 0.573749999999151,373.391235351563
0.02949836, 227.870693475035, -0.000684470046887945, 0.587499999999963,374.554656982422
0.0301643366666667, 227.882707497799, -0.000734408538535413, 0.599999999998602,375.941619873047
0.0308313033333333, 227.894013322221, -0.000698996817220226, 0.613749999999413,375.941619873047
0.0314985883333333, 227.9054512431, -0.000434624596361474, 0.626249999999828,373.560577392578
0.032164675, 227.917631111048, -0.000696355449878499, 0.639999999998864,375.805755615234
0.032831765, 227.930000618779, -0.000902529094019527, 0.653749999999675,373.165802001953
0.033499165, 227.943220951593, -0.00101726733080992, 0.667499999998711,379.105010986328
0.034164685, 227.956098424644, -0.0006290328314217, 0.678749999998729,379.105010986328
0.03483125, 227.969512120275, -0.000905539442806963, 0.693749999999937,373.863311767578
0.035497905, 227.982840674963, -0.000894417501465192, 0.707499999998973,378.608947753906
0.0361645733333333, 227.995709150909, -0.000979659719828303, 0.719999999999388,377.194152832031
0.0368312566666667, 228.008050943803, -0.00089061969223852, 0.732499999999803,376.113922119141
0.037498455, 228.020991083192, -0.0010102911812839, 0.746249999998838,376.113922119141
0.03816439, 228.034228119177, -0.000947297345377546, 0.758749999999253,376.777862548828
0.03883112, 228.046597800559, -0.000867706843143599, 0.772500000000065,378.711791992188
0.0394984033333333, 228.059592809503, -0.000941815120748459, 0.7862499999991,377.163543701172
0.0401648733333333, 228.072023330035, -0.00108029116524686, 0.799999999999912,382.919738769531
0.0408312266666667, 228.084373904886, -0.00123618583479461, 0.81249999999855,382.919738769531
0.041497785, 228.095674555478, -0.00134852719204853, 0.826249999999362,375.299499511719
0.0421645733333333, 228.107612314991, -0.00131794972793521, 0.838749999999777,380.871490478516
0.042832055, 228.118875819967, -0.00140594580792778, 0.852499999998813,380.891143798828
0.043498085, 228.130303908686, -0.00153470234067776, 0.866249999999624,374.834777832031
0.0441644233333333, 228.141681884545, -0.00147305093736736, 0.878750000000039,374.834777832031
0.0448312566666667, 228.153495045077, -0.00164874911221198, 0.892499999999075,450.451843261719
0.0454985283333333, 228.165129514496, -0.00172624271979011, 0.90499999999949,375.312133789063
0.0461647766666667, 228.176463121444, -0.00176552124691828, 0.918749999998525,376.9130859375
0.046831765, 228.188022705534, -0.00169820162824652, 0.932499999999337,376.753997802734
0.0474984733333333, 228.199000218661, -0.00192945851245531, 0.944999999999752,376.753997802734
0.0481646933333333, 228.209840340697, -0.00175430481025409, 0.957500000000167,368.463104248047
0.0488312466666667, 228.220865704304, -0.0014018960113376, 0.971249999999202,368.247528076172
0.0494981216666667, 228.232091115424, -0.00122370796151599, 0.985000000000014,367.084075927734
0.0501647216666667, 228.24331623634, -0.00100782380517296, 0.998749999999049,365.610778808594
0.05083135, 228.255039093179, -0.000684225559167706, 1.00999999999907,365.610778808594
0.0514984666666667, 228.266914871608, -0.00105760630463998, 1.02374999999988,373.691619873047
0.0521646816666667, 228.278522335341, -0.0014729129442585, 1.03749999999891,374.392669677734
0.0528314566666667, 228.29016719148, -0.00114859473443342, 1.05124999999973,371.699188232422
0.0534977116666667, 228.301609667218, -0.00101227858143703, 1.06375000000014,375.501861572266
0.05416467, 228.312233376356, -0.0011210351187083, 1.07624999999878,375.501861572266
0.054831235, 228.320420933848, -0.000826863894629036, 1.08999999999959,373.840209960938
0.05549845, 228.329356976846, -0.000731159701746604, 1.10374999999863,367.716094970703
0.0561648166666667, 228.338226004245, -0.000807543365075033, 1.11749999999944,366.702178955078
0.056831295, 228.347481555443, -0.00112709781418771, 1.13125000000025,367.272338867188
0.0574985116666667, 228.357046267073, -0.00127098258697693, 1.14374999999889,367.272338867188
0.058164665, 228.369018852543, -0.000970010704484326, 1.1574999999997,359.960021972656
0.05883122, 228.379957152112, -0.000980163694512814, 1.17000000000012,366.044494628906
0.05949804, 228.391067238575, -0.000979620721793818, 1.18374999999915,359.358856201172
0.06016436, 228.401031185301, -0.000875221465679167, 1.19749999999996,436.021697998047
0.060831455, 228.41197106905, -0.000529346338653503, 1.2099999999986,436.021697998047
0.0614977066666667, 228.422325328035, -0.000807997842275491, 1.22374999999941,362.293609619141
0.0621646916666667, 228.433315404986, -0.000662563647280151, 1.23750000000022,362.768615722656
0.0628312633333333, 228.443415464996, -0.000789256283604907, 1.25124999999926,360.49609375
0.0634979466666667, 228.454332047927, -0.000462037219473824, 1.26374999999967,362.628662109375
0.0641645416666667, 228.465013241467, -0.000798050341890249, 1.27749999999871,362.628662109375
0.0648313, 228.475952434889, -0.00070242264519489, 1.29124999999952,358.191528320313
0.0654979283333333, 228.485851561452, -0.000744585527418115, 1.30374999999994,356.201141357422
0.0661648716666667, 228.496527500817, -0.000679349304210075, 1.31749999999897,358.569427490234
0.0668314616666667, 228.507257325365, -0.00101309454056745, 1.33250000000018,358.6015625
0.0674980183333333, 228.517473039018, -0.000723541584512228, 1.3437500000002,358.6015625
0.0681646466666667, 228.52771169553, -0.000473154661148656, 1.35749999999923,365.688262939453
0.068831365, 228.538583828389, -0.000505641529346137, 1.37125000000005,367.070343017578
0.0694986083333333, 228.549813867778, -0.000494216603189891, 1.38374999999868,360.53564453125
0.07016441, 228.560782230173, -0.000461728235025499, 1.3974999999995,364.333984375
0.0708312166666667, 228.571977947272, -0.000632586153013149, 1.41124999999853,364.333984375
0.071499145, 228.583418285284, -0.000839320768966011, 1.42374999999895,370.326019287109
0.0721646916666667, 228.59442239968, -0.000922424094747502, 1.43749999999976,367.485168457031
0.0728312566666667, 228.605564788542, -0.00106323552192435, 1.45124999999879,361.213562011719
0.073497955, 228.616794972758, -0.00105434996822915, 1.46499999999961,364.778564453125
0.0741644216666667, 228.627966435162, -0.0010106346639935, 1.47750000000002,364.778564453125
0.0748317266666667, 228.639070459111, -0.00115826774848283, 1.49124999999906,360.387268066406
0.0754979533333333, 228.650350991227, -0.00111679333173073, 1.50499999999987,349.984191894531
0.0761643716666667, 228.661169273775, -0.000758069850077592, 1.5187499999989,352.915252685547
0.076831495, 228.671948837589, -0.000770637718799153, 1.53124999999932,425.277374267578
0.0774978683333333, 228.682968428845, -0.00093942724067339, 1.54500000000013,425.277374267578
0.0781644083333333, 228.694018763642, -0.000934264500005959, 1.55749999999877,351.221740722656
0.0788312633333333, 228.704870621716, -0.000861761141788889, 1.57124999999958,351.374969482422
0.0794979716666667, 228.716014749164, -0.00113423445573115, 1.58374999999999,350.406097412109
0.0801646766666667, 228.726942305211, -0.000969161747187065, 1.59874999999943,350.406097412109
0.080831385, 228.737794842375, -0.000820462216191973, 1.60999999999945,348.583068847656
0.0814984016666667, 228.748335321798, -0.000674171564234849, 1.62375000000026,349.433135986328
0.0821646633333333, 228.75888664124, -0.000580282280177915, 1.63749999999929,352.481018066406
0.0828312516666667, 228.768341256468, -0.000444513599716243, 1.64999999999971,345.062835693359
0.0834984033333333, 228.77797897758, -0.000646425957883722, 1.66374999999874,350.062927246094
0.0841645083333333, 228.787696497028, -0.000768669817727029, 1.67624999999916,350.062927246094
0.08483115, 228.797125976934, -0.000888141816763019, 1.68999999999997,348.226593017578
0.0854978, 228.806615234642, -0.00140237448739227, 1.70249999999861,342.236511230469
0.086165065, 228.816499161971, -0.00165578075904719, 1.71624999999942,342.914367675781
0.0868311116666667, 228.826683443994, -0.0018210409581842, 1.72874999999983,341.928009033203
0.0874980833333333, 228.835611138084, -0.0017343108145155, 1.74249999999887,341.928009033203
0.08816456, 228.845032723413, -0.00145912413683889, 1.75624999999968,343.701721191406
0.088831725, 228.854245043637, -0.000852577103094938, 1.7687500000001,341.726043701172
0.0894980333333333, 228.863744679057, -0.000653852084836989, 1.78249999999913,336.337463378906
0.09016449, 228.87267527567, -0.000325275588887162, 1.79624999999994,344.203704833984
0.09083131, 228.882142684394, -0.000316550527166879, 1.80874999999858,344.203704833984
0.0914980233333333, 228.891111194998, -0.000599371821373817, 1.821249999999,344.366058349609
0.0921645483333333, 228.900557727895, -0.000848603802670577, 1.83499999999981,348.246490478516
0.092831535, 228.909134094427, -0.000845483959380448, 1.84750000000022,345.529632568359
0.0934985183333333, 228.918145701569, -0.000763246090064652, 1.86124999999926,415.290313720703
0.0941645983333333, 228.927397227539, -0.0010820130787381, 1.87374999999967,415.290313720703
0.0948313033333333, 228.936352164852, -0.00097089715995543, 1.88749999999871,343.502685546875
0.0954984716666667, 228.944859313931, -0.000815563462198261, 1.90124999999952,352.084655761719
0.0961643933333333, 228.95394319025, -0.000983885007616174, 1.91499999999856,348.796325683594
0.0968311483333333, 228.962867906462, -0.00112243004867963, 1.92874999999937,347.464263916016
0.0974980583333333, 228.97172902851, -0.000587615411839435, 1.93999999999939,347.464263916016
0.0981649433333333, 228.981182492916, -0.000442400205849479, 1.9537500000002,351.223480224609
0.0988312833333333, 228.991144684618, -0.00048138924746155, 1.96749999999923,355.219146728516
0.0994979366666667, 229.001156565978, -0.000242526245286094, 1.98125000000005,354.553283691406
0.100164665, 229.011332282213, -0.000149931396201713, 1.99499999999908,351.887664794922
0.100831365, 229.0220870901, -0.000287745973932002, 2.0074999999995,351.887664794922
0.101498263333333, 229.03265883729, -0.000164782150311369, 2.02124999999853,345.201751708984
0.102164736666667, 229.043569044275, 0.000132721906387044, 2.03374999999895,347.905059814453
0.10283127, 229.054564931952, -4.83909964460072E-05, 2.04749999999976,347.403442382813
0.103498441666667, 229.065620216553, -0.000127174539244731, 2.06124999999879,347.109771728516
0.104164375, 229.076617921739, -1.545565078819E-05, 2.07374999999921,347.109771728516
0.104831431666667, 229.087514722198, -0.000169008937938626, 2.08750000000002,342.190185546875
0.105498266666667, 229.097840024711, -0.000349883352855322, 2.10124999999906,342.385345458984
0.106164651666667, 229.108351932317, -0.000307669473244894, 2.11499999999987,341.713165283203
0.106831393333333, 229.118315371333, -0.000193229721431999, 2.1287499999989,343.884979248047
0.107498541666667, 229.128384968547, -9.56986203288411E-05, 2.14124999999932,343.884979248047
0.108164658333333, 229.138676436967, -0.000160414369726443, 2.15500000000013,339.584381103516
0.108831765, 229.149183661859, -5.63855949181419E-05, 2.16874999999916,346.195037841797
0.109498566666667, 229.15934638358, 0.000270690976373377, 2.18249999999998,343.323425292969
0.110164665, 229.170076594073, 0.000341413924026223, 2.19499999999861,406.745483398438
0.110831236666667, 229.180254843067, -0.000208560451308189, 2.20874999999943,406.745483398438
0.111498075, 229.190275476775, 2.77616784818122E-05, 2.22250000000024,347.188232421875
0.11216448, 229.199692927018, -2.04893979781954E-05, 2.23499999999888,340.568939208984
0.112831245, 229.210171827595, -0.000239338905397818, 2.24874999999969,347.286926269531
0.113497728333333, 229.219740915517, -0.000396378017477795, 2.26249999999872,344.522277832031
0.114164471666667, 229.229409993718, -5.83354969824427E-05, 2.27499999999914,344.522277832031
0.114831126666667, 229.238800139186, -0.000107203042414697, 2.28874999999995,342.526397705078
0.115497978333333, 229.24890306119, -0.000229788885021948, 2.30249999999899,335.74951171875
0.116164691666667, 229.257994839222, -0.000212691243794892, 2.3149999999994,338.281219482422
0.116831306666667, 229.267587224188, -0.000196127575761667, 2.32875000000021,341.036773681641
0.117497963333333, 229.27677171419, -9.5296640397481E-05, 2.34249999999925,341.036773681641
0.118164396666667, 229.286546197416, -1.05733959629135E-05, 2.35499999999966,336.908386230469
0.118831366666667, 229.29564892816, -0.000160786350935942, 2.3687499999987,347.080017089844
0.119498413333333, 229.304909373013, -0.000137089041271847, 2.38249999999951,342.958984375
0.120164443333333, 229.314415292224, -0.000229662891372074, 2.39499999999993,346.176971435547
0.120831196666667, 229.324453020636, -0.000419644848774392, 2.40874999999896,346.176971435547
0.121498496666667, 229.334433275523, -0.000901981621527321, 2.42249999999977,346.595520019531
0.122164635, 229.34458202687, -0.000779323782506206, 2.43500000000019,349.232452392578
0.122831781666667, 229.354564008156, -0.000851306666849075, 2.44874999999922,350.056304931641
0.123497956666667, 229.364821920584, -0.000932988064083737, 2.46124999999964,347.811340332031
0.124164465, 229.374482320932, -0.000912506592829071, 2.47375000000005,347.811340332031
0.124831183333333, 229.384426671791, -0.00044347565177414, 2.48749999999909,353.523712158203
0.125497948333333, 229.394456727976, -0.000409596853475386, 2.5012499999999,340.340423583984
0.126165, 229.404515130308, -0.000199937384447327, 2.51499999999893,351.025482177734
0.126831296666667, 229.414201721218, 0.000356062188256423, 2.52874999999975,422.735260009766
0.127497861666667, 229.424509719537, 0.00040458925080663, 2.53999999999976,422.735260009766
0.128164425, 229.434230806029, 0.00034558221468677, 2.5537499999988,349.313323974609
0.128831241666667, 229.444397135883, 0.000385156226922382, 2.56749999999961,347.476867675781
0.129498166666667, 229.454318864527, 0.000170842491705866, 2.58000000000003,346.556579589844
0.130164703333333, 229.465080871125, -0.000252380750209555, 2.59374999999906,347.406158447266
0.130831291666667, 229.475300312371, -9.66705713634061E-05, 2.60624999999948,347.406158447266
0.131498446666667, 229.486237217748, -0.000368092438150208, 2.61999999999851,352.115783691406
0.132164678333333, 229.496645904977, -0.000427837437182741, 2.63374999999932,341.559448242188
0.132831718333333, 229.507348931223, -0.000611392217454394, 2.64750000000014,339.545074462891
0.133499141666667, 229.516810086543, -0.00045236120544808, 2.65999999999877,344.873229980469
0.134164406666667, 229.526585248364, -0.000670436751748097, 2.67249999999919,344.873229980469
0.134831241666667, 229.53583757722, -0.000424357612057084, 2.68625,345.777557373047
0.135498451666667, 229.545504897822, -0.000296379540263687, 2.69999999999904,342.888397216797
0.136165025, 229.554775466036, -0.000291723774108319, 2.71249999999945,343.666229248047
0.136831541666667, 229.564596625676, -0.000409359865334655, 2.72625000000026,343.258911132813
0.137498031666667, 229.574207919066, -0.000261300802187278, 2.7387499999989,343.258911132813
0.13816439, 229.584101040498, -0.000451980224564636, 2.75249999999971,341.302490234375
0.138831105, 229.593708230471, -0.000408108928212305, 2.76500000000013,342.729064941406
0.139498373333333, 229.603633505389, -7.34412382193981E-05, 2.77874999999916,344.645690917969
0.140164706666667, 229.613231513597, -4.95849365047955E-05, 2.7937499999986,344.975158691406
0.140831238333333, 229.623638993343, -9.26852716288354E-05, 2.80499999999861,344.975158691406
0.14149848, 229.633808475781, -8.06318770838621E-05, 2.81874999999943,334.894104003906
0.142164538333333, 229.643467977348, 4.10036689712488E-06, 2.83250000000024,344.532928466797
