Time (min), Depth (µm), Load (N), Position (µm), Acoustic (aJ)
7.84833333333333E-06, 225.809823143374, -0.000168651091801951, 0,294.900482177734
0.00066544, 225.809324051181, -0.000375238715099532, 0.00499999999981071,297.724914550781
0.001332005, 225.808049162352, -0.000113312871367575, 0.0175000000002257,294.061920166016
0.00199876166666667, 225.805785541227, -0.000122664901637199, 0.031249999999261,294.061920166016
0.002665425, 225.803677281989, -0.000268157593663011, 0.0462499999986932,308.196533203125
0.00333231833333333, 225.802321665439, -0.000216854170617292, 0.0599999999995049,320.455780029297
0.00399945333333333, 225.802388237687, -0.000185429249067351, 0.0737500000003166,331.1279296875
0.00466546833333333, 225.805410790158, -0.000649024463149696, 0.087499999999352,334.000183105469
0.00533216333333333, 225.811412381984, -0.000827044521374385, 0.102499999998784,334.000183105469
0.00599866333333333, 225.818937644969, -0.00103866889168952, 0.114999999999199,339.4111328125
0.00666529333333333, 225.826855141135, -0.0012213342165775, 0.128750000000011,329.682281494141
0.00733232, 225.836607069885, -0.00133697090825549, 0.141250000000426,336.814575195313
0.00799871166666667, 225.846163934565, -0.0011788608499603, 0.154999999999461,327.097839355469
0.00866551666666667, 225.855705041526, -0.00118167170878085, 0.168750000000273,327.097839355469
0.00933216833333333, 225.865725461523, -0.00105220871163694, 0.182499999999308,324.271209716797
0.00999872166666667, 225.876139268566, -0.000842594240319721, 0.194999999999723,333.868286132813
0.01066529, 225.887044981103, -0.000818974926703342, 0.211249999999552,328.307434082031
0.0113319683333333, 225.900346700447, -0.000729808905378669, 0.22249999999957,398.515075683594
0.01199884, 225.912736590832, -0.000837292006619024, 0.234999999999985,398.515075683594
0.0126655666666667, 225.925759910911, -0.000905339088647614, 0.249999999999417,333.901733398438
0.013332035, 225.938290467601, -0.00110320615001937, 0.262499999999832,337.872741699219
0.0139986983333333, 225.949877120929, -0.00136705339723072, 0.276249999998868,333.341094970703
0.0146655066666667, 225.959266707213, -0.00151673837872878, 0.289999999999679,325.058135986328
0.0153327516666667, 225.969802505715, -0.00152333204751072, 0.303749999998715,325.058135986328
0.015998775, 225.979831561967, -0.00155811830024347, 0.31624999999913,321.171813964844
0.0166653783333333, 225.990988248524, -0.00171824575722236, 0.328749999999545,328.2119140625
0.0173320416666667, 226.001252056798, -0.00120632897025431, 0.343749999998977,324.008850097656
0.0179986666666667, 226.01226403771, -0.00112405510277409, 0.356249999999392,331.762176513672
0.0186659566666667, 226.023380442707, -0.000948203935619088, 0.370000000000204,331.762176513672
0.0193332666666667, 226.034707083481, -0.000834334155206956, 0.383749999999239,329.994964599609
0.019998725, 226.045908550266, -0.00060618211504427, 0.396249999999654,330.265228271484
0.02066536, 226.057873721199, -0.00123629146534105, 0.410000000000466,327.063415527344
0.0213320533333333, 226.069675338101, -0.000791244319596247, 0.423749999999501,321.749938964844
0.0219987233333333, 226.080942479952, -0.000932438227602191, 0.437500000000313,321.749938964844
0.02266536, 226.093052495352, -0.00101637701140382, 0.449999999998951,329.339630126953
0.0233320366666667, 226.10465624709, -0.00120184269566278, 0.463749999999763,324.09375
0.0239987066666667, 226.116327323422, -0.000862339248586117, 0.476250000000178,329.89697265625
0.0246653916666667, 226.127979856974, -0.00139188315013808, 0.49124999999961,327.171234130859
0.0253319966666667, 226.14068210891, -0.00171167308740333, 0.503750000000025,327.171234130859
0.0259987266666667, 226.152224999406, -0.00180252802383987, 0.51625000000044,331.758239746094
0.0266654483333333, 226.164200834926, -0.00176768327403413, 0.529999999999475,333.896453857422
0.027332105, 226.17589776308, -0.00191792322766767, 0.543750000000287,335.167297363281
0.0279987416666667, 226.187336346879, -0.00178982066212755, 0.557499999999322,396.336090087891
0.02866543, 226.198723506854, -0.00140733987372791, 0.569999999999737,396.336090087891
0.0293324116666667, 226.209989077777, -0.00130551298841118, 0.58499999999917,332.5654296875
0.0299994483333333, 226.222101375478, -0.00120417657841683, 0.596249999999188,329.329620361328
0.0306653983333333, 226.23362407255, -0.00100857140347026, 0.609999999999999,334.666442871094
0.0313323333333333, 226.245976341944, -0.00102923586550212, 0.623749999999035,333.352905273438
0.0319987266666667, 226.2577524203, -0.00127821285965033, 0.637499999999847,333.352905273438
0.03266552, 226.270717353109, -0.0014574268578913, 0.651249999998882,337.715484619141
0.0333320366666667, 226.282528427931, -0.00152157113598499, 0.663749999999297,336.292419433594
0.033998795, 226.295130066402, -0.00169228956098188, 0.676249999999712,339.461608886719
0.03466533, 226.307131359836, -0.00193707876549481, 0.689999999998747,335.378295898438
0.03533213, 226.319594633791, -0.00188149755726459, 0.703749999999559,335.378295898438
0.03599897, 226.331124316378, -0.00176431594317495, 0.716249999999974,334.715423583984
0.03666541, 226.343237715196, -0.00202209599511241, 0.728750000000389,330.182708740234
0.0373320233333333, 226.355048269345, -0.0017620045592232, 0.742499999999424,329.876953125
0.0379988333333333, 226.366518291029, -0.00169722881284946, 0.756250000000236,334.740173339844
0.038665395, 226.378327285912, -0.00134164167363363, 0.769999999999271,334.740173339844
0.0393323333333333, 226.390378215173, -0.00156391250919095, 0.782499999999686,329.811614990234
0.039998695, 226.401789559034, -0.00111403560608126, 0.795000000000101,338.577941894531
0.0406656, 226.413744700636, -0.00113921334140767, 0.808749999999137,338.148742675781
0.0413322483333333, 226.425947852765, -0.00102369364383314, 0.822499999999948,338.266967773438
0.0419986983333333, 226.437474668953, -0.0012817616813623, 0.835000000000363,338.266967773438
0.0426654266666667, 226.449165090972, -0.00106882337703611, 0.847499999999002,327.522338867188
0.0433321733333333, 226.461078291497, -0.00140436702300804, 0.861249999999814,329.460510253906
0.043998695, 226.473358231511, -0.00155817229752199, 0.873750000000229,328.368530273438
0.04466545, 226.485351971733, -0.00183099959368719, 0.888749999999661,404.161956787109
0.0453320516666667, 226.497566313631, -0.00198076407117862, 0.901250000000076,404.161956787109
0.045998745, 226.50979436871, -0.00198784671542229, 0.914999999999111,329.888458251953
0.0466654983333333, 226.522255107231, -0.00210276794309616, 0.927499999999526,335.646636962891
0.04733201, 226.533415795389, -0.0022024904341563, 0.939999999999941,329.708221435547
0.0479988433333333, 226.543381288962, -0.00160174960875505, 0.953749999998976,325.158538818359
0.0486654083333333, 226.553281522319, -0.000993227174189424, 0.968750000000185,325.158538818359
0.049332, 226.563899776069, -0.00108535554665687, 0.981249999998823,318.062835693359
0.0499987866666667, 226.573988938016, -0.00069477966487133, 0.993749999999238,328.164672851563
0.0506657416666667, 226.584765065829, -0.000454634227118547, 1.00875000000045,327.610321044922
0.05133201, 226.597081485449, -0.000582220818536423, 1.02124999999909,328.705596923828
0.0519988516666667, 226.609029584061, -0.000734136188047215, 1.0337499999995,328.705596923828
0.0526654983333333, 226.620421775731, -0.000396753634416821, 1.04874999999893,318.243103027344
0.0533321483333333, 226.631917778796, -0.000167712138955479, 1.06124999999935,319.819091796875
0.053998675, 226.643312203408, -0.000344245771883999, 1.07374999999976,324.718505859375
0.054665405, 226.654907399011, -0.000591062874551448, 1.0874999999988,317.556884765625
0.0553320533333333, 226.666302327195, -0.000758566960957044, 1.10124999999961,317.556884765625
0.0559986716666667, 226.677998196634, -0.00105070128733536, 1.11375000000002,330.352294921875
0.0566655166666667, 226.689311044197, -0.00136735488214204, 1.12749999999906,327.344818115234
0.0573320216666667, 226.700747089067, -0.00126798337345602, 1.14124999999987,319.843139648438
0.0579987266666667, 226.711650588845, -0.00109477207367583, 1.15499999999891,331.685791015625
0.058665355, 226.722821134015, -0.00105138375302386, 1.16874999999972,331.685791015625
0.0593321333333333, 226.733671009691, -0.000654970164461898, 1.18125000000013,326.091186523438
0.0599988266666667, 226.744964320954, -0.000647568036256575, 1.19374999999877,323.240997314453
0.0606654733333333, 226.756380110898, -0.000806395058544046, 1.20749999999958,388.441284179688
0.0613320583333333, 226.767831717887, -0.000769147429440461, 1.2212500000004,323.065460205078
0.0619987033333333, 226.779677753605, -0.000839115915012197, 1.23499999999943,323.065460205078
0.06266543, 226.791150899879, -0.0011359570050181, 1.24875000000024,322.72607421875
0.0633321466666667, 226.802813017666, -0.00129991226966922, 1.26124999999888,328.465911865234
0.0639987016666667, 226.81398384169, -0.001085097559617, 1.27499999999969,319.859375
0.0646653633333333, 226.825733021428, -0.00131193266589857, 1.28750000000011,319.519317626953
0.0653329383333333, 226.837064312874, -0.00132066672720779, 1.30124999999914,319.519317626953
0.06599867, 226.848751346862, -0.00123833286275144, 1.31499999999996,317.311889648438
0.0666654166666667, 226.860558306928, -0.00119851286289244, 1.32750000000037,322.212585449219
0.0673323516666667, 226.872029750292, -0.001355000002707, 1.3424999999998,319.073669433594
0.0679987516666667, 226.883962035798, -0.00151221310610277, 1.35500000000022,319.298980712891
0.0686654166666667, 226.895631588991, -0.00175392896496081, 1.36874999999925,319.298980712891
0.06933213, 226.907501167153, -0.00176907220435036, 1.38124999999967,321.082580566406
0.0699986933333333, 226.918936473638, -0.00149460549049359, 1.39375000000008,313.564361572266
0.070665455, 226.931118280033, -0.00148143315210999, 1.40874999999951,314.911773681641
0.0713320733333333, 226.941980404444, -0.00105462059043869, 1.42124999999993,306.452606201172
0.0719987, 226.953302437163, -0.000439648479833852, 1.43499999999896,306.452606201172
0.07266554, 226.964288173148, -0.000449265996744107, 1.44749999999938,304.881896972656
0.07333289, 226.975493288904, -0.000358858037843504, 1.46125000000019,307.226348876953
0.073998715, 226.986164004793, 2.6784591729555E-05, 1.47374999999883,311.833801269531
0.07466574, 226.997591686201, 0.000108932465496139, 1.48749999999964,304.055053710938
0.0753319966666667, 227.008842723675, -0.00037180088777215, 1.50125000000045,304.055053710938
0.07599879, 227.020021480976, -0.000553714750449082, 1.51374999999909,302.845367431641
0.0766654016666667, 227.031597478481, -0.000483509276779122, 1.52624999999951,304.380218505859
0.0773329916666667, 227.042888638286, -0.000708176991936671, 1.54000000000032,358.578887939453
0.0779987366666667, 227.054108084935, -0.00082009087058689, 1.55374999999935,299.66357421875
0.07866534, 227.065205117496, -0.000754959642065824, 1.56750000000017,299.66357421875
0.079332095, 227.076585016892, -0.000575081177186686, 1.5799999999988,297.009735107422
0.0799988183333333, 227.087325458075, -0.000807254515397146, 1.59249999999922,295.963623046875
0.0806667416666667, 227.098787269369, -0.00102039080978707, 1.60625000000003,306.187805175781
0.0813320366666667, 227.10936739102, -0.00085077932919107, 1.61999999999907,304.9599609375
0.0819987083333333, 227.120360918577, -0.000797845488000198, 1.63249999999948,304.9599609375
0.0826653733333333, 227.131069006726, -0.000896707022282841, 1.64625000000029,301.777984619141
0.0833321733333333, 227.142069835807, -0.000906429533943832, 1.65874999999893,300.763244628906
0.0839988433333333, 227.1528006261, -0.000639606436185074, 1.67249999999974,307.087707519531
0.0846653983333333, 227.163904122479, -0.000763350220707943, 1.68500000000016,305.143432617188
0.085332225, 227.174893528637, -0.000741430321695504, 1.69874999999919,305.143432617188
0.0859989866666667, 227.185792208375, -0.000558484510859098, 1.71250000000001,305.049957275391
0.0866653766666667, 227.196399877438, -0.00042258533691058, 1.72375000000002,305.041687011719
0.08733213, 227.206926208845, -0.000676072604483275, 1.73749999999906,312.295074462891
0.0879988066666667, 227.217434110159, -0.0006802093967101, 1.74999999999947,313.231689453125
0.0886653616666667, 227.227636936057, -0.000475918158098989, 1.76499999999891,313.231689453125
0.0893320733333333, 227.23787078597, -0.000457868064727086, 1.77749999999932,304.662963867188
0.0899987233333333, 227.247975538744, -0.000693170245731585, 1.78999999999974,314.162872314453
0.0906654183333333, 227.258305630266, -0.000511805355535024, 1.80499999999917,308.564270019531
0.0913321366666667, 227.268510479233, -0.000571323865961411, 1.81749999999958,308.8134765625
0.0919987116666667, 227.279048163837, -0.00073380170486278, 1.8312500000004,308.8134765625
0.09266541, 227.290079755711, -0.000730267882394844, 1.84499999999943,310.520843505859
0.0933320566666667, 227.300696040518, -0.000705342134389432, 1.85749999999985,312.039520263672
0.0939987416666667, 227.311566199614, -0.000984943090328715, 1.87124999999888,375.38623046875
0.094665375, 227.322542023077, -0.00117161171415038, 1.88499999999969,309.801116943359
0.0953322166666667, 227.333268659284, -0.00111205570561391, 1.89750000000011,309.801116943359
0.09599877, 227.343774615064, -0.00106600501867856, 1.91124999999914,312.891082763672
0.0966654583333333, 227.355124121908, -0.00109460108233637, 1.92499999999995,306.724700927734
0.0973320266666667, 227.365701242, -0.000959247880998161, 1.93750000000037,304.657867431641
0.0979989033333333, 227.376673187003, -0.00100200773319764, 1.9512499999994,307.511779785156
0.0986662216666667, 227.387539558189, -0.00109521455150232, 1.96500000000022,307.511779785156
0.0993320233333333, 227.398496894041, -0.00109870787599011, 1.97874999999925,306.678466796875
0.0999986766666667, 227.408975284171, -0.000980377319637542, 1.99124999999967,308.394958496094
0.100665481666667, 227.42020129984, -0.000921191792428679, 2.0049999999987,304.752502441406
0.101332351666667, 227.431045307482, -0.00074510063730539, 2.01874999999951,303.751007080078
0.101998735, 227.44216374614, -0.000518738007274603, 2.03250000000033,303.751007080078
0.102665473333333, 227.45279161794, -0.000411721382629931, 2.04624999999936,306.543579101563
0.103332286666667, 227.463914611784, -0.000292838853990693, 2.05874999999978,307.326354980469
0.103998693333333, 227.474539998909, -0.000339663502024391, 2.07125000000019,302.760101318359
0.104665565, 227.485454064568, -0.000315564212513952, 2.08499999999923,306.561950683594
0.10533212, 227.495823028299, -0.000472546327466604, 2.10000000000043,306.561950683594
0.105998706666667, 227.50660888185, -0.00104975633479127, 2.11125000000045,305.110412597656
0.106665341666667, 227.51654540133, -0.00106813041187679, 2.12499999999949,303.949066162109
0.10733205, 227.526716629201, -0.00123477504147179, 2.1387500000003,303.927276611328
0.107998721666667, 227.536505012885, -0.00140237962287617, 2.15249999999934,303.578582763672
0.108665626666667, 227.546560658187, -0.00165989568813991, 2.16499999999975,303.578582763672
0.109332195, 227.555838209357, -0.00112531203972158, 2.17874999999879,307.904815673828
0.109998725, 227.565922008185, -0.00125313261943138, 2.1924999999996,305.628784179688
0.110665431666667, 227.575561051848, -0.00104454109676973, 2.20625000000041,367.024383544922
0.111332175, 227.58535951777, -0.000696591573933039, 2.21999999999944,308.862426757813
0.111998848333333, 227.594849677661, -0.000637538040135424, 2.23249999999986,308.862426757813
0.1126654, 227.60512006656, -0.000974401619858529, 2.24500000000027,309.9931640625
0.11333204, 227.614806578498, -0.000892568730216629, 2.25874999999931,307.170135498047
0.113998705, 227.624286536921, -0.00107679097691149, 2.27250000000012,307.724273681641
0.114665421666667, 227.634063812283, -0.00126524301116744, 2.28499999999876,305.204559326172
0.115332188333333, 227.643989762833, -0.00123277714189035, 2.29874999999957,305.204559326172
0.115998806666667, 227.65342984771, -0.00118517853267329, 2.31250000000038,305.717651367188
0.116665356666667, 227.663591865274, -0.00129937079691713, 2.32499999999902,307.379425048828
0.117332071666667, 227.673547166134, -0.00106184272771563, 2.33874999999983,307.850708007813
0.11799866, 227.683569293038, -0.00098316417966764, 2.35125000000025,309.359344482422
0.118665605, 227.693598140251, -0.000701214341709027, 2.36499999999928,309.359344482422
0.119332096666667, 227.703519460145, -0.000564418212818582, 2.3787500000001,311.258056640625
0.119998758333333, 227.713428219743, -0.000517629562949309, 2.39124999999873,303.729095458984
0.120665573333333, 227.723083069273, -0.000513194285723728, 2.40374999999915,306.216064453125
0.121332271666667, 227.7324459145, -0.000654334196408646, 2.41749999999996,306.7880859375
0.121998913333333, 227.741949357105, -0.000872192253648937, 2.431249999999,306.7880859375
0.122665536666667, 227.751787257359, -0.00126947879836237, 2.44374999999941,309.591918945313
0.123332068333333, 227.760942476694, -0.00159375051055221, 2.45750000000022,308.924896240234
0.12399867, 227.770536589681, -0.00183500439260903, 2.47124999999926,306.6396484375
0.12466537, 227.779498917072, -0.00168221156723732, 2.48374999999967,304.968841552734
0.125332211666667, 227.788517641079, -0.00162171810575753, 2.49749999999871,304.968841552734
0.125998765, 227.797467868989, -0.00154665887588971, 2.50999999999912,307.047119140625
0.126665388333333, 227.806356967207, -0.00118236467400393, 2.52374999999994,309.375396728516
0.12733203, 227.815084028298, -0.000826456550902037, 2.53625000000035,367.759155273438
0.127998668333333, 227.824554085418, -0.00107350014213312, 2.54999999999939,304.813568115234
0.128665381666667, 227.834237966883, -0.00122303663107276, 2.5637500000002,304.813568115234
0.12933211, 227.843555759664, -0.00128901531707295, 2.57624999999884,301.216400146484
0.129998765, 227.852519580176, -0.00131023175139149, 2.58874999999925,309.058349609375
0.130665431666667, 227.861771684167, -0.00154824579618466, 2.60250000000006,304.061340332031
0.131333046666667, 227.870478880236, -0.00108772092788714, 2.6162499999991,310.191833496094
0.13199873, 227.879509465651, -0.000870285849413585, 2.62874999999951,310.191833496094
0.132665548333333, 227.888982306266, -0.000430089459996579, 2.64374999999895,308.507659912109
0.133332025, 227.898495757848, -0.000283875304205275, 2.65499999999896,307.715209960938
0.133998868333333, 227.909613697781, -0.000233152351988633, 2.67000000000017,303.051422119141
0.134665411666667, 227.920504315503, -0.000406834628116461, 2.68249999999881,308.468475341797
0.135332103333333, 227.931480715501, -0.000611847330493064, 2.69624999999962,308.468475341797
0.135998846666667, 227.94255200797, -0.00125799387525125, 2.71000000000043,306.505584716797
0.13666542, 227.953876316186, -0.00159916373863749, 2.72374999999947,309.711486816406
0.137332068333333, 227.964222840382, -0.00154810780311831, 2.73624999999988,306.178649902344
0.137998703333333, 227.975009725274, -0.00179045963002961, 2.74999999999892,316.757019042969
0.138665343333333, 227.985651566932, -0.00200131453904086, 2.76374999999973,316.757019042969
0.139332156666667, 227.996146756829, -0.00162252806510532, 2.77625000000015,305.950805664063
0.139998745, 228.006692851183, -0.00144815732359138, 2.78999999999918,312.056304931641
0.140665971666667, 228.017353434805, -0.00151694836827276, 2.80374999999999,312.788604736328
0.14133219, 228.028473548084, -0.0014966033901813, 2.81625000000041,307.373352050781
0.141998656666667, 228.038975451187, -0.00118824587865181, 2.82999999999944,307.373352050781
0.142665741666667, 228.050067678609, -0.00107781092565449, 2.84375000000026,307.729095458984
