Time (min), Depth (µm), Load (N), Position (µm), Acoustic (aJ)
1.51716666666667E-05, 268.688175410184, 2.01017319730679E-05, 0,109.068878173828
0.00066524, 268.68821064129, -0.000714450372224798, 0.00124999999999995,101.735336303711
0.001330355, 268.687998860085, -0.00050636882394527, 0.00500000000000023,102.647575378418
0.001997235, 268.687944058212, -0.000517172781292296, 0.0137499999999999,104.999572753906
0.00266374, 268.689237982286, -0.000241609622569223, 0.0225,102.198150634766
0.00333191, 268.690077494513, -0.000288027791004622, 0.03125,102.198150634766
0.003997205, 268.69199750989, -7.70087154789127E-06, 0.0375000000000002,106.084190368652
0.00466376333333333, 268.694476572994, -0.00038899821933831, 0.04375,86.1353912353516
0.00533052, 268.697151216699, -0.000459451180577316, 0.0500000000000001,105.031265258789
0.00599783666666667, 268.699798719889, -0.000475753861658104, 0.0562499999999999,106.115753173828
0.006663705, 268.702683846938, -0.000466103346389723, 0.0649999999999999,106.115753173828
0.00733044166666667, 268.706558983963, -0.000167903324683183, 0.0712500000000001,103.672760009766
0.00799713333333333, 268.709093257528, 0.000198646763823914, 0.0774999999999999,101.407836914063
0.00866455333333333, 268.712717741004, 0.000194605966801406, 0.085,105.404090881348
0.00933041, 268.714926271197, 0.000203709009556327, 0.0912500000000002,112.679969787598
0.00999713833333333, 268.7178592059, 0.00020633087781705, 0.0987499999999999,112.679969787598
0.0106637766666667, 268.720018141434, 0.000160593675145746, 0.105,103.667465209961
0.0113304133333333, 268.723534175994, 7.17561374141658E-05, 0.11125,128.201934814453
0.0119971766666667, 268.727423380214, -7.74053703608922E-05, 0.1175,101.614479064941
0.0126637966666667, 268.731283547401, -0.000125878435590074, 0.125,106.688957214355
0.0133304566666667, 268.735970249182, -3.62024399045309E-05, 0.13125,106.688957214355
0.0139972766666667, 268.740154313815, -0.000317262822500725, 0.1375,103.734046936035
0.0146645316666667, 268.744444017209, -0.000482239535925512, 0.14375,102.372268676758
0.0153304933333333, 268.746972734741, -0.0001212661672424, 0.15125,108.520172119141
0.01599705, 268.750933149343, -0.000220856664933805, 0.15625,102.385330200195
0.0166638, 268.75352104256, -0.000401824075163503, 0.1625,102.385330200195
0.0173305683333333, 268.756756321142, -0.00038136510279614, 0.17,106.31436920166
0.0179971633333333, 268.760145364283, -0.000111756644931688, 0.1775,105.705131530762
0.018664075, 268.763697868152, -0.000390420147948902, 0.18375,104.18091583252
0.0193305416666667, 268.767979981269, -0.000522878494678724, 0.18875,111.56031036377
0.0199970933333333, 268.771397799122, -0.00067161852361145, 0.19625,111.56031036377
0.02066387, 268.775711446867, -0.000361110120126366, 0.20375,100.731941223145
0.0213304266666667, 268.779051583282, -0.000568420707135095, 0.20875,104.43726348877
0.0219971066666667, 268.784062217683, -0.000505509367134678, 0.215,114.55680847168
0.0226642033333333, 268.787270858323, -0.000610972069842526, 0.2225,108.898330688477
0.0233304416666667, 268.792044839294, -0.000394736931082863, 0.23,108.898330688477
0.0239973783333333, 268.795982828194, -0.000559448157824512, 0.235,105.693885803223
0.02466398, 268.800503104175, -0.000322889039915033, 0.2425,103.676345825195
0.0253304516666667, 268.804491253391, -0.000298201779910993, 0.24875,100.948097229004
0.025997065, 268.807914134129, 0.000281871583609594, 0.255,105.607322692871
0.0266637816666667, 268.811908443914, 0.000389522676404369, 0.2625,105.607322692871
0.0273306833333333, 268.815428417174, 0.000221516115196157, 0.26875,105.212074279785
0.0279970633333333, 268.819881659542, -6.06092139176372E-05, 0.27625,123.216201782227
0.0286637216666667, 268.823411029288, -5.30570932294799E-05, 0.28125,112.792602539063
0.0293305, 268.828506529273, -0.000303394519023981, 0.28875,100.27596282959
0.029997075, 268.831979269638, -0.000359221714877582, 0.295,100.27596282959
0.0306639933333333, 268.836585235313, -0.00024848377712955, 0.30125,102.311058044434
0.031330455, 268.840386156052, -1.4450532361494E-05, 0.3075,104.683547973633
0.03199708, 268.844007903451, -0.000159437749842154, 0.315,108.64501953125
0.03266374, 268.847751198963, -2.66712427286938E-06, 0.32125,111.509437561035
0.0333304233333333, 268.851460323337, -0.000144549497664925, 0.32875,111.509437561035
0.0339978966666667, 268.855069972264, -0.000251033649103933, 0.335,109.587265014648
0.0346647016666667, 268.858082979428, -0.000374561444427716, 0.34125,104.563789367676
0.03533054, 268.862130902395, -0.000275908399637126, 0.3475,98.8415679931641
0.0359972316666667, 268.865115971811, -0.000348572249807853, 0.355,103.540130615234
0.03666381, 268.868649221798, -1.30046050454666E-05, 0.36125,103.540130615234
0.0373303816666667, 268.87164470162, 0.000500520101180435, 0.3675,102.806022644043
0.03799709, 268.874865450632, 0.000425159386443806, 0.37375,104.35578918457
0.038663905, 268.878572412281, 0.000318670735231589, 0.38,104.820877075195
0.0393303883333333, 268.879998261713, 0.000358520733599908, 0.3875,102.164405822754
0.039997415, 268.882394994718, 9.08606778966083E-05, 0.39375,102.164405822754
0.0406637766666667, 268.883771638162, -0.000475510873862268, 0.4,103.123611450195
0.0413305683333333, 268.886343027968, -0.000412151056359006, 0.4075,109.744552612305
0.0419971433333333, 268.88710678042, -0.000308659254657105, 0.41375,104.40062713623
0.04266398, 268.891019577054, -0.000301477615381569, 0.42,106.629768371582
0.0433306983333333, 268.893883792278, -0.000261078644596641, 0.42625,106.629768371582
0.0439970666666667, 268.897569255393, 7.48309830359592E-05, 0.43375,126.579063415527
0.044663895, 268.900549390379, 0.000297067320353253, 0.44,105.983367919922
0.0453304133333333, 268.903925473361, 0.000403305484126364, 0.44625,108.525230407715
0.0459972316666667, 268.907233770144, 0.000423866451374403, 0.455,103.009613037109
0.0466638116666667, 268.909802296785, 0.00032643734515192, 0.46,103.009613037109
0.04733047, 268.91324744902, 0.000414574418123417, 0.46625,101.052909851074
0.04799722, 268.915626982908, 0.000111018165437662, 0.4725,107.936462402344
0.048664585, 268.919296747003, 1.3317572834428E-05, 0.48,101.644226074219
0.0493303966666667, 268.921481549969, -5.3189086640729E-05, 0.48625,105.922271728516
0.04999735, 268.925153760864, 0.000229437217330023, 0.4925,105.922271728516
0.05066382, 268.927872655068, 8.7847329260365E-05, 0.5,111.824775695801
0.0513305116666667, 268.931229713092, 0.000516318807576712, 0.50625,104.22721862793
0.05199742, 268.934488673236, 0.000290985125856592, 0.51375,104.449844360352
0.05266403, 268.937451505356, 0.000263752493736395, 0.52,105.834426879883
0.0533305033333333, 268.940552298526, 0.000483513955363232, 0.52625,105.834426879883
0.053997055, 268.942884265706, 0.00021241607233255, 0.5325,103.889183044434
0.0546638116666667, 268.946025345045, 4.98699127470941E-06, 0.53875,106.951995849609
0.0553304866666667, 268.947879032398, -0.000119518754951285, 0.545,106.796020507813
0.0559970883333333, 268.951384379759, -1.40935503110104E-05, 0.5525,107.054153442383
0.05666393, 268.953585268862, -0.00048175206032442, 0.56,107.054153442383
0.0573304383333333, 268.956274113866, -0.000297289825682525, 0.56625,103.061515808105
0.05799716, 268.958452570859, -0.000501476069606662, 0.5725,106.33716583252
0.0586639283333333, 268.961203301776, -0.000450093150503808, 0.57875,100.793586730957
0.0593304483333333, 268.963588218654, -0.000454175945473369, 0.585,105.870292663574
0.0599971833333333, 268.965883807391, -0.000756098780186419, 0.59125,105.870292663574
0.0606637366666667, 268.969002754661, -0.000518087735220792, 0.59875,124.241363525391
0.0613304366666667, 268.971219468392, -0.000376626840649814, 0.60625,104.334030151367
0.0619972016666667, 268.9741735807, -0.000470585121229297, 0.6125,101.593841552734
0.0626637766666667, 268.976186536794, -0.000673944906700968, 0.61875,105.06282043457
0.063330455, 268.978604429757, -0.000311383117777249, 0.625,105.06282043457
0.063997375, 268.980397315672, -0.000490543118760955, 0.63125,110.782035827637
0.06466387, 268.982328175432, -0.00022969572082372, 0.63875,106.012550354004
0.0653305666666667, 268.983872238419, 0.000152872063170054, 0.645,106.672889709473
0.065997065, 268.985317675982, 0.000278976729086225, 0.65125,101.24373626709
0.06666377, 268.987346432144, 0.000365717372204493, 0.6575,101.24373626709
0.0673305233333333, 268.988948981604, 0.000235366419580061, 0.665,105.367042541504
0.0679971333333333, 268.991228214399, 0.000121244651783164, 0.6725,101.3857421875
0.0686639783333333, 268.992677285162, -0.000169656736523132, 0.67875,105.077140808105
0.0693306216666667, 268.99509812414, -0.000317258322663753, 0.68375,101.230026245117
0.0699971016666667, 268.997344620936, -0.00058878668410444, 0.69125,101.230026245117
0.0706640133333333, 268.999324301714, -0.000445641374131045, 0.69875,98.8130340576172
0.0713304516666667, 269.001210036064, -0.000588414702788669, 0.705,107.765594482422
0.0719973216666667, 269.003178321452, -0.000451305089655436, 0.71,102.185173034668
0.0726637683333333, 269.005216646437, -0.000175651935404404, 0.7175,103.626770019531
0.07333049, 269.006435483646, 8.27115872534463E-05, 0.72375,103.626770019531
0.073997105, 269.00865565823, 0.000145570429921003, 0.73125,104.619476318359
0.074663715, 269.010254066701, 0.000263295016750894, 0.7375,106.197265625
0.0753305983333333, 269.012285998536, 0.00035473192394091, 0.745,105.86873626709
0.075997265, 269.014249697502, -7.32370796153288E-05, 0.75,105.167175292969
0.0766641466666667, 269.016366423476, -0.000227462333004695, 0.75625,105.167175292969
0.0773304033333333, 269.018197499185, -0.000454631922513214, 0.76375,122.714645385742
0.0779970816666667, 269.020068915324, -0.0006213140502183, 0.77125,102.550888061523
0.0786639166666667, 269.022992289212, -0.000474067946246268, 0.7775,100.302612304688
0.0793306283333333, 269.024408922884, -0.000369239711667269, 0.785,106.325553894043
0.0799971216666667, 269.027438318818, -0.000476403328988477, 0.79,106.325553894043
0.08066385, 269.029402113018, -0.000583050972187439, 0.7975,106.43187713623
0.0813305533333333, 269.032125352655, -0.00034226806649951, 0.80375,104.782432556152
0.0819971616666667, 269.033001883642, -0.000264117491905231, 0.81,105.791206359863
0.08266388, 269.035689808957, -3.18841567398958E-05, 0.8175,105.287605285645
0.08333039, 269.037356606931, 0.000100940171608083, 0.82375,105.287605285645
0.0839971666666667, 269.039869479172, 0.000428229732228627, 0.83,99.5404052734375
0.0846637783333333, 269.042330484428, 0.000325823875985971, 0.83625,105.695442199707
0.0853304833333333, 269.044649504478, -0.000181135659979149, 0.84375,103.66040802002
0.08599743, 269.047483528666, -0.000245572423395237, 0.85,108.036514282227
0.0866638166666667, 269.049678957315, -0.000314193976576544, 0.85625,108.036514282227
0.0873304883333333, 269.05270769578, -0.000388324753068707, 0.8625,106.281867980957
0.08799707, 269.054548551603, -0.000459823161786815, 0.87,105.828979492188
0.08866372, 269.057624562487, 6.35515496105915E-05, 0.87625,102.679267883301
0.0893304983333333, 269.060218881545, 0.000263317515595688, 0.88375,103.890068054199
0.0899971866666667, 269.062633109545, 0.000626818257344626, 0.89,103.890068054199
0.0906637733333333, 269.064626624221, 0.000739464099252413, 0.895,98.4745788574219
0.0913311866666667, 269.067155919419, 0.000756765730219566, 0.90375,107.45223236084
0.09199791, 269.070196798937, 0.000931935931610475, 0.91,107.028915405273
0.0926638416666667, 269.072020574993, 0.000643878400419092, 0.91625,102.469421386719
0.093330495, 269.075106938906, 0.000728921128815315, 0.9225,102.469421386719
0.0939972, 269.076865795805, 0.000779795573439194, 0.92875,125.918838500977
0.0946638816666667, 269.079450976143, 0.00143818000344395, 0.93625,104.155738830566
0.0953304166666667, 269.081002468824, 0.000987488641213263, 0.9425,106.560493469238
0.095997135, 269.084016383215, 0.00112143641315182, 0.95,103.546401977539
0.0966638633333333, 269.086002355194, 0.00106539622801171, 0.955,103.546401977539
0.097330435, 269.088529198114, 0.00111780809542523, 0.96125,103.471061706543
0.097997175, 269.091096257201, 0.000631807006760025, 0.96875,101.559066772461
0.0986639533333333, 269.093015017546, 0.00104359782293969, 0.975,102.339706420898
0.0993303916666667, 269.095348296244, 0.00141367273449583, 0.98125,113.11434173584
0.099997205, 269.09665863125, 0.00111634566889826, 0.9875,113.11434173584
0.10066391, 269.09980053809, 0.000820488529492178, 0.995,102.993156433105
0.101330398333333, 269.101242458553, 0.000875840249267437, 1.00125,101.861343383789
0.101997138333333, 269.104068775112, 0.00090965905059006, 1.0075,99.8824462890625
0.102663778333333, 269.105195509326, 0.000914701797241469, 1.015,103.350959777832
0.103330451666667, 269.108048189846, 0.00105967551535999, 1.0225,103.350959777832
0.103997175, 269.109884535036, 0.00144852648378423, 1.02875,113.088508605957
0.104663953333333, 269.112325082917, 0.00130275180586433, 1.03375,102.566192626953
0.105330455, 269.114973752584, 0.00126633513505018, 1.04,103.736770629883
0.105997083333333, 269.117159883549, 0.000924703294883974, 1.0475,105.790458679199
0.106663788333333, 269.120741606162, 0.00109803758844398, 1.055,105.790458679199
0.107330456666667, 269.122938533058, 0.000741725985592591, 1.06,102.213806152344
0.107997636666667, 269.126802790648, 0.00068801668335771, 1.0675,100.890464782715
0.108663963333333, 269.128802627603, 0.00034383347131397, 1.07375,108.264434814453
0.109330416666667, 269.132558842586, 0.000769867572071195, 1.08,107.691963195801
0.109997263333333, 269.134512880326, 0.00034549688777474, 1.08625,107.691963195801
0.110663801666667, 269.137662469325, 0.000611864008429891, 1.095,124.954208374023
0.111331328333333, 269.140329711343, 0.000937221666057719, 1.1,100.335357666016
0.111997086666667, 269.143791550736, 0.00125930348821497, 1.10625,105.051025390625
0.112663793333333, 269.147517340185, 0.000996782174367397, 1.11375,103.406684875488
0.113330395, 269.150233790679, 0.00126793555464351, 1.12,103.406684875488
0.11399716, 269.154530430891, 0.00127988845425346, 1.12625,108.126800537109
0.114663841666667, 269.157738214856, 0.000859414574215549, 1.1325,99.2128524780273
0.115330478333333, 269.162371861146, 0.000266441858616519, 1.14,103.576812744141
0.115997066666667, 269.165565715509, 0.000174941954559057, 1.14625,109.670532226563
0.116663718333333, 269.170226263214, 0.000200095691095018, 1.1525,109.670532226563
0.117330463333333, 269.173476366951, -0.000141051673467684, 1.15875,107.939109802246
0.117997118333333, 269.177351450074, -8.41550312807655E-05, 1.16625,103.732276916504
0.118663743333333, 269.181194677115, 6.88747822104256E-05, 1.1725,104.973022460938
0.119330483333333, 269.184811909449, -0.000245518426137973, 1.17875,109.513366699219
0.119997126666667, 269.189370084219, -0.000574705391404942, 1.185,109.513366699219
0.120663745, 269.193460792616, -0.000787009227559773, 1.19125,101.521293640137
0.121330555, 269.19874670351, -0.000607195259451229, 1.1975,105.970771789551
0.121997173333333, 269.202742611971, -0.000599413650329374, 1.205,106.338722229004
0.12266385, 269.207331325969, -0.000364166966527795, 1.2125,100.30313873291
0.123330551666667, 269.211012344999, 6.59979266948787E-05, 1.21875,100.30313873291
0.123997058333333, 269.215413584484, 0.000341643581281386, 1.225,105.826026916504
0.12466379, 269.219442115944, 0.000317436297213912, 1.23125,107.874557495117
0.125330491666667, 269.223053009968, 0.000684973336212148, 1.23875,101.900543212891
0.125997318333333, 269.228188739221, 0.000807538179899007, 1.24375,124.38330078125
0.126663728333333, 269.232171388304, 0.00046279249607652, 1.25125,124.38330078125
0.127330388333333, 269.237355731249, 0.000589035155080299, 1.25875,101.938934326172
0.127997446666667, 269.240572698938, 0.000659924594384414, 1.265,108.641487121582
0.128663913333333, 269.245752780784, 0.000441355572891963, 1.27125,104.730690002441
0.129330493333333, 269.249561832296, 0.000284538449687431, 1.27875,107.326103210449
0.129997083333333, 269.254137737572, 0.000685736797882185, 1.285,107.326103210449
0.130663985, 269.257861808786, 0.000758865624681684, 1.29125,107.095558166504
0.131330628333333, 269.262566481485, 0.000809456583529585, 1.2975,108.553413391113
0.131997098333333, 269.267068896602, 0.000752522443275093, 1.305,107.091339111328
0.132663841666667, 269.27116693392, 0.000942733889153618, 1.31125,106.325729370117
0.133330468333333, 269.276535147507, 0.000845313782456301, 1.3175,106.325729370117
0.133997145, 269.281086210676, 0.000574179901239941, 1.32375,102.196502685547
0.134663736666667, 269.28701158926, 0.000627389728563521, 1.33125,101.392646789551
0.135330633333333, 269.291023807298, 0.000456377318319827, 1.3375,104.288345336914
0.135997138333333, 269.296749917186, 0.000583896413182065, 1.34375,107.596649169922
0.136663933333333, 269.300537186612, 0.000397026799469114, 1.35125,107.596649169922
0.137330411666667, 269.30587078631, 0.00059484286338991, 1.3575,105.214553833008
0.137997065, 269.309819828927, 0.000614874357238582, 1.36375,103.336250305176
0.138664108333333, 269.3140358439, 0.000950352006536773, 1.37,99.6092147827148
0.139330571666667, 269.318558469524, 0.000925577750938598, 1.3775,103.731605529785
0.139997053333333, 269.322805221399, 0.000988322599308999, 1.38375,103.731605529785
0.14066401, 269.327545450673, 0.00116822356307544, 1.39,103.712097167969
0.141330483333333, 269.332107204972, 0.000685796794879569, 1.39625,99.4738540649414
0.141997215, 269.337983004559, 0.000646474769964959, 1.40375,104.699851989746
0.142663916666667, 269.342032804652, 0.000277929781597701, 1.41,127.265357971191
0.143330483333333, 269.347630757142, 0.000415588367147544, 1.41625,127.265357971191
0.143997303333333, 269.351963229827, 6.78278347856648E-05, 1.42375,104.231094360352
0.144663721666667, 269.356651822065, 0.000317299804050708, 1.43,103.597702026367
0.145330455, 269.361185435044, 0.000345792372903436, 1.43625,105.205825805664
0.145997121666667, 269.365722595259, 0.000591754518490995, 1.44375,102.58618927002
0.146663845, 269.370843150046, 0.000528135214044716, 1.45125,102.58618927002
0.147330446666667, 269.374599842672, 0.000701355513350071, 1.4575,106.219764709473
0.147997056666667, 269.379927541456, 0.000670613057531136, 1.4625,104.128799438477
0.148663855, 269.383847509286, 0.000133308545798961, 1.47,96.2868576049805
0.149330471666667, 269.389171189839, 0.000301837080763269, 1.47625,104.356346130371
0.149997193333333, 269.392612422577, 0.000110643184209323, 1.4825,104.356346130371
0.150663825, 269.398366335025, -1.50055045819863E-05, 1.48875,107.155708312988
0.151330495, 269.402399374394, -9.13666690656209E-05, 1.49625,100.727249145508
0.151997308333333, 269.40753561342, 0.000353486986388649, 1.5025,106.58960723877
0.15266395, 269.412577050153, 0.000459953138713563, 1.51,105.059661865234
0.153330726666667, 269.418438121677, 0.000207515818414435, 1.51625,105.059661865234
0.153997058333333, 269.423820291366, 0.000166669870072319, 1.52375,105.775611877441
0.154663806666667, 269.428094372762, 0.000393582972465373, 1.52875,103.151206970215
0.155330475, 269.434448662743, 0.000140068706210911, 1.535,101.974349975586
0.155997321666667, 269.438060662639, -0.000210595680263266, 1.5425,105.458206176758
0.156663853333333, 269.444070624007, 0.000258459259603372, 1.54875,105.458206176758
0.157330428333333, 269.447727035683, 0.000206146387242974, 1.5575,106.412590026855
0.157997246666667, 269.453998749601, 0.000178106795645046, 1.56125,105.754364013672
0.158663991666667, 269.457086591155, 0.000585123351641488, 1.56875,102.70482635498
0.159330571666667, 269.462562818804, 0.00068694873707632, 1.575,126.292457580566
