Time (min), Depth (µm), Load (N), Position (µm), Acoustic (aJ)
9.01333333333333E-06, 268.609212582745, 0.000245934380992375, 0,104.500839233398
0.000665858333333333, 268.60927607414, 0.000552223496429709, 0.00124999999999995,104.451385498047
0.001332025, 268.608533636015, 0.000775119800548199, 0.00625000000000018,110.017280578613
0.00199868333333333, 268.609310141744, 0.000701845481017821, 0.0137499999999999,102.513061523438
0.00266563166666667, 268.610342758898, 0.000588623668054167, 0.0225,104.561958312988
0.003332125, 268.612864781665, 0.000379657164227938, 0.0300000000000001,104.561958312988
0.00399905833333333, 268.61628167474, 0.000222987033614925, 0.0387500000000002,99.8180313110352
0.004665515, 268.619697965152, -0.000187692338390641, 0.0449999999999999,104.2216796875
0.00533208333333333, 268.623904747964, -0.000159774240669377, 0.0512500000000001,106.931335449219
0.00599868666666667, 268.627156927045, -0.000322808551609372, 0.0574999999999998,105.784248352051
0.00666630666666667, 268.630420686509, -0.000160458206303533, 0.06375,105.784248352051
0.00733210833333333, 268.632374209789, -0.000153855537953925, 0.0712500000000001,101.614402770996
0.0079987, 268.635691768689, 8.85052884825349E-05, 0.0787499999999998,106.186248779297
0.00866540166666667, 268.638564745997, -0.000127264873627102, 0.085,103.000953674316
0.00933214, 268.641964587735, 2.44480059617258E-05, 0.0900000000000002,103.69799041748
0.00999911166666667, 268.645682924162, 7.62389045447743E-05, 0.0974999999999999,103.69799041748
0.0106653566666667, 268.649269353654, 9.99773173150217E-06, 0.105,103.066543579102
0.01133203, 268.653094773724, -9.66379120509801E-05, 0.11125,104.992126464844
0.01199909, 268.656720997372, -0.000158869786190451, 0.1175,103.875152587891
0.0126656366666667, 268.660834025595, -0.000220794175763491, 0.125,99.0146942138672
0.0133322533333333, 268.664567385243, -0.00035663335269337, 0.13,99.0146942138672
0.01399868, 268.668708849467, -0.000247693824581148, 0.13625,121.279693603516
0.0146656316666667, 268.672075710255, -0.000200468696646764, 0.14375,104.315292358398
0.015332275, 268.675821930677, -7.18006595003435E-05, 0.15125,109.662162780762
0.0159989766666667, 268.679452404539, -4.21081509337221E-05, 0.1575,108.04483795166
0.0166659533333333, 268.683957556872, -8.75273695677723E-05, 0.1625,108.04483795166
0.0173320466666667, 268.688494298051, -0.000194809480938092, 0.17,104.588027954102
0.017998685, 268.692401978461, -0.000239336244403425, 0.1775,108.130348205566
0.0186655016666667, 268.69677920947, 0.000104651977425384, 0.18375,100.508644104004
0.0193320233333333, 268.700847065911, -0.000245730423239726, 0.18875,105.82942199707
0.019998675, 268.704945954597, -0.00029211709328391, 0.19625,105.82942199707
0.0206654583333333, 268.708220705981, -0.000392540049167902, 0.20375,100.216117858887
0.0213320533333333, 268.71282139098, -0.000486126348410361, 0.21,105.740188598633
0.0219987066666667, 268.716836611976, -0.000682967461320261, 0.215,109.863311767578
0.0226656216666667, 268.720696538751, -0.000255337440721666, 0.2225,104.321319580078
0.0233320483333333, 268.724869259085, -6.0803211990313E-05, 0.23,104.321319580078
0.0239987283333333, 268.728978764003, 9.68868674082018E-05, 0.235,104.531646728516
0.0246658483333333, 268.733689192061, 0.00039729477826142, 0.2425,103.367919921875
0.0253320416666667, 268.736972658351, 0.000271611591208835, 0.24875,101.364814758301
0.0259988383333333, 268.741355622735, 0.000542626978397338, 0.255,107.326141357422
0.02666586, 268.744390854223, 0.000474597895461587, 0.26375,107.326141357422
0.027332275, 268.748543502221, 0.000684264864090409, 0.26875,107.004531860352
0.0279992683333333, 268.751786917667, 0.000594861854710021, 0.275,102.380867004395
0.0286656433333333, 268.75623743106, 0.000793382883206619, 0.28125,104.24536895752
0.029332035, 268.760401360384, 0.000538463187552509, 0.28875,127.192260742188
0.0299991916666667, 268.76462066392, 0.000614527366940536, 0.295,127.192260742188
0.030666215, 268.769388816973, 0.000376499822806473, 0.30125,109.082511901855
0.0313321016666667, 268.773105038809, 0.000350969605160277, 0.30875,109.596855163574
0.0319986933333333, 268.777232902471, 5.3743034561484E-05, 0.315,103.144172668457
0.0326653966666667, 268.780139717396, 6.01282138301115E-05, 0.32125,110.925354003906
0.033332025, 268.784092806387, -5.86778186858146E-05, 0.3275,110.925354003906
0.033998855, 268.786784341688, -6.71553928370524E-05, 0.335,101.091156005859
0.034666985, 268.79024371147, -9.8898298424247E-05, 0.34125,99.9334411621094
0.03533204, 268.793534560379, -0.000129271772818726, 0.3475,107.553146362305
0.0359986816666667, 268.797036510938, -0.000272385584358398, 0.35375,108.0517578125
0.0366654866666667, 268.79993097686, -0.00030722283454212, 0.36125,108.0517578125
0.0373322433333333, 268.80324079009, -0.000446432342201234, 0.3675,101.538597106934
0.03799876, 268.806491933785, -9.00727417901993E-05, 0.37375,105.107879638672
0.038665665, 268.809282903028, 0.000147528823728322, 0.38,104.397811889648
0.039332025, 268.811175703181, 0.000625620809654883, 0.3875,110.797157287598
0.0399990983333333, 268.812057535493, 0.000517470241970062, 0.3925,110.797157287598
0.0406654433333333, 268.813508407216, 0.000627524214083937, 0.4025,106.499496459961
0.0414986983333333, 268.814425838475, 0.000435266870979303, 0.40875,108.801948547363
0.042165575, 268.815958206671, 0.000299454692688683, 0.415,85.1490936279297
0.0428320333333333, 268.818772709547, 0.000124146498273928, 0.42125,100.033203125
0.04349901, 268.822283176061, 0.000481908528278312, 0.43,104.644165039063
0.0441656133333333, 268.82572211375, 0.000516990266139765, 0.435,104.644165039063
0.0448321683333333, 268.828226096035, 0.000717204709563944, 0.44125,103.158851623535
0.0454988683333333, 268.83155409063, 0.00100937503414919, 0.44875,102.725082397461
0.0461654933333333, 268.83362579217, 0.0011717553779431, 0.455,125.8056640625
0.046832025, 268.836620705228, 0.00147024338519882, 0.46125,106.838256835938
0.047498685, 268.838383565748, 0.00169915588718274, 0.46875,106.838256835938
0.0481654166666667, 268.84162756015, 0.00159785247554651, 0.475,102.620964050293
0.0488320533333333, 268.843719744177, 0.00175947985718371, 0.48125,101.036476135254
0.0494987316666667, 268.846600217686, 0.00132725856717909, 0.4875,100.770584106445
0.0501654866666667, 268.848794990668, 0.00134186633347165, 0.49625,104.868476867676
0.0508320266666667, 268.851080022495, 0.00104005449316444, 0.50125,104.868476867676
0.0514988116666667, 268.853603954735, 0.00114008596867291, 0.5075,105.584762573242
0.05216567, 268.855142741699, 0.000897054675836911, 0.51375,109.298141479492
0.052832025, 268.857095977383, 0.00128980094859528, 0.52125,102.84252166748
0.05349869, 268.85839791771, 0.00106843006780745, 0.5275,107.509643554688
0.0541656033333333, 268.860482732709, 0.00140261478203623, 0.535,107.509643554688
0.0548320883333333, 268.861698477225, 0.000953897320639042, 0.54,105.777496337891
0.0555003533333333, 268.864177941712, 0.000831411972966809, 0.5475,104.766204833984
0.0561654833333333, 268.865997774578, 0.000529352645111809, 0.55375,104.847763061523
0.0568320133333333, 268.868174163825, 0.000233278016624751, 0.56,101.957252502441
0.0574990166666667, 268.869964356279, 0.000231355113220963, 0.56875,101.957252502441
0.0581655183333333, 268.871633039968, 0.000346015353963645, 0.575,105.318283081055
0.05883206, 268.873037861439, 0.00038810174002105, 0.58,102.58723449707
0.0594989383333333, 268.87425840121, 0.000704606842290555, 0.58625,103.020500183105
0.06016563, 268.875600202745, 0.00125527568279371, 0.59375,102.201736450195
0.0608320066666667, 268.876697608059, 0.000945052265009006, 0.6,102.201736450195
0.061498675, 268.877957042923, 0.00132562364932449, 0.6075,106.479957580566
0.0621654116666667, 268.878765328377, 0.0015125232615255, 0.615,107.725074768066
0.0628320616666667, 268.880262068477, 0.00122238533486799, 0.62125,128.829635620117
0.0634989366666667, 268.881657577889, 0.000923768334092326, 0.62625,106.707984924316
0.0641656366666667, 268.882979712161, 0.00110951750410601, 0.6325,106.707984924316
0.0648321516666667, 268.884377692708, 0.0011045722524558, 0.64,102.178581237793
0.06549884, 268.885947725369, 0.00113984148095267, 0.6475,102.437965393066
0.0661654016666667, 268.887923032955, 0.00123708759641921, 0.65375,104.309638977051
0.06683212, 268.889123367495, 0.00108101143599742, 0.66,103.461471557617
0.0674989983333333, 268.890397517249, 0.00140130384804403, 0.6675,103.461471557617
0.0681653766666667, 268.891778709591, 0.00166539558299686, 0.6725,107.627685546875
0.0688321283333333, 268.893052972542, 0.001682332732249, 0.67875,104.296195983887
0.06949887, 268.894931286434, 0.00169966736153177, 0.6875,104.861183166504
0.0701656116666667, 268.896645266312, 0.00184128874803516, 0.69375,106.82022857666
0.0708320816666667, 268.899452107808, 0.00166940338166124, 0.7,106.82022857666
0.0714986866666667, 268.901066656471, 0.00159680102836979, 0.7075,110.256561279297
0.072165435, 268.903386102707, 0.00169311719051503, 0.7125,100.645080566406
0.0728320566666667, 268.903845087544, 0.00189244067869489, 0.71875,105.868179321289
0.073498695, 268.905431837622, 0.00215438452151969, 0.725,101.976112365723
0.0741656083333333, 268.906382744085, 0.00199322211655377, 0.735,101.976112365723
0.0748320516666667, 268.908254963793, 0.00171647251741518, 0.73875,107.372650146484
0.0754988083333333, 268.910135760672, 0.00161543609236524, 0.745,101.729507446289
0.0761655683333333, 268.912361880018, 0.00102582470794902, 0.7525,112.04997253418
0.0768320183333333, 268.914737797705, 0.00104297634643334, 0.76,107.444053649902
0.077498945, 268.915533915492, 0.001245514173162, 0.76625,107.444053649902
0.07816562, 268.917337655167, 0.00146557711959389, 0.7725,100.701805114746
0.0788321133333333, 268.918315883308, 0.001335202168179, 0.77875,104.05200958252
0.0794990516666667, 268.919758388796, 0.00178800242450325, 0.785,128.423782348633
0.080165645, 268.920437870887, 0.00179584253069808, 0.7925,101.206733703613
0.0808320216666667, 268.922825993534, 0.0015200303844178, 0.79875,101.206733703613
0.0814991133333333, 268.924265324791, 0.00134927446133208, 0.80625,109.648963928223
0.082165415, 268.925472447123, 0.00126535067675323, 0.81125,107.013481140137
0.0828320783333333, 268.927055504809, 0.00114220986196799, 0.81875,109.360122680664
0.0834987483333333, 268.928415620116, 0.000584225888917413, 0.82625,99.9911651611328
0.08416551, 268.929960690838, 0.000820486521849389, 0.8325,99.9911651611328
0.084832015, 268.930894341167, 0.000630330573195039, 0.8375,98.2836532592773
0.085499175, 268.933013391292, 0.000937507643985373, 0.845,102.672355651855
0.086165525, 268.934220970665, 0.000809463575496979, 0.85125,104.511558532715
0.086832015, 268.936459904689, 0.00104473725795907, 0.85875,104.677383422852
0.0874989033333333, 268.937683686518, 0.000933345353022439, 0.865,104.677383422852
0.0881656233333333, 268.939550645106, 0.00113919201357979, 0.87,102.35041809082
0.08883214, 268.940821564715, 0.000834045840750283, 0.87875,102.134864807129
0.0894987716666667, 268.942407855556, 0.00109928951781485, 0.885,100.51611328125
0.09016565, 268.944539149229, 0.00120123939697516, 0.89125,105.910171508789
0.09083223, 268.946071215126, 0.00128127537684189, 0.8975,105.910171508789
0.09149867, 268.948482536211, 0.00118618465316791, 0.90375,108.533027648926
0.0921655016666667, 268.950224258733, 0.00101165791945227, 0.91125,107.218147277832
0.092832065, 268.952121307519, 0.000837024691125251, 0.9175,105.628425598145
0.0934987033333333, 268.953020954075, 0.000648875641662526, 0.92375,101.54207611084
0.0941654966666667, 268.954792696576, 0.000202787548233088, 0.93,101.54207611084
0.0948319916666667, 268.956313763804, 0.000178586263799465, 0.93625,102.067008972168
0.0954988766666667, 268.957848157997, 0.000113249545592645, 0.94375,102.312294006348
0.0961653766666667, 268.960140074298, 0.000342628524129736, 0.95125,132.357513427734
0.096832135, 268.961601963984, 0.000304525937988769, 0.95625,100.396537780762
0.0974990433333333, 268.963739415418, 0.000551716521896392, 0.96375,100.396537780762
0.0981654716666667, 268.964815514995, 0.000371376080173526, 0.97,110.126373291016
0.098832025, 268.96753594682, 0.000409156182525285, 0.9775,104.922393798828
0.0994987566666667, 268.968267485838, 0.000267887278299177, 0.98375,98.3582305908203
0.100165526666667, 268.969999785465, 0.000223647000416121, 0.99,105.675621032715
0.100832033333333, 268.971700626372, 0.000209328719597146, 0.99625,105.675621032715
0.101498676666667, 268.973274781311, -0.000125820446171715, 1.0025,104.533424377441
0.102165486666667, 268.974946409004, -0.000363928986244808, 1.00875,106.221534729004
0.102832161666667, 268.976456842175, -0.000711640021080126, 1.01625,106.005058288574
0.103498716666667, 268.978652734823, -0.000545779852054295, 1.02375,103.592323303223
0.104165503333333, 268.979469060523, -0.000638788680337737, 1.02875,103.592323303223
0.104832003333333, 268.981726746155, -0.000218767777554624, 1.035,102.99951171875
0.10549885, 268.98212510161, 1.85353029651409E-05, 1.0425,101.751922607422
0.106165625, 268.984551182269, 0.000199076734579297, 1.05,99.4860763549805
0.10683204, 268.986118743164, 4.13701560123462E-05, 1.055,102.747932434082
0.107498976666667, 268.988926718812, -0.000280269188382183, 1.06125,102.747932434082
0.108165348333333, 268.991022170098, -0.000540527115901414, 1.06875,99.6351547241211
0.10883204, 268.993067018665, -0.000439421694307669, 1.075,106.901161193848
0.109498896666667, 268.995074598259, -8.68029059959824E-05, 1.08125,104.017211914063
0.110165568333333, 268.996426327146, -1.68479197438751E-05, 1.08875,107.829444885254
0.11083202, 268.998493502175, 0.000314612931301006, 1.095,107.829444885254
0.111498685, 268.999190367084, 0.000611793004264553, 1.10125,102.060119628906
0.112165485, 269.001441935745, 0.000704870829028037, 1.10875,126.379745483398
0.112832111666667, 269.002865208501, 0.000468097221907638, 1.115,105.095832824707
0.11349906, 269.005116913021, 0.000710531544724875, 1.12125,103.152938842773
0.11416689, 269.006314826335, 0.000783568876135775, 1.1275,103.152938842773
0.114832045, 269.007955227838, 0.000486067819307423, 1.135,103.725692749023
0.115498778333333, 269.010289233007, 0.000388653712328973, 1.14125,101.730651855469
0.116165603333333, 269.01185585827, 0.000394242431654454, 1.1475,104.047607421875
0.116832053333333, 269.013751974913, 0.000342946508145735, 1.155,102.505813598633
0.11749889, 269.015285480294, -2.62464476700002E-05, 1.16,102.505813598633
0.11816562, 269.017810681126, 0.000499229658241453, 1.1675,102.957290649414
0.118832015, 269.01898784627, 0.000443382963349356, 1.17375,108.946685791016
0.119498825, 269.021176495144, 0.000262676540008333, 1.18,102.431983947754
0.12016541, 269.023217400451, 0.00029046864405847, 1.18625,105.429420471191
0.120832048333333, 269.025137104077, 0.00069946810043483, 1.1925,105.429420471191
0.121498693333333, 269.027237121234, 0.000494975871847412, 1.2,103.954086303711
0.122165501666667, 269.028954599682, 0.000617722206429574, 1.2075,103.34757232666
0.122832035, 269.031685003644, 0.000966622681529216, 1.21375,105.971656799316
0.123498783333333, 269.03360138947, 0.00102318334056479, 1.22,101.778701782227
0.12416573, 269.03675529702, 0.00124604514644326, 1.22625,101.778701782227
0.124831998333333, 269.0394102865, 0.00136110136733467, 1.23375,102.087875366211
0.125498745, 269.042699246823, 0.00140830699623056, 1.23875,103.80052947998
0.126165405, 269.045345605776, 0.0010650447379617, 1.24625,104.811820983887
0.126832095, 269.048909992441, 0.000753033409948252, 1.25375,104.240379333496
0.127498705, 269.052331800736, 0.000408094235856491, 1.26,104.240379333496
0.128165638333333, 269.055902021864, 0.000158953749927076, 1.26625,111.555030822754
0.12883235, 269.060197794698, 0.000136088898391806, 1.2725,131.136871337891
0.129498706666667, 269.063759144368, 0.000418883193938231, 1.27875,107.834579467773
0.130165616666667, 269.067946447957, 0.000602763457869154, 1.28625,99.2953567504883
0.130832168333333, 269.071270568868, 0.00067636926073516, 1.2925,99.2953567504883
0.131498691666667, 269.075373890635, 0.000833931846516889, 1.3,105.194107055664
0.132165363333333, 269.07893870767, 0.000845062787447589, 1.30625,108.012718200684
0.132832035, 269.083274464233, 0.000857494163027199, 1.3125,104.935356140137
0.133498958333333, 269.087515270911, 0.000752182952662826, 1.32,99.6709976196289
0.134165708333333, 269.091650834715, 0.000864875292248369, 1.32625,99.6709976196289
0.134832011666667, 269.096593542609, 0.000725014817313224, 1.3325,104.3564453125
0.135498671666667, 269.100672222258, 0.000710350053914589, 1.33875,104.187347412109
0.136165498333333, 269.105442568774, 0.000547623227498516, 1.34625,104.285545349121
0.136832035, 269.108642186915, 0.000787870660131974, 1.3525,102.376968383789
0.137498793333333, 269.114138100546, 0.000658491658733394, 1.35875,102.376968383789
0.138165701666667, 269.117744549902, 0.000619261129228636, 1.365,104.876617431641
0.138832011666667, 269.122192515497, 0.00099445228377445, 1.37125,97.7661361694336
0.139498701666667, 269.126110689131, 0.00113972898668619, 1.3775,99.3350448608398
0.140165526666667, 269.130858226624, 0.000899760540034249, 1.38625,105.606437683105
0.140832368333333, 269.135018861112, 0.00102336483152385, 1.3925,105.606437683105
0.141498703333333, 269.13938850708, 0.00145935543217023, 1.39875,102.401672363281
0.142165631666667, 269.144679526165, 0.00118220235328215, 1.405,107.988220214844
0.142832023333333, 269.149199059376, 0.00071895962149833, 1.41125,102.044631958008
0.143498688333333, 269.1545999026, 0.00103623568505989, 1.41875,106.773307800293
0.144165468333333, 269.158873738471, 0.000607075741336176, 1.425,106.773307800293
0.144832101666667, 269.164221319485, 0.000233931983962129, 1.43125,106.699111938477
0.145498726666667, 269.168166570833, 8.3621533881634E-05, 1.43875,125.867401123047
0.146165498333333, 269.172316773576, 0.000775362788429051, 1.445,99.7214584350586
0.146832008333333, 269.176423232223, 0.000656505758504669, 1.45125,102.033798217773
0.147498811666667, 269.180858107149, 0.00084112098545695, 1.4575,102.033798217773
0.148165351666667, 269.185326712148, 0.00119554868289652, 1.46625,108.395881652832
0.148832045, 269.189726838163, 0.00111546620537329, 1.47125,98.9238662719727
0.149498878333333, 269.195410371318, 0.000834969794416485, 1.4775,108.72248840332
0.1501654, 269.199500572121, 0.000501401549181198, 1.485,103.763534545898
0.15083232, 269.204926967719, 0.000360888607003112, 1.49125,103.763534545898
0.151498691666667, 269.208570472263, 0.000179972194245633, 1.4975,105.205635070801
0.152165456666667, 269.213823447597, 0.000200485163891513, 1.505,101.846374511719
0.152832071666667, 269.218002270408, 0.000259154716999386, 1.51125,106.45588684082
0.153498685, 269.223111803434, 0.000473078471807292, 1.5175,102.700798034668
0.154165585, 269.227425722277, 0.000782502429757534, 1.52375,102.700798034668
0.154832078333333, 269.232497280984, 0.000877744645860001, 1.53,111.572227478027
0.155498836666667, 269.237177028087, 0.00112946500220936, 1.5375,101.997993469238
0.156165385, 269.24137418969, 0.000755800770982361, 1.545,107.371017456055
0.156832015, 269.246357039155, 0.000901909932086691, 1.55125,101.998664855957
0.157498923333333, 269.250202694247, 0.000911492950735671, 1.5575,101.998664855957
0.158165608333333, 269.25528953736, 0.00114990897533269, 1.56375,103.335350036621
0.158832085, 269.259447504153, 0.00102509874441032, 1.57125,106.766242980957
0.1594989, 269.264393673705, 0.00131043841209416, 1.5775,109.739692687988
0.160165648333333, 269.268557990023, 0.00135810601779127, 1.58375,104.501121520996
0.160831973333333, 269.273674088703, 0.00078084201314557, 1.59,104.501121520996
