Time (min), Depth (µm), Load (N), Position (µm), Acoustic (aJ)
8.79333333333333E-06, 268.775439800692, 0.000191198116261635, 0,108.318061828613
0.000664681666666667, 268.775333136933, 0.000440899574002884, 0.00124999999999995,108.318061828613
0.00133112333333333, 268.774658746325, 0.000282612524564348, 0.00500000000000023,105.642135620117
0.00199802166666667, 268.774532217543, 0.000427037270266262, 0.0149999999999998,104.320663452148
0.00266552666666667, 268.775053274089, -0.000105533479284084, 0.0225,102.47004699707
0.00333092666666667, 268.775843618479, -0.000526416838769103, 0.0300000000000001,106.781066894531
0.003997775, 268.777295383042, -0.000316320891697188, 0.0362499999999998,106.781066894531
0.004664775, 268.779774843932, -0.000426776843572391, 0.0449999999999999,102.683883666992
0.005331185, 268.782602452022, -0.000527261296356916, 0.0512500000000001,103.679374694824
0.00599746833333333, 268.785355945525, -0.000588719209398035, 0.0574999999999998,106.237129211426
0.00666428833333333, 268.788210468529, -0.000421261620585178, 0.0649999999999999,103.435256958008
0.00733094666666667, 268.791483708187, -0.000739799120803671, 0.0712500000000001,103.435256958008
0.00799773333333333, 268.794621820893, -0.000753820416569547, 0.0787499999999998,101.649887084961
0.00858285666666667, 268.796179269599, -0.000816349275804625, 0.0837500000000001,111.624244689941
0.00925490833333333, 268.800161412332, -0.000131738663060524, 0.0912500000000002,111.624244689941
0.00992382166666667, 268.803140311102, -4.60804870374686E-06, 0.0974999999999999,102.437423706055
0.0105902866666667, 268.805965211481, 6.03581880904527E-05, 0.105,104.12720489502
0.011257025, 268.809088557677, 0.000197526298317922, 0.11125,100.14241027832
0.0119236133333333, 268.811994115622, 8.452947403601E-05, 0.1175,103.795516967773
0.0125901233333333, 268.815455441488, -0.000119248790407933, 0.12375,105.624252319336
0.0132565966666667, 268.819043662528, -0.00036872075969423, 0.13,105.624252319336
0.01392295, 268.822489169772, -0.00048465893619852, 0.13625,104.89022064209
0.0145899283333333, 268.82613658106, -0.000637664750899259, 0.1425,121.023414611816
0.0152563016666667, 268.830462332004, -0.000570807109071232, 0.15,103.775245666504
0.0159232866666667, 268.83456592124, -0.000835096834087805, 0.15625,104.020050048828
0.0165899383333333, 268.838574175514, -0.000981276491617834, 0.16375,104.020050048828
0.0172562866666667, 268.842171123227, -0.000833740902193465, 0.17,105.32088470459
0.0179230283333333, 268.84545423973, -0.000922156961125222, 0.17625,107.069633483887
0.018589865, 268.84867641996, -0.000843106431761464, 0.1825,103.631332397461
0.0192564383333333, 268.851624305013, -0.000652897985731746, 0.19,104.987495422363
0.0199228266666667, 268.854982109013, -0.000622586008259054, 0.19625,104.987495422363
0.0205897116666667, 268.859080782811, -0.000694148913726503, 0.2025,101.747047424316
0.0212562066666667, 268.862457923043, -0.000259476746864384, 0.20875,111.166496276855
0.0219232333333333, 268.866071822266, -0.000211353164021161, 0.215,105.912750244141
0.0225900216666667, 268.869406811527, -0.00047046964889948, 0.2225,106.622772216797
0.02325626, 268.873036424165, -0.000408875242737665, 0.23,106.622772216797
0.0239230166666667, 268.875507888561, -0.000358512272420313, 0.23625,105.727851867676
0.0245896816666667, 268.879225454046, -0.000846914740458959, 0.24125,106.46688079834
0.0252566783333333, 268.882066259239, -0.00116324735140084, 0.24875,107.207534790039
0.0259228583333333, 268.885786100374, -0.00116033149787206, 0.255,105.317070007324
0.0265895533333333, 268.888590827601, -0.00105988604314327, 0.2625,105.317070007324
0.0272563183333333, 268.892272575536, -0.00114481477726359, 0.26875,107.166481018066
0.02792301, 268.894825578729, -0.00109725216625346, 0.275,104.519973754883
0.0285901016666667, 268.898126071173, -0.00119861557488707, 0.28125,104.378997802734
0.029256195, 268.901478500627, -0.00107994603549184, 0.2875,103.110130310059
0.029923015, 268.905135444821, -0.00113414881296167, 0.295,103.110130310059
0.030589725, 268.908915451316, -0.00086423137064889, 0.30125,127.623558044434
0.031256305, 268.913290971693, -0.000686073319379101, 0.30875,107.128189086914
0.0319236783333333, 268.917263283034, -0.000208746295025725, 0.315,104.707870483398
0.0325908783333333, 268.920903747902, -8.19861620815689E-05, 0.32125,106.246726989746
0.0332562, 268.924220785244, 0.000208597242229983, 0.3275,106.246726989746
0.03392285, 268.927809196192, 0.000139332221330899, 0.33375,105.059562683105
0.0345899583333333, 268.931465080624, 0.000199036722425798, 0.34125,97.9590530395508
0.0352566166666667, 268.935750658019, -6.49755164911563E-05, 0.3475,104.208435058594
0.0359230633333333, 268.939556273178, -9.28996138887794E-05, 0.35375,105.220108032227
0.03658998, 268.94405683907, -0.000119064299663824, 0.36,105.220108032227
0.0372565183333333, 268.94770223409, -0.00029315155542304, 0.3675,102.886688232422
0.0379230833333333, 268.951619799929, -0.000246704888402725, 0.37375,103.950698852539
0.03858992, 268.955388503955, -6.26986308644372E-05, 0.38,109.237602233887
0.0392562416666667, 268.958562126138, -9.53159925275097E-05, 0.38625,103.772926330566
0.0399231583333333, 268.960593921958, -0.000158942796617059, 0.39375,103.772926330566
0.0405896916666667, 268.9631162252, -1.92908111952213E-05, 0.4,103.679649353027
0.0412562666666667, 268.965526286603, 3.30445600737344E-05, 0.40625,103.846115112305
0.0419234283333333, 268.967437185679, -0.000283024064130661, 0.41375,98.5404357910156
0.0425897516666667, 268.970766026204, -3.59219758265932E-05, 0.42,104.930381774902
0.0432563283333333, 268.974400164826, -0.000112731617770564, 0.42625,104.930381774902
0.04392311, 268.978205717756, -3.98097805174605E-05, 0.43375,106.184059143066
0.04458994, 268.981771694594, -0.00045541040534028, 0.44,106.451133728027
0.0452563133333333, 268.985238830249, -0.000126850408580143, 0.44625,105.577896118164
0.0459231016666667, 268.988913221598, -0.000195843943098475, 0.4525,110.06160736084
0.046589965, 268.992668458114, -0.000268132812083371, 0.46,110.06160736084
0.0472562183333333, 268.996568367735, -0.000201849641429316, 0.46625,121.758262634277
0.047923125, 269.000352471618, -0.000314316992311862, 0.47375,105.345901489258
0.0485901033333333, 269.00456195961, -0.000354012498445392, 0.47875,103.657051086426
0.0492562583333333, 269.007745168507, -0.000545392385646595, 0.48625,103.437149047852
0.04992426, 269.011470800211, -0.000542349038522287, 0.4925,103.437149047852
0.050589945, 269.014470055601, -0.000795929301429238, 0.49875,103.62467956543
0.05125644, 269.017593240782, -0.000564694916065251, 0.505,104.836456298828
0.0519230666666667, 269.020018952584, -0.000287132357730061, 0.5125,104.952751159668
0.0525905533333333, 269.023916092056, -0.000524772921283067, 0.51875,99.7067718505859
0.0532563116666667, 269.027775059712, -0.000681422052975688, 0.525,99.7067718505859
0.0539230816666667, 269.031391893007, -0.000568764211715183, 0.53375,102.001945495605
0.0545897366666667, 269.034807585796, -0.000361797107437308, 0.54,98.0190200805664
0.0552562616666667, 269.038797049292, -0.00069909116552791, 0.545,101.289939880371
0.0559231316666667, 269.042497229164, -0.000693688436892195, 0.55125,100.932266235352
0.0565898133333333, 269.045132054701, -0.00040952771000186, 0.55875,100.932266235352
0.0572564216666667, 269.048441692018, -0.000618107233225779, 0.565,106.088356018066
0.0579230583333333, 269.051875905527, -0.00065905967622178, 0.57125,104.954551696777
0.0585899666666667, 269.054825827051, -0.000749377639658187, 0.58,100.471984863281
0.0592563183333333, 269.057523766293, -0.000615516863335017, 0.58625,106.844444274902
0.0599233516666667, 269.059966932707, -0.000789008649021123, 0.59125,106.844444274902
0.06058996, 269.0628316939, -0.000707411247595551, 0.59875,108.750068664551
0.0612562866666667, 269.064958682287, -0.000797661714412558, 0.605,104.781303405762
0.0619230816666667, 269.068146039922, -0.000761584026534801, 0.61125,103.278991699219
0.0625900283333333, 269.070544434637, -0.000580921101065235, 0.61875,107.703559875488
0.063256395, 269.073969454969, -0.00028604941216213, 0.625,107.703559875488
0.063923005, 269.07587705665, -0.000319712221304306, 0.63125,126.21736907959
0.064589835, 269.078265600796, -9.15871798021337E-05, 0.6375,106.263153076172
0.0652562833333333, 269.080501950665, 9.00526751817199E-06, 0.645,105.765838623047
0.0659235516666667, 269.08231261035, -3.8219860394958E-05, 0.6525,108.985626220703
0.0665901566666667, 269.084297308121, -0.000327598825198153, 0.65875,108.985626220703
0.0672563683333333, 269.08617620379, -0.00029759583219504, 0.665,104.614036560059
0.0679232983333333, 269.088763679895, -0.000314601978012243, 0.67,103.676094055176
0.0685899383333333, 269.090074079397, -0.000123856558939888, 0.6775,105.06502532959
0.069256495, 269.092798333861, -4.37350833821715E-05, 0.685,103.592582702637
0.069923425, 269.09466026868, -6.38095958219262E-06, 0.69125,103.592582702637
0.0705897216666667, 269.097592458625, -4.05042456011852E-05, 0.6975,104.156158447266
0.0712566566666667, 269.099932459645, -0.000525888865209124, 0.70375,103.066871643066
0.0719230416666667, 269.102353341292, -0.000995629270655575, 0.71125,107.310890197754
0.07258993, 269.103769730727, -0.00101968356243392, 0.7175,99.9269180297852
0.0732564, 269.105848446367, -0.000986022253216143, 0.725,99.9269180297852
0.0739231, 269.10786963733, -0.000929685082980419, 0.73,108.541656494141
0.0745899233333333, 269.109426218587, -0.000515530385558643, 0.7375,102.499946594238
0.0752562983333333, 269.111806502581, -0.000109641772925992, 0.745,106.36474609375
0.0759234966666667, 269.114089367796, 8.00341998555529E-05, 0.75125,106.88752746582
0.0765899733333333, 269.115937208777, 0.000409918630097561, 0.7575,106.88752746582
0.0772562383333333, 269.117826879422, 0.00043243099931305, 0.76375,106.135581970215
0.0779234216666667, 269.119964617668, 0.000349863146607283, 0.77125,109.490882873535
0.0785897716666667, 269.121717539807, 0.000269639676147637, 0.7775,106.771026611328
0.0792563666666667, 269.123472525682, 0.000169546703717378, 0.78375,109.006996154785
0.0799232133333333, 269.125946433568, -0.000411296121170859, 0.79,109.006996154785
0.0805899483333333, 269.127883505422, -0.000535186898285247, 0.79625,129.323806762695
0.08125748, 269.130392049931, -0.000531086104222847, 0.80375,102.5849609375
0.0819231183333333, 269.132822447373, -0.000851023034122121, 0.81,108.011177062988
0.0825897683333333, 269.135651678052, -0.00101476980930244, 0.8175,104.271980285645
0.0832562916666667, 269.137933488731, -0.000929625086025542, 0.82375,104.271980285645
0.0839238016666667, 269.140297621023, -0.000779938604603074, 0.83,103.083282470703
0.0845897666666667, 269.141566215076, -0.000612565011599307, 0.83625,104.555908203125
0.0852563, 269.14319447171, -0.000222727092747696, 0.84375,107.649688720703
0.0859230383333333, 269.144880928013, 0.000106504870272624, 0.85,100.808250427246
0.0865899833333333, 269.146310832991, 0.000311972049849684, 0.85625,100.808250427246
0.0872562566666667, 269.148417558469, 0.000502357487001495, 0.86375,108.101531982422
0.087923055, 269.150879921878, 0.00059723072159449, 0.87,103.347190856934
0.0885897183333333, 269.153424425784, 0.000637907178436529, 0.87625,106.044647216797
0.0892562016666667, 269.155682290694, 0.000462068010612988, 0.88125,104.662994384766
0.0899234483333333, 269.158275771458, 0.000429773132760378, 0.89,104.662994384766
0.0905899966666667, 269.161096806985, 0.000103604015881609, 0.89625,100.665458679199
0.091256665, 269.163877466951, -0.000187810346655618, 0.9025,106.718803405762
0.091923055, 269.167028040438, -0.000465146416363408, 0.91,107.563735961914
0.092589735, 269.169788685674, -0.000780487577083445, 0.915,106.024307250977
0.09325637, 269.172914595334, -0.000752495983087675, 0.9225,106.024307250977
0.0939232833333333, 269.175048569365, -0.000402053585446435, 0.93,105.12425994873
0.0945897833333333, 269.177937366421, -0.000630021134886266, 0.935,107.095237731934
0.0952562183333333, 269.179849887709, -0.000533394488283288, 0.9425,104.280609130859
0.0959230433333333, 269.182448531725, -0.000419596704221258, 0.9475,104.238380432129
0.0965900766666667, 269.184761362352, -0.000238207815212991, 0.955,104.238380432129
0.0972568066666667, 269.187647024894, -0.000352644567155825, 0.9625,125.369026184082
0.097923245, 269.190623345743, -0.00017481949910356, 0.9675,107.851112365723
0.0985897233333333, 269.193643793289, -0.000525414889055186, 0.975,107.839378356934
0.099256325, 269.196727911355, -0.000501080111370928, 0.9825,106.79434967041
0.0999234, 269.199540429542, -0.000951035010592095, 0.9875,106.79434967041
0.10059012, 269.202333109075, -0.0010289710959542, 0.99375,102.876449584961
0.101256276666667, 269.204417178731, -0.00122531723370475, 1,107.542366027832
0.10192303, 269.206986124351, -0.000864283868045512, 1.0075,107.653099060059
0.102589723333333, 269.208760388609, -0.000878372660345772, 1.015,105.857223510742
0.10325645, 269.211209363839, -0.000681620043018172, 1.02,105.857223510742
0.103922978333333, 269.213533604269, -0.000863197922565012, 1.02625,101.907028198242
0.10459008, 269.215753246544, -0.00051725379897429, 1.03375,102.35343170166
0.105256541666667, 269.21779357576, -0.000430820640443705, 1.04,105.0498046875
0.105922986666667, 269.220355230303, -0.0004671668148109, 1.0475,101.522575378418
0.106589741666667, 269.223161167174, -0.000513818971559477, 1.05375,101.522575378418
0.107256458333333, 269.225215170524, -0.000299821720434557, 1.06,106.914680480957
0.107923396666667, 269.228002054775, -0.000499889171267217, 1.06625,102.140754699707
0.108589763333333, 269.230411087856, -0.000619466165011434, 1.07375,105.529251098633
0.1092563, 269.23287704111, -0.000606070337870495, 1.08,108.398704528809
0.109923088333333, 269.234730833203, -0.000669034175203772, 1.08625,108.398704528809
0.110589781666667, 269.236493830928, -0.000561683067332157, 1.0925,108.009246826172
0.111256398333333, 269.238273686091, -0.000362283082965218, 1.1,107.145599365234
0.111923041666667, 269.240565116972, -0.000482026568381959, 1.10625,105.182708740234
0.112589945, 269.242456995089, -0.000377607813228811, 1.1125,125.154136657715
0.113256295, 269.244173889753, -0.000305554432417735, 1.11875,125.154136657715
0.113923128333333, 269.246381149787, -0.000314310992592995, 1.12625,106.451141357422
0.11458984, 269.248633750345, -0.000700669086255186, 1.1325,105.506172180176
0.115256326666667, 269.250103477974, -0.000371596115242865, 1.13875,106.745414733887
0.115923281666667, 269.252751975908, -0.000424097978120582, 1.14625,109.294853210449
0.116589778333333, 269.254852538953, -0.000434391961064231, 1.1525,109.294853210449
0.117256321666667, 269.257298683113, -0.000415833393255861, 1.15875,112.28532409668
0.117923368333333, 269.259296751395, -0.000299821720370795, 1.165,106.717613220215
0.118589971666667, 269.26201595362, -0.000339887707916945, 1.17125,105.913192749023
0.119256425, 269.26414274324, -0.000137153391048957, 1.17875,106.916213989258
0.119923013333333, 269.267045355497, -1.19871991877294E-06, 1.18375,106.916213989258
0.120589833333333, 269.269692343809, 5.08426661033819E-05, 1.19,101.899536132813
0.121256518333333, 269.2731286224, 0.000351678055432783, 1.1975,102.46849822998
0.12192333, 269.276328742253, 0.000217373301422485, 1.205,102.766181945801
0.122589676666667, 269.279867174788, 0.000193800485462606, 1.21125,106.934204101563
0.123256215, 269.283527981741, 0.000126525864607965, 1.21875,106.934204101563
0.123924233333333, 269.287398906036, 7.70883477749479E-05, 1.225,103.536582946777
0.124589965, 269.291451520746, 0.000216284356135687, 1.23125,105.234375
0.125256316666667, 269.29541061284, 0.000358042235781019, 1.2375,103.390808105469
0.125923273333333, 269.299808528128, 0.00047521485032424, 1.24375,105.718589782715
0.126589991666667, 269.303755653903, 0.000786038237976516, 1.25,105.718589782715
0.127256651666667, 269.307978235099, 0.000868030119626415, 1.25625,100.407318115234
0.127923138333333, 269.312377665706, 0.000745447276867971, 1.265,104.440444946289
0.128589861666667, 269.317147217238, 0.000481745522323746, 1.27125,106.013549804688
0.129256543333333, 269.3218939743, 0.000433734433832022, 1.2775,119.815414428711
0.129923275, 269.326614961257, 0.000147211325581474, 1.28375,119.815414428711
0.130589728333333, 269.332150229043, 0.000243227502782293, 1.29125,106.36897277832
0.131256416666667, 269.336215687472, 0.000292108547491669, 1.2975,101.399566650391
0.131923093333333, 269.341550284145, 0.000657134712592514, 1.30375,106.570907592773
0.132589555, 269.345549095165, 0.000238462242124233, 1.31,110.290412902832
0.133256663333333, 269.350909778297, 0.000235142908845963, 1.3175,110.290412902832
0.133923351666667, 269.354921180423, -5.71729084701633E-05, 1.32375,104.940742492676
0.134589935, 269.36025453099, -7.25111380321319E-05, 1.33,107.951095581055
0.135256385, 269.364327915718, 8.8028798221417E-05, 1.33625,101.315216064453
0.135923348333333, 269.369716949552, 0.000306339832674, 1.34375,108.003173828125
0.136589993333333, 269.374236338769, 0.000403947429942978, 1.35,108.003173828125
0.137256298333333, 269.379073028924, 0.00079318837881833, 1.35625,106.574615478516
0.137923283333333, 269.38403004101, 0.000963521323179823, 1.36375,100.873596191406
0.138589861666667, 269.389025201399, 0.000560068588203145, 1.37,108.369537353516
0.139256295, 269.393898974651, 0.000686273749011825, 1.37625,111.466003417969
0.139923316666667, 269.39823188188, 0.000951857909022205, 1.38375,111.466003417969
0.140589718333333, 269.403812440355, 0.000773269379363664, 1.39,102.692489624023
0.141256328333333, 269.40833894917, 0.000714517330413613, 1.39625,105.048042297363
0.141923296666667, 269.413271841723, 0.000915247747917529, 1.40375,102.36695098877
0.142590006666667, 269.417504269352, 0.00126076739283837, 1.41,106.943206787109
0.143256623333333, 269.4225930302, 0.000893804824950342, 1.41625,106.943206787109
0.143923325, 269.42768477981, 0.000853978825329966, 1.4225,103.583541870117
0.144590033333333, 269.432040999846, 0.00067495681739136, 1.43,105.308204650879
0.145256211666667, 269.437415999039, 0.000549030642542939, 1.43625,104.494621276855
0.145923323333333, 269.442095413234, 0.000142501562062572, 1.4425,126.740242004395
0.14658996, 269.447348899128, 0.000585733798960617, 1.44875,126.740242004395
0.147256208333333, 269.451577598128, 0.000340907096401373, 1.4575,100.200035095215
0.147923758333333, 269.457553140988, 0.000273101502222962, 1.46375,108.436935424805
0.148589691666667, 269.461916335633, 0.000395837337313047, 1.47,107.830062866211
0.149258095, 269.467108318271, 0.000373275470570997, 1.475,108.912315368652
0.149923638333333, 269.471846399102, 3.96592277973145E-05, 1.4825,108.912315368652
0.150590278333333, 269.476422550997, 0.000309857156016009, 1.49,106.421783447266
0.151257571666667, 269.480779488777, 0.000536471773346543, 1.49625,108.150657653809
0.151924111666667, 269.485677312387, 0.000181897083272942, 1.5025,105.4677734375
0.15258995, 269.491208903653, 0.000284463431469255, 1.51,103.866455078125
0.153256513333333, 269.496050411317, 0.000192441553655697, 1.51625,103.866455078125
0.153923053333333, 269.501120194839, 0.000166023380613994, 1.52125,105.907432556152
0.154590176666667, 269.505932513617, 6.94732302193456E-05, 1.53,108.377960205078
0.155256336666667, 269.51051088541, 0.000150608654864951, 1.535,105.356025695801
0.155923318333333, 269.515430699109, 6.33385383473162E-05, 1.54125,103.404998779297
0.156589896666667, 269.519780927263, 0.000448241705062044, 1.55,103.404998779297
0.157256225, 269.525229910891, 0.000495220845309278, 1.55625,103.129943847656
0.157923138333333, 269.529980496541, 0.000373023483164979, 1.56125,108.190437316895
