Time (min), Depth (µm), Load (N), Position (µm), Acoustic (aJ)
9.32E-06, 268.440360885374, -0.000825067396036046, 0,101.263389587402
0.000664641666666667, 268.439360917728, -0.000516072416550152, 0.00124999999999995,99.4992294311523
0.001331135, 268.439751203014, -0.000247983382403759, 0.00625000000000018,104.395195007324
0.001998025, 268.440131526392, 2.1086602514907E-05, 0.0149999999999998,104.395195007324
0.002664475, 268.441737324218, -0.000198868349381204, 0.0237499999999999,102.40210723877
0.00349836333333333, 268.443827904435, -0.000308611837079843, 0.03125,107.782173156738
0.00416475666666667, 268.445459304504, -0.000515661437199898, 0.0387500000000002,102.059593200684
0.00483136, 268.447900579716, -0.000601026649364076, 0.0475000000000002,103.46752166748
0.00549802166666667, 268.449523660002, -0.000805386884582753, 0.05375,101.973175048828
0.006164535, 268.451853952124, -0.000444659503586792, 0.0600000000000002,101.973175048828
0.006831205, 268.454883199646, -0.000309514791761891, 0.0649999999999999,106.212898254395
0.007498065, 268.457934142807, -1.62270233049297E-05, 0.0725000000000001,104.752571105957
0.008164745, 268.46223042775, -0.000283540596428569, 0.0800000000000002,103.18123626709
0.008831125, 268.465525529408, -0.000361325189383436, 0.08625,105.157569885254
0.009498095, 268.469587826139, -0.000681569603806632, 0.095,105.157569885254
0.0103310616666667, 268.472628002099, -0.000568245795941048, 0.0999999999999998,102.512168884277
0.01099799, 268.476400703151, -0.000714188465372854, 0.10625,97.5177307128906
0.0116647483333333, 268.478842525454, -0.000511899626116396, 0.115,102.850532531738
0.0123310216666667, 268.481907188598, -0.000219927291573632, 0.12125,126.839019775391
0.012998145, 268.485315582482, 0.000188727182126216, 0.1275,108.875885009766
0.0136646466666667, 268.488187432432, -6.90513699080932E-05, 0.13375,108.875885009766
0.0143311116666667, 268.492087988965, -4.22972137575523E-05, 0.14,102.744743347168
0.01499794, 268.495342406167, 0.000170188113335089, 0.14625,102.896583557129
0.0156645083333333, 268.499741153418, -3.84034093478179E-05, 0.1525,106.31519317627
0.0163311266666667, 268.503204502806, -0.000262561150144497, 0.16,106.31519317627
0.0169978733333333, 268.507608506689, 0.000162258011633548, 0.1675,105.605537414551
0.0176646333333333, 268.51101788695, 0.000383273410274049, 0.17375,102.815849304199
0.0183311483333333, 268.51537379705, 4.72842866055688E-05, 0.18,106.727531433105
0.0189980716666667, 268.518885567935, 0.000119219173410042, 0.1875,113.438484191895
0.01966463, 268.524541617199, -0.000304847026190043, 0.195,113.438484191895
0.0204980016666667, 268.528755240229, -0.000425907445466639, 0.20125,104.288871765137
0.021164475, 268.532694511792, -0.000523863025260936, 0.2075,104.288871765137
0.0218310633333333, 268.536379076108, -0.000442153129420104, 0.215,103.013092041016
0.0224978833333333, 268.541034137543, -0.000573716021132401, 0.22125,109.194595336914
0.0231644633333333, 268.544607777788, -0.000756894320293821, 0.2275,106.65372467041
0.02383138, 268.548981861902, -0.000924939879536518, 0.235,102.139625549316
0.0244981333333333, 268.553162078996, -0.00111844366001155, 0.24125,102.139625549316
0.0251644966666667, 268.558035126149, -0.00139202241847281, 0.2475,103.774627685547
0.0258311416666667, 268.562123935075, -0.00135840010728952, 0.25375,104.837753295898
0.0264978433333333, 268.566133825773, -0.000910716093976202, 0.26125,107.731086730957
0.0271644583333333, 268.570317961981, -0.000727219810798784, 0.2675,107.731086730957
0.0278312016666667, 268.573732083755, -0.000660783647813089, 0.27375,106.968017578125
0.028497835, 268.577661948754, -0.000657329321338525, 0.28,102.60725402832
0.02916438, 268.580771553529, -0.000389808758583474, 0.28625,126.53702545166
0.029831025, 268.585171684251, -0.000461757144728831, 0.29375,105.201736450195
0.0304978033333333, 268.588517949726, -0.000563699524267118, 0.3,105.201736450195
0.0313319066666667, 268.593288653753, -0.000306483443926538, 0.3075,102.06770324707
0.031997855, 268.596812532757, -1.17902460911832E-05, 0.315,102.06770324707
0.03266457, 268.601389444112, -2.62330206568823E-05, 0.32125,105.829681396484
0.033331055, 268.605544357469, -0.000277128418435666, 0.3275,106.620849609375
0.0339978733333333, 268.609779602472, -0.000451628153469541, 0.335,108.679428100586
0.0346646416666667, 268.613390814893, -0.000703123521137152, 0.34125,105.299629211426
0.0353311066666667, 268.617098502863, -0.000950360602637513, 0.34875,105.299629211426
0.0359977233333333, 268.621540770092, -0.00127434132938685, 0.355,107.290725708008
0.0366643883333333, 268.62442736021, -0.00129257591346035, 0.36125,104.831855773926
0.0373310516666667, 268.628720964907, -0.00118358688788533, 0.36875,104.041412353516
0.03816494, 268.634196430254, -0.00146390330789249, 0.375,103.653656005859
0.0388310983333333, 268.63745956449, -0.00135548425369698, 0.3825,99.8571395874023
0.0394986916666667, 268.639003273396, -0.00111915312438181, 0.38875,99.8571395874023
0.0401648566666667, 268.640936930744, -0.0010880341874739, 0.39375,108.468505859375
0.0408312216666667, 268.643563457406, -0.000918361209934853, 0.4025,103.402076721191
0.0414984633333333, 268.646074360336, -0.000643185031750329, 0.40875,106.512382507324
0.0421646033333333, 268.648744389154, -0.000558755772541308, 0.415,104.55818939209
0.0428311, 268.653785970126, -0.000484434505628678, 0.42125,104.55818939209
0.0434979116666667, 268.657833846677, -0.000363237593231385, 0.42875,109.19962310791
0.0441651616666667, 268.662370782669, -0.000280353256455277, 0.435,105.720222473145
0.0448314016666667, 268.665740169674, -0.000397936850348753, 0.44125,103.656074523926
0.0454985566666667, 268.670115760874, -0.000397533370641768, 0.45,126.152198791504
0.0461651683333333, 268.673612931877, -0.000536817874521046, 0.45625,126.152198791504
0.046831165, 268.67795103649, -0.00054314155688914, 0.46125,104.695976257324
0.0474979833333333, 268.680482388603, -0.000675769395097783, 0.46875,104.137634277344
0.04816472, 268.6840292325, -0.000543803023657247, 0.475,106.465881347656
0.0488312533333333, 268.686850918801, -0.000465212971170306, 0.48125,104.276481628418
0.0494982366666667, 268.690298271859, -0.00067912172673418, 0.4875,104.276481628418
0.0501646266666667, 268.692963380505, -0.00060116014265722, 0.495,107.768730163574
0.05083104, 268.695995371284, -0.000510762683227439, 0.50125,104.353630065918
0.0514984, 268.699410524514, -0.000731007120575887, 0.5075,102.396476745605
0.0521649466666667, 268.701697524286, -0.000909055677385493, 0.515,108.031158447266
0.0528311366666667, 268.704558692025, -0.000675560905584477, 0.5225,108.031158447266
0.0534984683333333, 268.706381751435, -0.000505652439935376, 0.5275,102.821105957031
0.0541651733333333, 268.709326022498, -0.000488065823267842, 0.53375,108.142959594727
0.054832855, 268.711965199706, -0.000167888905421538, 0.54,104.490158081055
0.0554978983333333, 268.714866796829, -0.000257603899099057, 0.5475,103.635307312012
0.0561650033333333, 268.717822030063, -0.000351518681828338, 0.555,103.635307312012
0.0568312616666667, 268.720875040145, -0.000970017115300355, 0.56125,105.098983764648
0.0574985783333333, 268.724430686634, -0.000719435201785614, 0.5675,102.517608642578
0.0581651516666667, 268.726428951135, -0.000984812372164582, 0.57375,102.849739074707
0.0588313916666667, 268.729833262978, -0.000672798044323577, 0.58,104.728302001953
0.0594979266666667, 268.731319922859, -0.000455178475148421, 0.5875,104.728302001953
0.060165215, 268.734499229998, 0.000240642574477243, 0.595,111.144149780273
0.0608310566666667, 268.736436062468, 0.000214021911577338, 0.6,107.423774719238
0.0614979916666667, 268.739628352296, 0.000214522886391789, 0.60625,123.248847961426
0.0621649233333333, 268.741390170098, 5.90871937751981E-05, 0.615,104.565208435059
0.0628311933333333, 268.744298908053, -0.000214589059729766, 0.62,104.565208435059
0.063498465, 268.746194058775, -0.000435958440571944, 0.62625,105.83154296875
0.0641647716666667, 268.748011357505, -0.000658298272673063, 0.63375,101.285079956055
0.0648310683333333, 268.749678911803, -0.000503995023129711, 0.64125,103.629043579102
0.06549772, 268.751655061397, -0.000447336869050435, 0.64625,102.446769714355
0.0661647583333333, 268.753881554509, 0.000244878361693429, 0.6525,102.446769714355
0.06683113, 268.75606475982, 0.000541638455781555, 0.66,102.439979553223
0.0674991583333333, 268.758871424088, 0.000791309915034739, 0.6675,100.986480712891
0.0681652183333333, 268.761732774651, 0.00113057937388324, 0.67375,106.038314819336
0.0688316783333333, 268.764145183308, 0.0010000424305903, 0.68,102.034362792969
0.0694979183333333, 268.767087251139, 0.000833606290487346, 0.68625,102.034362792969
0.0701651616666667, 268.7692222886, 0.000558190124334538, 0.69375,107.242660522461
0.0708310483333333, 268.771911446209, 0.000526195231405088, 0.7,107.04557800293
0.071497905, 268.773263680955, 5.77687599909394E-05, 0.70625,105.757270812988
0.0721649816666667, 268.776304260039, 0.000356609249545196, 0.7125,103.808502197266
0.0728326333333333, 268.777411834201, 6.31924875683E-05, 0.71875,103.808502197266
0.07349891, 268.780287339318, 7.98476509901241E-05, 0.725,106.097190856934
0.0741660066666667, 268.781689402453, 0.000271134542835817, 0.73375,106.832298278809
0.074831065, 268.78422337981, 0.000490366531042034, 0.74,108.486892700195
0.0754983566666667, 268.785646886447, 0.000331963987424447, 0.74625,101.312866210938
0.0761649216666667, 268.787711680377, 0.000249420133487879, 0.7525,101.312866210938
0.0768324683333333, 268.789886989598, 0.000232341991341828, 0.75875,105.018753051758
0.0774992833333333, 268.791952364912, -0.000306811927498376, 0.76625,107.257827758789
0.07816586, 268.794784405747, -0.000356609426188175, 0.7725,128.096237182617
0.0788312433333333, 268.797130803162, -0.00044284009492432, 0.78,105.94019317627
0.079498515, 268.800128070168, -0.000493360557325268, 0.78625,105.94019317627
0.080165145, 268.802236620229, -0.000561526133445478, 0.79125,100.866188049316
0.0808314066666667, 268.804659536739, -0.000479091774054109, 0.79875,109.043449401855
0.0814978666666667, 268.806836678022, -0.000616322881106515, 0.80625,104.359725952148
0.082165155, 268.808887633225, -0.000450620204164281, 0.8125,104.771499633789
0.08283115, 268.81152367286, -0.000525316452262742, 0.81875,104.771499633789
0.0834981866666667, 268.813100097244, -0.000288673338586681, 0.825,106.680633544922
0.084165255, 268.816195078302, -0.000508347804576875, 0.83125,103.096473693848
0.0848315766666667, 268.817835494, -0.000609712713113637, 0.83875,101.915802001953
0.0854979933333333, 268.8201829134, -0.000629255231521831, 0.845,104.916679382324
0.08616438, 268.821693271646, -0.000460737195964583, 0.8525,104.916679382324
0.0868311133333333, 268.824795326646, -0.000681937085349193, 0.85875,99.2586822509766
0.0874980383333333, 268.826266272561, -0.000458197823546039, 0.865,100.272666931152
0.088165165, 268.828860199295, -0.000272561147862599, 0.87125,103.676765441895
0.0888313516666667, 268.831548599389, -0.000545433441759892, 0.8775,106.496917724609
0.08949841, 268.8333448891, -0.000566595878799907, 0.885,106.496917724609
0.0901644683333333, 268.8353009648, -0.000449109779992643, 0.89125,106.914527893066
0.0908310533333333, 268.837575889272, -0.000339834268792837, 0.89875,102.354469299316
0.091498165, 268.839415643529, -0.000135936010375379, 0.905,105.80786895752
0.0921652133333333, 268.841277129588, -0.00021033677332389, 0.91,101.449348449707
0.0928310916666667, 268.843774269627, -3.81214235174973E-05, 0.9175,101.449348449707
0.0934981733333333, 268.845858035663, -7.0033820583514E-05, 0.925,106.694046020508
0.09416445, 268.847532681021, -5.41481184868317E-05, 0.93125,108.630767822266
0.0948313416666667, 268.850173386183, -0.000239498308566742, 0.93625,127.323234558105
0.0954977683333333, 268.851651973409, -0.000229108330418777, 0.94375,108.314186096191
0.0961646133333333, 268.853746802781, 1.16010343822523E-06, 0.95125,108.314186096191
0.09683107, 268.855273125289, -0.000139708320887196, 0.95625,106.16276550293
0.0974979283333333, 268.857625331917, -0.000274725539095311, 0.96375,112.423095703125
0.0981645766666667, 268.859008839825, -0.000117447938992709, 0.97125,111.309059143066
0.0988309833333333, 268.861384716933, 0.000105419866562119, 0.97625,105.568534851074
0.0994980266666667, 268.863144142712, -0.000343422088581798, 0.98375,105.568534851074
0.100164733333333, 268.864990976552, -0.000298910324360498, 0.99125,106.999786376953
0.100831361666667, 268.867021720934, 3.74537804087974E-05, 0.9975,107.30770111084
0.101498143333333, 268.868747824188, -0.000120087806452541, 1.00375,102.709815979004
0.102164465, 268.870668328832, -0.000205822000083683, 1.00875,108.576202392578
0.102831473333333, 268.872305923352, -0.000399883752542993, 1.01625,108.576202392578
0.10349825, 268.874302801819, -0.000495604444572608, 1.02375,104.855751037598
0.10416535, 268.875714842956, -0.00074466843437871, 1.03,107.051010131836
0.104831126666667, 268.877217137338, -0.000805385384615841, 1.035,113.045440673828
0.105497926666667, 268.878438026052, -0.000596148894333263, 1.0425,108.494621276855
0.106165158333333, 268.880063940708, -0.000527069864102691, 1.05,108.494621276855
0.106831935, 268.881602102275, -0.000477981829719395, 1.055,105.085540771484
0.107498573333333, 268.882730958252, -0.000643551013347232, 1.06125,101.389091491699
0.108164988333333, 268.884559077791, -0.000816003351230593, 1.06875,103.852081298828
0.108831561666667, 268.885554877667, -0.00111129651895478, 1.075,108.384727478027
0.109497891666667, 268.888116138695, -0.000758727228169651, 1.08125,108.384727478027
0.110166181666667, 268.888987798346, -0.00063703984042873, 1.08875,104.364654541016
0.110832455, 268.891623124429, -0.000211010239465969, 1.095,106.442184448242
0.111499185, 268.892440004742, 6.21785385441732E-05, 1.10125,127.639122009277
0.112165811666667, 268.894777058382, 0.000451974459491238, 1.10875,103.552352905273
0.112831475, 268.895825492179, 0.000414080362906087, 1.115,103.552352905273
0.113498146666667, 268.898188591055, 0.000439414090434201, 1.12125,109.444107055664
0.114165835, 268.899446803359, 0.000320087584065328, 1.1275,107.993919372559
0.114831365, 268.901722489536, 0.000508319129370233, 1.135,105.795166015625
0.11549815, 268.904760781674, 0.000456901712027358, 1.14125,104.164817810059
0.11616453, 268.90689960346, 0.000224728373816899, 1.1475,104.164817810059
0.116831746666667, 268.910175478089, 0.000291523018798736, 1.155,102.357620239258
0.117497951666667, 268.91270214862, 0.000260644069816596, 1.16125,101.89208984375
0.118164565, 268.916538567908, 0.000156628794391687, 1.1675,104.719512939453
0.11883133, 268.919571396978, -3.28581878300311E-05, 1.17375,106.240112304688
0.119497931666667, 268.923742470076, 2.70758017623287E-05, 1.18,106.240112304688
0.120164735, 268.927918316509, 0.000256306287762243, 1.18625,108.183982849121
0.1208311, 268.932325551829, 0.000387659190036831, 1.1925,105.547286987305
0.12149793, 268.936994830329, 0.000473747365912158, 1.2,102.756469726563
0.122165181666667, 268.941387300357, 0.000390384553102633, 1.2075,102.265625
0.122831123333333, 268.946313129892, 0.000395805280831187, 1.21375,102.265625
0.123498113333333, 268.950677789558, 0.000217006761671174, 1.22,105.604293823242
0.124165191666667, 268.95604941836, 0.000257087748418849, 1.22625,102.791145324707
0.124831315, 268.960589334167, 0.000417540689057009, 1.23375,107.679595947266
0.125497895, 268.965110745879, 0.000665155751634516, 1.24,109.254081726074
0.126165171666667, 268.969869562178, 0.000904278240752989, 1.24625,109.254081726074
0.126832001666667, 268.974506021351, 0.00087689711611687, 1.25375,104.641372680664
0.127498661666667, 268.97940786613, 0.000797260116226422, 1.25875,106.342910766602
0.128164608333333, 268.983842490126, 0.000659657027900754, 1.26625,128.83464050293
0.128831055, 268.988856086251, 0.000639831023737837, 1.27375,107.484352111816
0.12949853, 268.993157766174, 0.00084130390394889, 1.28,107.484352111816
0.130165291666667, 268.997912444843, 0.000770874941542845, 1.28625,98.4316177368164
0.130831256666667, 269.002313994, 0.000754407268692682, 1.2925,106.300765991211
0.131498515, 269.007188811295, 0.000712748361153968, 1.3,103.55712890625
0.132165053333333, 269.011973456943, 0.000867707077746561, 1.305,108.230781555176
0.13283113, 269.016597205089, 0.000550901990553895, 1.31125,108.230781555176
0.133498246666667, 269.022567514181, 0.000620748982185205, 1.32,104.11149597168
0.134164755, 269.027008421058, 0.000738532066045569, 1.32625,105.299957275391
0.13483112, 269.033065584414, 0.000608925076052676, 1.3325,102.00057220459
0.135498481666667, 269.038273303493, 0.000268269686843021, 1.33875,106.960891723633
0.13616517, 269.044214086493, 2.79097598580647E-05, 1.34625,106.960891723633
0.136831166666667, 269.048357392707, 0.00013402043001439, 1.3525,110.170188903809
0.137498518333333, 269.053484426676, 1.14240878938087E-05, 1.35875,103.241569519043
0.138164605, 269.058339320521, 0.000271656516740692, 1.365,110.321327209473
0.138831076666667, 269.063053694597, 0.000467323188587792, 1.3725,102.800628662109
0.139498475, 269.068527540854, 0.00113528313766202, 1.37875,102.800628662109
0.140165076666667, 269.073557177926, 0.00111594160920888, 1.385,107.077140808105
0.14083195, 269.080122623476, 0.00074586519777085, 1.3925,103.615028381348
0.1414985, 269.084768027374, 0.000460585527041891, 1.39875,105.287605285645
0.142164586666667, 269.09092666265, 0.000390792532667843, 1.405,105.389389038086
0.142831381666667, 269.095624921952, -1.82879196475468E-05, 1.41125,105.389389038086
0.143497966666667, 269.100904360967, -0.000124967061301486, 1.41875,104.598663330078
0.144165071666667, 269.10573793592, 5.30229984351383E-05, 1.425,124.785797119141
0.144831105, 269.110239300214, 3.00111543296027E-05, 1.43125,109.230461120605
0.145498511666667, 269.115011273093, -0.000139583827097963, 1.43875,106.897277832031
0.146164583333333, 269.11936847727, -0.00031881582447428, 1.445,106.897277832031
0.146831345, 269.125479371278, -0.000369780264583609, 1.45125,105.261863708496
0.147498528333333, 269.129291798719, -5.71599671561635E-05, 1.4575,105.098976135254
0.148164606666667, 269.135581931407, 5.40534466702092E-05, 1.465,102.552055358887
0.148831365, 269.140373993512, 0.000157648743155935, 1.47125,99.3748779296875
0.149498656666667, 269.146190082793, 0.000409946570528069, 1.4775,99.3748779296875
0.150164583333333, 269.150201407719, 0.000488857606901069, 1.485,105.161026000977
0.150831255, 269.155670968229, 0.000122462010565, 1.4925,105.207092285156
0.15149796, 269.160776428124, -0.000169298834594396, 1.49875,106.231475830078
0.152164598333333, 269.165506115944, -0.000365593974872731, 1.50375,103.216903686523
0.152831546666667, 269.170254740304, -0.000543651531228756, 1.51125,103.216903686523
0.153498666666667, 269.174954616632, -0.000618847254217264, 1.5175,103.297233581543
0.15416513, 269.180802850415, -0.000635989893176417, 1.525,100.084480285645
0.154831561666667, 269.185301805058, -0.000589913707526215, 1.53125,104.747947692871
0.155497878333333, 269.191157551675, -0.000644579961721662, 1.5375,105.791381835938
0.156164833333333, 269.195698435373, -0.000398566818725646, 1.54375,105.791381835938
0.156831111666667, 269.201642783676, -0.000561262146750504, 1.55,107.239631652832
0.157498706666667, 269.206315660991, -0.000500101218783739, 1.55875,106.89826965332
0.158165326666667, 269.21166500051, -0.000333135605323928, 1.565,102.265975952148
0.158831431666667, 269.216682750609, -6.16777403514483E-05, 1.57,103.058181762695
0.159498586666667, 269.22173791577, -0.000116349994201999, 1.57625,103.058181762695
0.160164615, 269.227049203605, 0.000169109667476605, 1.58375,100.455787658691
