Time (min), Depth (µm), Load (N), Position (µm), Acoustic (aJ)
8.585E-06, 268.851105311691, 0.000194390155478039, 0,122.21997833252
0.00066663, 268.851073417586, 0.00034917338091545, 0.00124999999999995,102.629135131836
0.00133303166666667, 268.849904894985, 0.000296322035588012, 0.00500000000000023,105.648208618164
0.00199971333333333, 268.849886534116, 0.00027370617154619, 0.0137499999999999,102.916786193848
0.00266641666666667, 268.849997865459, 0.000351835747198823, 0.0225,104.682174682617
0.00333336833333333, 268.851189286872, 0.000254124655103512, 0.0300000000000001,104.682174682617
0.00399966666666667, 268.852837844443, 0.000261730773027678, 0.0362499999999998,108.340660095215
0.004666455, 268.855180179764, 0.000102117790204121, 0.0449999999999999,102.468704223633
0.00533296333333333, 268.858157265826, 2.21853051424689E-05, 0.0500000000000001,101.837181091309
0.00599968833333333, 268.860269365713, -0.000166670208884224, 0.0574999999999998,110.108085632324
0.006667745, 268.862274166667, 9.59126018638843E-05, 0.0649999999999999,110.108085632324
0.00733296666666667, 268.864029033537, -3.6487247792956E-05, 0.0712500000000001,109.521697998047
0.00799971666666667, 268.866763350537, -0.00011848812896802, 0.0787499999999998,105.067794799805
0.00866709, 268.868974469711, -6.60312638011467E-05, 0.085,106.332397460938
0.00933314, 268.872053554935, 7.63835828603363E-05, 0.0912500000000002,103.459121704102
0.00999986, 268.875630143841, -7.55257868890802E-05, 0.0987499999999999,103.459121704102
0.0106663866666667, 268.878995694358, -1.84948755486725E-06, 0.105,108.606620788574
0.011333075, 268.882197914839, 0.000178205968425109, 0.11125,106.878265380859
0.0119997366666667, 268.885242008497, -2.26474429011288E-05, 0.1175,105.334831237793
0.012666335, 268.888989178404, -0.00012682321025844, 0.125,104.845588684082
0.0133333683333333, 268.891988542199, -0.000359395528402674, 0.13125,104.845588684082
0.0139997033333333, 268.895491845477, -0.000439881485654145, 0.1375,104.792068481445
0.01466689, 268.898859228886, -0.000662912783011436, 0.1425,106.238288879395
0.0153332633333333, 268.901773598789, -0.000321094952155461, 0.15,106.310150146484
0.0159995716666667, 268.90455997318, -0.000232060924242037, 0.1575,128.361953735352
0.016666595, 268.907459270187, -0.000147352679072756, 0.16375,128.361953735352
0.0173330516666667, 268.91104478157, -0.000129985051474369, 0.17,106.837348937988
0.0179997666666667, 268.913698631849, -0.000357571620030755, 0.17625,106.660224914551
0.01866675, 268.917446428205, -0.000474564243624331, 0.1825,110.02555847168
0.019332995, 268.920561171126, -0.000831796800250603, 0.19,104.208068847656
0.01999991, 268.924357107959, -0.000729855920615466, 0.19625,104.208068847656
0.020666495, 268.927225928864, -0.00088580608738739, 0.2025,102.127647399902
0.02133321, 268.930595443642, -0.000575702663554948, 0.21125,113.552917480469
0.0221677066666667, 268.933976686023, -0.000702525793345295, 0.2175,108.098114013672
0.0228336566666667, 268.936857854598, -0.0004479105823663, 0.22375,106.815376281738
0.0235002533333333, 268.940233360353, -0.00069980642989209, 0.23,102.987289428711
0.0241664533333333, 268.943135076815, -0.000756425586000644, 0.23875,102.987289428711
0.0248332683333333, 268.946812950655, -0.000595524167902147, 0.245,108.05118560791
0.0254995716666667, 268.949880262956, -0.000411108430938007, 0.25,104.801231384277
0.0261663383333333, 268.953941857764, -0.000526266646667588, 0.25625,106.788749694824
0.0268330416666667, 268.957009411459, -0.000250070519718815, 0.26375,105.405311584473
0.0274997283333333, 268.961045794474, -0.000197514659520072, 0.27125,105.405311584473
0.0281665733333333, 268.964957304109, -0.000301606431132055, 0.27625,102.369583129883
0.0288331966666667, 268.968791845012, -0.000488789529130304, 0.28375,104.253433227539
0.0295001416666667, 268.972657482573, -0.000303164852863343, 0.29,103.812973022461
0.03016642, 268.976312525328, -0.000574582219876935, 0.29625,107.795211791992
0.0308329916666667, 268.979792803834, -0.000519152504032706, 0.30375,107.795211791992
0.0314999483333333, 268.982846708577, -0.000851354317860322, 0.31125,104.240882873535
0.0321664566666667, 268.98646624563, -0.00104054431507145, 0.31625,110.618209838867
0.032833775, 268.989910732357, -0.00138944629009549, 0.3225,127.902099609375
0.0334996616666667, 268.993673129788, -0.00162636988965622, 0.33,107.420455932617
0.03416675, 268.997240528706, -0.00174763729852172, 0.33625,107.420455932617
0.0348329783333333, 269.000913391445, -0.00179954369132633, 0.3425,104.086921691895
0.0355001916666667, 269.004624626977, -0.00180728780231685, 0.35,107.466163635254
0.0361664016666667, 269.008155592087, -0.00200256449379784, 0.35625,108.723762512207
0.0368330933333333, 269.012170059616, -0.0018035694891048, 0.3625,106.155464172363
0.0374997066666667, 269.016025817619, -0.00199428490966784, 0.36875,106.155464172363
0.0381665916666667, 269.020147328059, -0.0017189692384713, 0.37625,102.92000579834
0.0388330433333333, 269.023502488426, -0.00125397459468692, 0.3825,105.743408203125
0.03950028, 269.026401364609, -0.000986943007393603, 0.38875,102.945861816406
0.04016714, 269.028421628096, -0.000851225324340387, 0.395,104.59342956543
0.0408333033333333, 269.030770476335, -0.000433314815532723, 0.4025,104.59342956543
0.0415011116666667, 269.033306602611, -0.000429412011555315, 0.40875,111.275718688965
0.0421663133333333, 269.035588780577, -0.000480991420754996, 0.415,107.826324462891
0.0428332333333333, 269.039029574325, -0.000455192716598109, 0.42125,108.352127075195
0.043499635, 269.042293152405, -0.000396481165628199, 0.42875,105.665565490723
0.0441663133333333, 269.046098686565, -0.000358053095827963, 0.435,105.665565490723
0.0448334166666667, 269.048863950429, -0.000426868139342308, 0.44125,103.437164306641
0.045499795, 269.052287209945, -0.000505384695554744, 0.45,104.337539672852
0.04616635, 269.055255840443, -0.000561697867000016, 0.455,105.587829589844
0.04683315, 269.058441563446, -0.000422714847989556, 0.46125,104.754165649414
0.047499895, 269.061007042307, -0.000491429396526374, 0.46875,104.754165649414
0.048166515, 269.063701138267, -0.000392885846280984, 0.475,102.327255249023
0.0488329933333333, 269.066828111825, -0.000434661747880644, 0.48125,104.795471191406
0.0494998233333333, 269.069588521195, -0.000494393247678564, 0.4875,129.104598999023
0.050166325, 269.07289854337, -0.00065981693861803, 0.495,101.812774658203
0.0508330966666667, 269.075653898001, -0.000672915780663361, 0.50125,101.812774658203
0.0514996683333333, 269.078952006867, -0.000600722906840273, 0.50875,105.251083374023
0.0521667283333333, 269.081568496613, -0.000751439836476559, 0.515,109.370269775391
0.0528336766666667, 269.084193622887, -0.000280535489501893, 0.52125,105.002067565918
0.0534996566666667, 269.086698047633, -0.000172725404699118, 0.5275,109.965293884277
0.0541663166666667, 269.089471244385, -0.000374129288408876, 0.53375,109.965293884277
0.05483341, 269.092218194135, -0.000383577313840308, 0.54,101.325103759766
0.0554996416666667, 269.094951515513, -0.000378734057113279, 0.54875,100.626159667969
0.056167775, 269.097869414974, -0.000362120891532238, 0.555,103.629684448242
0.0568329966666667, 269.100297231288, -0.000669237965346442, 0.56,104.068977355957
0.0574996533333333, 269.103332659021, -0.000306599680278156, 0.56625,104.068977355957
0.0581665933333333, 269.105567378443, -0.000236551698713047, 0.57375,107.043830871582
0.0588330716666667, 269.108306945925, -2.0622544595411E-05, 0.58125,105.709770202637
0.059499965, 269.110482454099, -0.000338021601979291, 0.5875,101.631408691406
0.0601663816666667, 269.112466207485, 0.00023098681728434, 0.59375,102.151809692383
0.06083301, 269.11473592395, 1.89724665393382E-05, 0.6,102.151809692383
0.0615002133333333, 269.116980301078, 4.91599502865593E-05, 0.60625,104.688385009766
0.0621664283333333, 269.119292700361, 9.89949471289481E-05, 0.615,110.213760375977
0.062833745, 269.12131724831, 0.000198565945781857, 0.62,103.45337677002
0.0635000333333333, 269.124565099336, 0.000140502362260425, 0.62625,105.870712280273
0.0641663766666667, 269.126459864616, 0.000164345164655398, 0.63375,105.870712280273
0.064833335, 269.12899666942, 0.000119768903663503, 0.64,104.72151184082
0.0654996016666667, 269.130882864421, -5.40708645479212E-05, 0.6475,106.618865966797
0.0661683866666667, 269.13362722769, -0.000338350085508621, 0.65375,126.355537414551
0.0668331733333333, 269.13536470969, -0.000387472618110684, 0.66,106.226539611816
0.0674996433333333, 269.137693801076, -0.000373613314244122, 0.66625,106.226539611816
0.068166565, 269.139739963863, -0.000259062567982878, 0.67375,106.868728637695
0.0688335816666667, 269.141549157419, -0.000162915897316468, 0.68,104.780555725098
0.0694998616666667, 269.143545192114, -1.20504751642598E-05, 0.68625,108.753364562988
0.0701673433333333, 269.145643250851, -0.00040226487510485, 0.6925,101.500991821289
0.0708329883333333, 269.147214797453, -0.000263922323878343, 0.69875,101.500991821289
0.07149965, 269.148823817162, -0.000482315854236868, 0.7075,105.861869812012
0.0721663133333333, 269.150945348202, -0.000330054002210178, 0.71375,107.934898376465
0.0728332283333333, 269.152207390863, -6.08040263206128E-05, 0.72,104.826347351074
0.0735012266666667, 269.153601468032, 0.000169947383279255, 0.725,103.71745300293
0.074166925, 269.155674237182, 3.57521237291408E-05, 0.73375,103.71745300293
0.0748331183333333, 269.157601600718, 2.37647258579109E-05, 0.74,107.31413269043
0.0754996866666667, 269.159354676239, -5.57882782659547E-05, 0.74625,102.788619995117
0.076166315, 269.161896464537, -0.000422582854599561, 0.7525,102.045455932617
0.0768339483333333, 269.164292191117, -0.000853917689090571, 0.76,105.557815551758
0.0774996283333333, 269.166036576039, -0.00103055781667298, 0.765,105.557815551758
0.078166325, 269.167699814135, -0.000828196981045162, 0.7725,101.005447387695
0.0788331033333333, 269.169673637802, -0.000619212478147347, 0.78,105.418807983398
0.0794996133333333, 269.171769193541, -0.000566388131459167, 0.78625,106.182083129883
0.0801669783333333, 269.173862578541, 6.6470580693861E-05, 0.79125,112.771118164063
0.0808330916666667, 269.17630505371, -6.9004586362443E-07, 0.79875,112.771118164063
0.0814996666666667, 269.179237324651, -0.000406112181921846, 0.80625,103.708625793457
0.08216635, 269.181536637995, -0.000728841971506322, 0.8125,120.93049621582
0.0828335683333333, 269.184467633531, -0.000786508075018382, 0.81875,105.002555847168
0.0834996933333333, 269.186938634127, -0.000907039020853104, 0.825,109.373115539551
0.084166495, 269.189855419441, -0.000615633657862297, 0.8325,109.373115539551
0.084832975, 269.192112725134, -0.000338830061381426, 0.8375,106.284843444824
0.0854996533333333, 269.195174475807, -0.000116509728318804, 0.845,103.788948059082
0.0861664266666667, 269.197313407053, -0.000246686689648696, 0.8525,109.188026428223
0.0868334533333333, 269.200156659667, -0.00042765409985714, 0.85875,111.201248168945
0.08749968, 269.202628696365, -0.000449857484560541, 0.865,111.201248168945
0.088166315, 269.205410964779, -0.000503709279634985, 0.87125,105.182144165039
0.0888331133333333, 269.20792315528, -0.000329868011499157, 0.87875,107.179840087891
0.08949982, 269.210633685539, -2.90731200861361E-05, 0.885,103.166389465332
0.090166825, 269.213330101388, 0.000141801297091204, 0.89125,103.600257873535
0.0908341, 269.216232215687, 0.000207382502975755, 0.8975,103.600257873535
0.09150018, 269.219075510838, 0.000152600754601258, 0.905,105.847854614258
0.0921673966666667, 269.221893826308, -4.1174512275776E-05, 0.91125,104.652534484863
0.0928346733333333, 269.225197498537, -0.000198393615326651, 0.9175,108.537910461426
0.0934999166666667, 269.228356958485, -0.000280225005022894, 0.925,106.90404510498
0.0941666483333333, 269.231075662659, -0.000518482037633163, 0.93,106.90404510498
0.0948329983333333, 269.233903098789, -0.000481492395590701, 0.93625,103.706703186035
0.0954997616666667, 269.236070369592, -0.000552560325962566, 0.945,105.83032989502
0.0961664766666667, 269.23833286543, -0.000692461298877853, 0.95125,108.432243347168
0.096832985, 269.240862808592, -0.00100185675828569, 0.95625,106.533882141113
0.09749972, 269.242719299173, -0.000749167450580541, 0.96375,106.533882141113
0.0981665016666667, 269.244808838255, -0.000839264925087162, 0.97125,102.609352111816
0.09883301, 269.24728150434, -0.000976679022895511, 0.9775,126.928512573242
0.09949978, 269.249661445243, -0.000676500600561008, 0.9825,102.646057128906
0.100166321666667, 269.250846442672, -0.000456761637821474, 0.99,101.591720581055
0.100833038333333, 269.25350672459, -0.000448531551218028, 0.99625,101.591720581055
0.101499661666667, 269.255057751903, -0.000241297460353865, 1.00375,103.057838439941
0.102166321666667, 269.258102566033, -0.000208762594575479, 1.01,111.163635253906
0.10283306, 269.259546561002, -0.000424558255357463, 1.01625,105.55152130127
0.103499645, 269.262191883047, -0.000242798884979083, 1.0225,107.680442810059
0.104166956666667, 269.264237644563, -0.000410761948379601, 1.03,107.680442810059
0.104833005, 269.267130585271, -0.000451051424683091, 1.035,104.930892944336
0.105499618333333, 269.268914768065, -0.000187519161638942, 1.0425,100.936111450195
0.106166471666667, 269.271552747775, -0.000126169243176112, 1.04875,105.354675292969
0.106833191666667, 269.274429941007, -5.48523253107972E-05, 1.055,105.018424987793
0.107500286666667, 269.27670710586, 0.000112705758415825, 1.0625,105.018424987793
0.108166871666667, 269.280027373651, 0.000133986689462443, 1.06875,100.175506591797
0.108833398333333, 269.282419292079, -7.42253522614229E-05, 1.075,106.596626281738
0.109499675, 269.285924661753, 0.000110146886916276, 1.08125,106.579971313477
0.110166483333333, 269.28828472466, -2.68352326001722E-05, 1.08875,105.080039978027
0.110833065, 269.29222495262, -3.22049628990156E-05, 1.095,105.080039978027
0.111499721666667, 269.29514064295, -0.000167070688721148, 1.10125,109.81275177002
0.112166315, 269.298967262534, -0.000216667197519656, 1.10875,108.887153625488
0.112833076666667, 269.302115107979, -0.000405167229399015, 1.115,102.318344116211
0.113499645, 269.305814918665, -0.000625371168788575, 1.12125,106.132041931152
0.11416638, 269.309178619444, -0.000680848882192454, 1.1275,106.132041931152
0.114833143333333, 269.312215578484, -0.000867001531934378, 1.135,104.641891479492
0.115499716666667, 269.316019992434, -0.000773023752337652, 1.14125,127.851593017578
0.116166753333333, 269.319224192576, -0.000806869552299534, 1.1475,105.297866821289
0.116832985, 269.323343071344, -0.000761325839918759, 1.155,108.17512512207
0.117499886666667, 269.326304148897, -0.000730014912644719, 1.16125,108.17512512207
0.118166916666667, 269.330447526691, -0.00040784459492642, 1.1675,106.6943359375
0.118833203333333, 269.334645383639, -0.000600976394106932, 1.17375,104.786468505859
0.119499693333333, 269.338485746005, -0.00081541912288589, 1.18,106.228179931641
0.120166453333333, 269.342543263247, -0.00059821053301848, 1.18625,103.755737304688
0.120833721666667, 269.34702255426, -0.000904493648758202, 1.1925,103.755737304688
0.121499975, 269.351864777163, -0.00130705542846931, 1.2,102.355766296387
0.122166473333333, 269.355284546988, -0.0013472534093842, 1.2075,105.818809509277
0.122833505, 269.360069149777, -0.000890320860606343, 1.21375,103.550582885742
0.12349968, 269.363744378142, -0.000972179248984352, 1.22,106.874969482422
0.124166431666667, 269.367984839761, -0.00102100329660891, 1.2275,106.874969482422
0.1248339, 269.371530711533, -0.000829057937843919, 1.23375,107.07389831543
0.125499966666667, 269.375475105362, -0.000648332015485654, 1.23875,107.619171142578
0.126166801666667, 269.379890475597, -0.00104318718229507, 1.24625,110.029685974121
0.126833003333333, 269.383898362139, -0.00124251817009695, 1.25375,105.080741882324
0.127499941666667, 269.388884595022, -0.000984120149135319, 1.26,105.080741882324
0.128166975, 269.393254894704, -0.00100910139436491, 1.26625,108.933418273926
0.128833086666667, 269.398574364687, -0.000752192798612011, 1.27375,101.106704711914
0.12949963, 269.402415364036, -0.000640491909269563, 1.28,103.225532531738
0.130166405, 269.407644410045, -0.000216044728807288, 1.285,106.868942260742
0.130833181666667, 269.411873610348, -0.000202633902422317, 1.2925,106.868942260742
0.131500176666667, 269.416640636736, -3.28499304774328E-05, 1.3,109.882278442383
0.132166535, 269.420972362878, -0.000276968668697085, 1.30625,126.063316345215
0.1328331, 269.425537498818, -0.000185851245426216, 1.3125,108.713081359863
0.133499836666667, 269.430112359122, -0.000321733920185044, 1.32,105.737274169922
0.134166421666667, 269.434195278161, -0.00029473827616307, 1.32625,105.737274169922
0.134833711666667, 269.438881246534, -0.00037614068737371, 1.3325,106.284042358398
0.13550013, 269.442472941208, -0.00026318136120188, 1.33875,109.457672119141
0.136166421666667, 269.447231034078, -0.000148770107952647, 1.34625,105.636337280273
0.136833255, 269.451082077813, -0.000201201474362157, 1.3525,104.160278320313
0.137499921666667, 269.455875404121, -0.000148983097239163, 1.35875,104.160278320313
0.138166973333333, 269.460507512864, -0.000210622501175585, 1.365,105.736694335938
0.13883317, 269.465537184718, -0.000125263288687765, 1.3725,104.486183166504
0.139499785, 269.470360452627, -0.00033898455363747, 1.37875,106.704315185547
0.140166645, 269.474811583434, -9.49573108701787E-05, 1.385,102.268020629883
0.140833113333333, 269.479414890793, 0.000127201030356892, 1.3925,102.268020629883
0.14150032, 269.483341988403, 0.000429383352034213, 1.39875,102.440292358398
0.142166485, 269.488172051112, 0.000780142233809557, 1.405,105.160636901855
0.142833278333333, 269.492565360632, 0.00106668934080805, 1.41125,102.014053344727
0.143499708333333, 269.497612057724, 0.00111171257931462, 1.41875,109.220802307129
0.144166411666667, 269.502153676328, 0.000938382785464067, 1.425,109.220802307129
0.14483365, 269.50685858276, 0.000915430938313408, 1.43125,105.622276306152
0.145499641666667, 269.511466681397, 0.000538913850382573, 1.43875,105.609725952148
0.146166575, 269.516070458665, 0.000339596361921575, 1.44625,102.742065429688
0.146833106666667, 269.5209468386, 0.00036568305162765, 1.45125,99.9497909545898
0.147500066666667, 269.525288303405, 0.000427440949634437, 1.4575,99.9497909545898
0.148166565, 269.530083095833, 0.000491178748151081, 1.465,103.369873046875
0.148833963333333, 269.534673164484, 0.000533266634111635, 1.47125,125.755157470703
0.149499655, 269.539361972779, 0.000600782742816455, 1.4775,107.267097473145
0.150166815, 269.543868302888, 0.000414453101931185, 1.485,101.796424865723
0.150833051666667, 269.548503738321, 0.000513832110196714, 1.4925,101.796424865723
0.151500265, 269.553539004478, 0.000379038380745938, 1.49875,106.385765075684
0.152166686666667, 269.5582683207, 0.000225720581769321, 1.50375,107.106498718262
0.152833076666667, 269.563401771031, 0.000164123175737445, 1.51125,105.81551361084
0.153499598333333, 269.567685747843, 0.000290011852518293, 1.5175,101.801216125488
0.154166311666667, 269.572724618255, 0.000236470541859085, 1.52375,101.801216125488
0.1548333, 269.577215036225, 5.12223466811044E-05, 1.53125,104.715812683105
0.155500548333333, 269.581921601217, 0.000130844347348774, 1.5375,103.718246459961
0.156166518333333, 269.586261737413, 0.000290484328811589, 1.54375,106.416786193848
0.15683329, 269.591220270772, 0.000140719851341405, 1.55125,106.454200744629
0.157499636666667, 269.596096979108, 4.81729998591828E-05, 1.55875,106.454200744629
0.158166351666667, 269.600658154108, 0.000224877624169674, 1.56375,112.158149719238
0.15883362, 269.605719064145, 0.000557758903900744, 1.57,99.4404830932617
