Time (min), Depth (µm), Load (N), Position (µm), Acoustic (aJ)
9.31833333333333E-06, 268.705203733496, 0.000122811744365928, 0,105.840690612793
0.000665616666666667, 268.70406144523, 6.03188833590368E-05, 0.00124999999999995,105.840690612793
0.00133268666666667, 268.704291819273, 0.000286201537495765, 0.00625000000000018,106.150955200195
0.00199865833333333, 268.703775848061, 0.000278319433396383, 0.0137499999999999,109.14282989502
0.002664195, 268.705235563488, 0.000231992760328329, 0.0225,103.666458129883
0.00333122666666667, 268.705767034744, -0.000164431327746962, 0.03125,104.649124145508
0.003997155, 268.708668198544, -0.000514452246567124, 0.0362499999999998,104.649124145508
0.00466456166666667, 268.710645412664, -0.000869994388072113, 0.04375,104.451065063477
0.00533105833333333, 268.713118196974, -0.000747426544493939, 0.0512500000000001,100.68904876709
0.00599717166666667, 268.715738728761, -0.000637105585793775, 0.0574999999999998,122.476318359375
0.00666429833333333, 268.717769690456, -0.000530645433166474, 0.06375,96.2970504760742
0.00733067666666667, 268.720643032085, -0.000132232444992398, 0.0700000000000002,96.2970504760742
0.00799756666666667, 268.722536806366, -7.3199910136429E-05, 0.0787499999999998,102.63508605957
0.00866452666666667, 268.726225508946, 2.48411653488532E-05, 0.085,104.907920837402
0.00933085666666667, 268.728225016251, 3.01089007457668E-05, 0.0912500000000002,100.382858276367
0.00999715833333333, 268.731817164406, 0.000230620329265553, 0.0987499999999999,105.505805969238
0.0106639716666667, 268.73405504482, -0.000219106581446319, 0.105,105.505805969238
0.0113307483333333, 268.737284879248, -0.000399283531366721, 0.1125,105.945205688477
0.011997365, 268.739801160909, -0.000757017062764935, 0.11875,108.018974304199
0.012663995, 268.742497983661, -0.00109164725462651, 0.12375,106.649147033691
0.0133308883333333, 268.745048483145, -0.00103589805484188, 0.13,108.694808959961
0.01399721, 268.746818182589, -0.00102621154138782, 0.1375,108.694808959961
0.0146646816666667, 268.749962816527, -0.000739230956130514, 0.14375,104.061996459961
0.0153308483333333, 268.751882616643, -0.000677854039070933, 0.15125,101.610855102539
0.0159972283333333, 268.755217401376, -0.000311873921900837, 0.15625,105.898315429688
0.0166645866666667, 268.757396516731, -0.000722785782252671, 0.1625,109.016120910645
0.0173309933333333, 268.761346296507, -0.000495052221083511, 0.17125,109.016120910645
0.0179976466666667, 268.76434588736, -0.000516342151676549, 0.17625,104.654083251953
0.0186646066666667, 268.768005652541, -0.000286672187741463, 0.18375,107.473243713379
0.0193315983333333, 268.771143957368, -0.000602236837282602, 0.19,105.151397705078
0.0199986183333333, 268.774679685011, -0.000451711897991187, 0.19625,101.990051269531
0.020664555, 268.777897468768, -0.000476732141255259, 0.2025,101.990051269531
0.02133095, 268.780144673909, -0.000690385909649325, 0.20875,104.775604248047
0.02199722, 268.783712350904, -0.000674075728861504, 0.21625,99.2730484008789
0.02266414, 268.786084505768, -0.000475554700322398, 0.2225,127.801918029785
0.023330725, 268.789292213482, -0.000320715977682067, 0.22875,102.569541931152
0.0239972316666667, 268.791787725756, -0.000658148028817768, 0.23625,102.569541931152
0.02466485, 268.7952064191, -0.000504210760956335, 0.2425,101.946746826172
0.0253312266666667, 268.797842795316, -0.000758789973728398, 0.25,102.567359924316
0.0259978816666667, 268.800949035703, -0.00107342766981829, 0.25625,109.392303466797
0.0266645983333333, 268.804159534407, -0.00125388660554776, 0.26125,105.169883728027
0.0273307566666667, 268.806757709471, -0.00102310069768662, 0.26875,105.169883728027
0.0279971833333333, 268.810477339297, -0.000961843774558042, 0.275,107.002075195313
0.0286639483333333, 268.813186808305, -0.00102742198059379, 0.28125,104.890357971191
0.0293309666666667, 268.816435099181, -0.000701237864513493, 0.29,102.17951965332
0.0299972383333333, 268.818925250778, -0.000708647492340833, 0.295,102.859603881836
0.0306643816666667, 268.822918457773, -0.000553666276882192, 0.30125,102.859603881836
0.03133064, 268.825960928568, -0.000644791199732569, 0.3075,108.388374328613
0.0319978433333333, 268.82966557358, -0.000905905584234838, 0.315,100.963668823242
0.0326647866666667, 268.833753433075, -0.00112005132791819, 0.32125,105.54288482666
0.033330955, 268.837013505595, -0.00104794694965615, 0.3275,105.413223266602
0.0339974583333333, 268.841278043909, -0.00137913181456832, 0.335,105.413223266602
0.03466457, 268.844233950365, -0.00135998077651439, 0.34125,104.412803649902
0.03533124, 268.848040555263, -0.000702520300069566, 0.3475,105.371719360352
0.03599774, 268.850233386387, -0.000470783439987979, 0.35375,104.352897644043
0.0366648333333333, 268.85449324952, -0.000373555323614279, 0.36125,98.8674468994141
0.037330935, 268.856713684179, -0.000369660019301396, 0.3675,98.8674468994141
0.0379973733333333, 268.860149367402, -0.000369624021136972, 0.37375,102.67162322998
0.038664335, 268.862736375283, -0.000841804803948843, 0.38,105.014587402344
0.0393311266666667, 268.865123385374, -0.00129963880744184, 0.3875,126.550086975098
0.03999726, 268.866594383148, -0.00133002428121029, 0.39375,105.106658935547
0.0406645433333333, 268.868052770299, -0.00127767991041617, 0.4,105.106658935547
0.0413309583333333, 268.869960197805, -0.00111914237358104, 0.4075,106.591773986816
0.0419975033333333, 268.87080102331, -0.00110433211751528, 0.41375,99.0658721923828
0.04266409, 268.874127972106, -0.000309955518206497, 0.42,106.444221496582
0.0433307166666667, 268.876113249362, -0.000217782148006956, 0.4275,101.045692443848
0.04399803, 268.879638957229, 5.15698227207764E-05, 0.43375,101.045692443848
0.0446639583333333, 268.881907366069, -0.000367477628975844, 0.44,104.533706665039
0.04533131, 268.885417951374, -8.77911773243212E-05, 0.44625,104.307250976563
0.0459972116666667, 268.886953169491, -0.000313493840490151, 0.45375,98.8532104492188
0.0466640716666667, 268.889917472026, -0.000421701405302296, 0.46,101.212677001953
0.047330975, 268.891911322308, -0.000377929103918072, 0.46625,101.212677001953
0.0479974483333333, 268.893930284757, 6.63507981775722E-06, 0.47375,104.149879455566
0.04866458, 268.896566458811, -0.000199733554516948, 0.48,103.211845397949
0.0493307283333333, 268.899340763595, -0.000411665409398516, 0.4875,111.763198852539
0.0499976633333333, 268.901848014459, -0.000106162254518521, 0.4925,106.042953491211
0.0506648416666667, 268.904029690326, -0.000208284625048962, 0.5,106.042953491211
0.0513309383333333, 268.906788846198, -0.000196228230633928, 0.50625,94.9789123535156
0.0519980016666667, 268.908858618019, -4.45933470928155E-05, 0.5125,104.342308044434
0.0526641216666667, 268.911004768847, 0.00023907540448698, 0.52,101.618789672852
0.0533307283333333, 268.913573981532, -0.000225394265671243, 0.5275,105.050666809082
0.0539976666666667, 268.915841003961, -0.000409929996566389, 0.5325,105.050666809082
0.05466485, 268.917974461035, -0.000292583390749882, 0.53875,105.406005859375
0.0553308766666667, 268.919271755338, -0.000213340871041254, 0.545,130.169311523438
0.0559972533333333, 268.921729015437, -0.000165887754555066, 0.5525,105.277587890625
0.0566641016666667, 268.923691051479, -0.000302328401276922, 0.55875,106.195404052734
0.0573307, 268.926020783559, -0.000124476334606652, 0.56625,106.195404052734
0.05799776, 268.928203626426, -0.000234443311105139, 0.57375,105.824211120605
0.0586645716666667, 268.930925442422, -0.000333009360216577, 0.57875,106.350341796875
0.0593312, 268.932727295364, -0.000487494100612724, 0.585,102.592475891113
0.05999749, 268.934094575035, 3.7778015516124E-05, 0.59375,104.30591583252
0.060664615, 268.935701764417, 0.000383500150231402, 0.59875,104.30591583252
0.061330905, 268.936813831833, 0.00046930334047011, 0.605,104.929336547852
0.061997455, 268.938746423391, 0.000684095551656282, 0.6125,107.455955505371
0.0626649533333333, 268.939723880687, 0.000886342393029449, 0.62,100.537178039551
0.0633310516666667, 268.941462640767, 0.000954642962388459, 0.62625,103.020988464355
0.0639972516666667, 268.94289176295, 0.000676829916635417, 0.6325,103.020988464355
0.0646643683333333, 268.945219522775, 0.000503515122050149, 0.6375,104.170227050781
0.0653307816666667, 268.946851707341, 0.000234572630748269, 0.645,106.01831817627
0.06599772, 268.948935296006, 6.67557775539105E-06, 0.65125,100.821655273438
0.0666641116666667, 268.951389950969, -0.000175160288831317, 0.65875,106.809394836426
0.067330755, 268.953164233294, -4.87136401086959E-05, 0.665,106.809394836426
0.067997465, 268.955231806021, 0.000105379619954438, 0.67125,106.014297485352
0.068663935, 268.95621258638, 6.66935631568415E-05, 0.6775,105.978172302246
0.06933058, 268.95870343904, 0.000390240811711126, 0.68375,98.9958648681641
0.06999776, 268.959719242758, 0.000344641602106177, 0.6925,105.985816955566
0.0706647966666667, 268.962372522549, 0.000322321223256814, 0.6975,105.985816955566
0.0713310716666667, 268.963727682096, 0.000283755160390224, 0.705,101.102058410645
0.0719971983333333, 268.966284442534, 0.000592459154499378, 0.71125,124.341011047363
0.0726640416666667, 268.967778463485, 0.000291895251508221, 0.7175,108.867858886719
0.0733308683333333, 268.970151121215, 0.00066146018866098, 0.725,106.443260192871
0.073997485, 268.971915423514, 0.000587099923671357, 0.73125,106.443260192871
0.07466459, 268.973848770873, 0.000743549565354582, 0.73875,104.554374694824
0.0753307366666667, 268.976122790612, 0.000530342774517704, 0.745,104.825553894043
0.075997485, 268.977595382898, 0.000603491100355699, 0.75,108.959526062012
0.0766644316666667, 268.979558649795, 0.000422159208474756, 0.7575,100.644554138184
0.0773309833333333, 268.980426857119, 0.000364151122134991, 0.765,100.644554138184
0.0779971733333333, 268.98303015151, 4.42801889307139E-05, 0.77125,101.652862548828
0.0786640433333333, 268.984642043538, 9.04148716113886E-05, 0.7775,101.118377685547
0.07933075, 268.987738962586, -4.47088412506122E-05, 0.785,104.019927978516
0.0799978666666667, 268.990079457595, -0.000152677918125148, 0.79,105.558250427246
0.0806645033333333, 268.993229958104, -0.00022361985474087, 0.7975,105.558250427246
0.0813325533333333, 268.995855365893, 7.37582082651612E-05, 0.8025,111.088035583496
0.0819972, 268.998148996663, -0.000102904418162039, 0.81125,104.321395874023
0.0826643033333333, 269.000684291874, -0.000127875163920803, 0.8175,110.013473510742
0.0833306866666667, 269.003089438101, -0.000143991854375587, 0.82375,107.91056060791
0.0839978433333333, 269.005881431417, -0.000112940414044565, 0.83,107.91056060791
0.0846642983333333, 269.007916467005, -0.00034752563109929, 0.83625,102.931800842285
0.0853309616666667, 269.010844389535, 9.52116306819169E-05, 0.84375,106.936920166016
0.0859972483333333, 269.013316226835, 0.000331584757901629, 0.85,101.30199432373
0.0866648183333333, 269.015820179247, 0.000192903223759986, 0.85625,108.957817077637
0.0873306116666667, 269.018577063841, 0.000421113760953144, 0.86375,108.957817077637
0.0879973533333333, 269.020661245003, 0.000472852162182079, 0.86875,106.571853637695
0.088665765, 269.023699850924, 0.000275768061540106, 0.87625,123.116836547852
0.0893311516666667, 269.025369811615, 0.000342435212883903, 0.88375,102.526840209961
0.0899971866666667, 269.028866429833, 0.000349865839652888, 0.89,102.504547119141
0.09066481, 269.030593419682, 4.18563106912214E-05, 0.895,102.504547119141
0.0913309666666667, 269.03355708502, 0.000135487607687032, 0.90375,102.76513671875
0.091997455, 269.035501089327, 0.000302288229483738, 0.91,99.5651168823242
0.0926642016666667, 269.038344918758, 0.000457957910370999, 0.91625,103.315086364746
0.09333097, 269.040187342323, 0.00060543650264679, 0.9225,106.655242919922
0.0939974716666667, 269.042798047442, 0.000855322451153403, 0.93,106.655242919922
0.09466407, 269.045528254379, 0.000935125942716375, 0.935,106.473518371582
0.0953307283333333, 269.047339068139, 0.000641158708355959, 0.9425,104.908477783203
0.095997205, 269.050490150059, 0.000505876003485959, 0.95,103.464332580566
0.096664015, 269.052730527483, 0.000249807365547667, 0.955,103.388061523438
0.097330985, 269.056098254925, 0.00023283421808859, 0.9625,103.388061523438
0.0979973266666667, 269.058017977578, 0.000292594216386409, 0.9675,102.037902832031
0.0986640483333333, 269.061563042091, 0.000543476114866818, 0.975,104.177360534668
0.099330715, 269.063934232187, 0.000410155311456344, 0.9825,102.013801574707
0.0999971833333333, 269.067467045356, 0.000622846128192232, 0.98875,103.774452209473
0.100664581666667, 269.070248339069, 0.000637086412920983, 0.995,103.774452209473
0.101331285, 269.073290494149, 0.000542102183879639, 1.00125,106.580665588379
0.101997713333333, 269.076750109243, 0.000498263885800417, 1.00875,100.561614990234
0.102664791666667, 269.079881113676, 0.000473471631088149, 1.015,103.463790893555
0.103331228333333, 269.083082788941, 0.000351856239718585, 1.02125,109.797653198242
0.103997668333333, 269.085771006061, 0.000299949846913977, 1.0275,109.797653198242
0.10466426, 269.089808581602, 0.000142538753539485, 1.03375,105.676307678223
0.105330798333333, 269.092845381522, 9.04673690292649E-05, 1.04,124.410690307617
0.105997231666667, 269.09626143163, 0.000398055419191108, 1.04875,101.388648986816
0.10666405, 269.099795018042, 0.000559612304423861, 1.05375,100.118789672852
0.10733068, 269.103591749031, 0.00059408507287132, 1.06,100.118789672852
0.107997335, 269.107355235351, 0.000617284407569772, 1.0675,103.710914611816
0.108664861666667, 269.110800379256, 0.000525493518114315, 1.07375,104.940826416016
0.10933076, 269.114858041267, 0.000268778412630694, 1.08,108.729118347168
0.109997276666667, 269.117792172696, 9.97504027125768E-05, 1.08625,106.263168334961
0.110664813333333, 269.121728923192, 0.000570164274343615, 1.09375,106.263168334961
0.111331283333333, 269.125155248319, 0.000694788514597467, 1.1,106.547416687012
0.111997811666667, 269.129278203758, 0.000708077847127028, 1.10625,99.5974273681641
0.11266483, 269.133055326686, 0.000829411252687526, 1.11375,104.377838134766
0.11333073, 269.137232243929, 0.000821175166365213, 1.12,99.9640808105469
0.113997188333333, 269.141667154595, -4.22549644380381E-05, 1.12625,99.9640808105469
0.114664485, 269.145629229929, -0.000160563021945812, 1.1325,100.227920532227
0.115330766666667, 269.150205560669, -0.000311809425002718, 1.14,102.498863220215
0.11599767, 269.154130501657, -0.000387105642926245, 1.14625,100.479759216309
0.116664656666667, 269.158095031231, -0.000179673561998343, 1.1525,110.158882141113
0.117331041666667, 269.161313371406, 0.000306753505239893, 1.15875,110.158882141113
0.11799773, 269.165524850136, 0.000533207630680533, 1.16625,107.519432067871
0.118664461666667, 269.168833717608, 0.000646589935597844, 1.1725,104.305511474609
0.119330776666667, 269.172810792273, 0.000756628908382671, 1.17875,100.487007141113
0.119997483333333, 269.177052620716, 0.000848883274521242, 1.185,104.742523193359
0.120664541666667, 269.181000920306, 0.00104018516563222, 1.19125,104.742523193359
0.12133075, 269.184804632103, 0.00111886221379831, 1.1975,103.075103759766
0.121997296666667, 269.1888704527, 0.00105736080292825, 1.205,126.196914672852
0.122664415, 269.193466777384, 0.00108575587671602, 1.2125,108.155319213867
0.123330688333333, 269.197194246467, 0.000807578349290475, 1.21875,103.158348083496
0.123997478333333, 269.201862328978, 0.000756601909785921, 1.225,103.158348083496
0.124664688333333, 269.20622751327, 0.000612885128487361, 1.23125,107.548454284668
0.125330978333333, 269.210692799525, 0.000582078175919086, 1.2375,103.188446044922
0.125997566666667, 269.214401517743, 0.000555436514077535, 1.245,106.322174072266
0.12666459, 269.218691598718, 0.000665199500793417, 1.25125,106.187370300293
0.127330765, 269.222759228808, 0.000792673597923557, 1.25875,106.187370300293
0.127997205, 269.22655602998, 0.000835979422712097, 1.265,99.4449768066406
0.128664565, 269.231295615013, 0.000919379733567942, 1.27125,105.640602111816
0.12933072, 269.235300908233, 0.000951121139251987, 1.2775,103.966423034668
0.129997221666667, 269.240458236668, 0.00101875424210277, 1.285,107.247100830078
0.130664738333333, 269.244172336898, 0.00110199106121991, 1.29125,107.247100830078
0.131331213333333, 269.248853933563, 0.00141733672173441, 1.2975,104.997528076172
0.131997555, 269.252521859608, 0.00137056907080679, 1.305,105.84016418457
0.132664055, 269.257196969505, 0.00138459336640021, 1.31125,103.222694396973
0.133330928333333, 269.261547672749, 0.00103551590017848, 1.31625,101.318305969238
0.133997708333333, 269.26689494563, 0.000782864090604668, 1.325,101.318305969238
0.134664568333333, 269.271810145358, 0.000560002284726199, 1.33125,105.774185180664
0.135331061666667, 269.276586380903, 0.000745973443594075, 1.3375,105.760299682617
0.135997195, 269.281447098284, 0.000962412572093835, 1.34375,109.848945617676
0.136664573333333, 269.285582909843, 0.00137101154861202, 1.35125,107.393928527832
0.137330646666667, 269.290266629752, 0.00144210497765623, 1.3575,107.393928527832
0.137997203333333, 269.295022530973, 0.00125444340370958, 1.36375,127.615074157715
0.138664428333333, 269.300161611746, 0.00121371294956777, 1.37,99.6777954101563
0.139331308333333, 269.305280885328, 0.000712481625897633, 1.3775,101.68677520752
0.139997521666667, 269.310165629632, 0.000763998038251123, 1.38375,101.695320129395
0.140664631666667, 269.314912842824, 0.000926631869311685, 1.39,101.695320129395
0.141331173333333, 269.319337058845, 0.000984677453761532, 1.39625,103.33226776123
0.141997441666667, 269.323959911264, 0.00101036966326453, 1.40375,102.010597229004
0.142664083333333, 269.327774512219, 0.0011579022528826, 1.41,105.971473693848
0.14333123, 269.332869305933, 0.00148310091852369, 1.41625,103.682983398438
0.143997326666667, 269.33743946989, 0.00127146754864088, 1.42375,103.682983398438
0.144664093333333, 269.34266147537, 0.00142650276135678, 1.43,100.673683166504
0.145330608333333, 269.347102621647, 0.00127667978679236, 1.43625,106.013298034668
0.145997385, 269.352343373966, 0.00131499386231669, 1.44375,103.96321105957
0.146664538333333, 269.357136389408, 0.000785640451185197, 1.45,106.594635009766
0.147331568333333, 269.361689505033, 0.000609150316149388, 1.45625,106.594635009766
0.147999215, 269.366149901582, 0.000479091848868607, 1.4625,104.146217346191
0.148664276666667, 269.370824839807, 0.000107394018853095, 1.47,106.80339050293
0.149331156666667, 269.375631224369, 0.000246651524093114, 1.4775,106.153839111328
0.149997666666667, 269.379826970629, 0.00019947439371838, 1.48375,102.443946838379
0.150664005, 269.385273511782, 0.000190507844084155, 1.49,102.443946838379
0.151330796666667, 269.389877015312, 5.63935805155799E-05, 1.49625,104.22151184082
0.151997465, 269.394538370024, 0.000436739976106809, 1.5025,110.72859954834
0.152663931666667, 269.399059124176, 0.000253257192227766, 1.50875,102.847259521484
0.153331255, 269.404231324178, -1.88666392647766E-05, 1.51625,103.962982177734
0.153997908333333, 269.409029584869, 0.000203618685545966, 1.52375,103.962982177734
0.154664696666667, 269.413543635668, 0.000414443596026644, 1.53,124.217628479004
0.155330813333333, 269.418671549182, 0.000560059281896031, 1.535,104.674499511719
0.155997683333333, 269.422875673506, 0.000590923231612884, 1.5425,108.820533752441
0.156666235, 269.427738950676, 0.00109626734869814, 1.54875,104.73184967041
0.157331883333333, 269.43158001883, 0.000934291984535623, 1.55625,104.73184967041
0.157998708333333, 269.436993760894, 0.000967651808905832, 1.56375,104.764801025391
0.158664916666667, 269.441362848366, 0.000878332795334535, 1.56875,100.895820617676
0.159331498333333, 269.446592821454, 0.000930723663806412, 1.575,102.679954528809
