Time (min), Depth (µm), Load (N), Position (µm), Acoustic (aJ)
9.46166666666667E-06, 268.56587848815, 0.000552087790646582, 0,100.682952880859
0.000664746666666667, 268.56603331243, 0.000487108054532753, 0.00124999999999995,100.682952880859
0.00133088666666667, 268.565871370592, 0.0001857746901952, 0.00625000000000018,106.011337280273
0.00199757, 268.566920700084, 0.00023097641974827, 0.0149999999999998,103.369209289551
0.00266444833333333, 268.567682734171, 4.3183045675325E-06, 0.0237499999999999,102.988868713379
0.00333089333333333, 268.569855171958, 5.03554922045037E-05, 0.0300000000000001,105.225456237793
0.00399756166666667, 268.572346074636, 2.6175206733781E-05, 0.0375000000000002,105.225456237793
0.00466424666666667, 268.575334029318, 0.000169233521091786, 0.0462499999999998,106.459983825684
0.00533119666666667, 268.578692954229, 0.000303820260932404, 0.0525,111.910972595215
0.00599771833333333, 268.58242742397, 0.000416440604104082, 0.0587500000000002,107.951751708984
0.006664285, 268.58633446307, 0.000277727571507462, 0.0649999999999999,104.152481079102
0.00733089333333333, 268.588937706443, 0.000322033846021754, 0.0700000000000002,104.152481079102
0.00799754333333333, 268.592686736615, 0.000359314473440957, 0.0774999999999999,106.78734588623
0.00866438833333333, 268.595982088463, 0.000249491489748945, 0.085,109.71964263916
0.00933127666666667, 268.600029827051, -4.68006277978401E-05, 0.0912500000000002,103.210021972656
0.00999819666666667, 268.603088153286, -9.89785069831996E-05, 0.0987499999999999,122.674766540527
0.0106642633333333, 268.607791053103, -0.000259561941065697, 0.105,122.674766540527
0.0113309116666667, 268.611534973303, -0.000313475233019421, 0.11,101.888519287109
0.0119982433333333, 268.614900263451, -0.000546425532177038, 0.1175,101.96411895752
0.01266449, 268.618674484174, -0.000428261467433231, 0.125,106.166061401367
0.0133308966666667, 268.622270499562, -0.000608442917105588, 0.13125,102.471855163574
0.01399761, 268.626112601342, -0.000356185587713597, 0.1375,102.471855163574
0.0146645016666667, 268.629526142689, -0.000482624736856711, 0.14375,102.46395111084
0.0153308766666667, 268.633751770404, -0.000361612315161019, 0.15,105.096626281738
0.0159976566666667, 268.636606113079, -0.000211015379476994, 0.1575,103.145446777344
0.0166643383333333, 268.640719314903, -0.000110190443789167, 0.16375,103.145446777344
0.0173309233333333, 268.644307612519, -0.00021861399775789, 0.17,100.41748046875
0.0179975733333333, 268.64844190675, -3.82030595880711E-05, 0.17625,101.68009185791
0.0186646783333333, 268.652521625763, 1.52722544186474E-05, 0.18375,100.733963012695
0.0193308816666667, 268.65664671256, -8.43827400433517E-05, 0.19125,103.69743347168
0.0199978883333333, 268.661418237523, -8.29428123824291E-05, 0.1975,103.69743347168
0.02066429, 268.66479670146, -3.64526475331659E-05, 0.2025,102.948837280273
0.0213308883333333, 268.669312000139, -1.57189956300359E-06, 0.21,99.8179321289063
0.0219978383333333, 268.672687168561, -5.63669541847166E-06, 0.21625,97.7138214111328
0.0226646166666667, 268.677179811709, 0.000127285128079481, 0.22375,107.963432312012
0.0233312533333333, 268.680292595667, 0.000357603059420536, 0.22875,107.963432312012
0.0239977083333333, 268.684558247925, 0.000492873764916565, 0.235,103.58283996582
0.0246644366666667, 268.687701772245, 0.000711121802544211, 0.2425,104.671981811523
0.0253314466666667, 268.691620413171, 0.00114849233387538, 0.25,106.089019775391
0.0259977083333333, 268.695235144996, 0.000895605036149006, 0.255,105.679260253906
0.0266644483333333, 268.698631357563, 0.000787644958905906, 0.2625,123.513603210449
0.0273312283333333, 268.702200012818, 0.000678979917044496, 0.26875,123.513603210449
0.0279977116666667, 268.705993745306, 0.000263103306067715, 0.275,105.467849731445
0.0286644383333333, 268.710223632786, 9.17489130388246E-05, 0.2825,102.818687438965
0.0293310833333333, 268.714161251912, 0.000177981081678119, 0.29,107.60767364502
0.0299976866666667, 268.718682517519, 0.000121447421260551, 0.295,109.052177429199
0.0306645066666667, 268.723042041435, -0.000160526415446006, 0.30125,109.052177429199
0.0313313083333333, 268.727155978056, -2.25288468747563E-05, 0.30875,102.723281860352
0.031997675, 268.730273253548, -0.000244420201536793, 0.315,109.588302612305
0.03266464, 268.733373903231, 1.14324472874303E-05, 0.32125,104.444869995117
0.0333310083333333, 268.736705420799, 2.4331799387128E-05, 0.32875,108.185729980469
0.0339978566666667, 268.739369648015, 0.0002027508375881, 0.335,108.185729980469
0.03466439, 268.742832448288, 0.000540746860384443, 0.34125,98.5877380371094
0.0353310266666667, 268.746184833659, 0.0003709568887632, 0.3475,103.81859588623
0.0359976816666667, 268.750197651259, 0.000426638591907176, 0.355,101.706115722656
0.03666436, 268.753582368094, 6.97705169959123E-05, 0.36125,104.951080322266
0.037331235, 268.757810323738, 3.45057882934995E-05, 0.3675,104.951080322266
0.0379977233333333, 268.761597962784, -0.000242066819744253, 0.37375,108.241157531738
0.03866487, 268.765463793107, -0.000321652822204991, 0.38,82.2586822509766
0.03933101, 268.766716299212, -0.000219245465995423, 0.3875,107.675132751465
0.039997685, 268.767592886675, 0.000146620656920025, 0.39375,105.337715148926
0.0406646133333333, 268.768967511355, 0.000317064595708614, 0.4025,105.337715148926
0.0414981116666667, 268.769444286973, 0.000415950128802963, 0.40875,100.959259033203
0.0421650966666667, 268.771438257289, 0.000537325532246751, 0.415,100.627151489258
0.0428312266666667, 268.774538550823, 0.000275531681883536, 0.4225,101.302551269531
0.0434976866666667, 268.778966413182, 0.000370926890296389, 0.42875,120.423622131348
0.044164555, 268.781431636038, 0.000324082743224195, 0.43625,109.990509033203
0.044831085, 268.785487859322, 0.000266256147800986, 0.44125,109.990509033203
0.04549796, 268.787884754639, 0.000355960642028936, 0.45,102.35391998291
0.04616461, 268.790972287993, 0.000577108034038178, 0.455,106.168190002441
0.0468311516666667, 268.792611924109, 0.000977991398086994, 0.46125,107.199401855469
0.0474976933333333, 268.794690158821, 0.00113109470785269, 0.46875,110.108856201172
0.0481645483333333, 268.797072172169, 0.00133684687313013, 0.475,110.108856201172
0.04883103, 268.799458589893, 0.00148375549406892, 0.48125,100.945442199707
0.0494978183333333, 268.801382205685, 0.00113323960013192, 0.48875,103.16187286377
0.0501644183333333, 268.803855160122, 0.000713023707155132, 0.495,107.591865539551
0.0508312833333333, 268.807061201328, 0.000559585914162493, 0.50125,102.74390411377
0.0514978916666667, 268.808699535846, 0.000525407130919325, 0.50875,102.74390411377
0.0521651833333333, 268.810099318956, 0.000472317297569261, 0.515,102.192337036133
0.0528312866666667, 268.812011781893, 0.000588612456145289, 0.52125,81.9649429321289
0.0534977083333333, 268.813602325612, 0.000898537388952489, 0.5275,106.152694702148
0.0541646233333333, 268.815584185878, 0.0010703102609749, 0.535,104.597305297852
0.0548312416666667, 268.817160024839, 0.00110995776954878, 0.54125,104.597305297852
0.05566444, 268.818963545479, 0.00120136017852003, 0.55,102.156860351563
0.0563312733333333, 268.820274116986, 0.000987778406518579, 0.55625,107.432792663574
0.0569979533333333, 268.821732101993, 0.000991123238511705, 0.5625,108.051231384277
0.05766447, 268.82285024785, 0.000999573814023684, 0.56875,108.855102539063
0.0583312516666667, 268.824765402445, 0.000672752229901973, 0.575,104.029121398926
0.0589977866666667, 268.826726464692, 0.00101647496509015, 0.5825,104.029121398926
0.05966602, 268.82839564266, 0.000866172014652926, 0.59,108.384132385254
0.0603310566666667, 268.830721371906, 0.000684628633388616, 0.595,125.538116455078
0.0609976766666667, 268.832177127519, 0.000214244760309404, 0.60125,102.948234558105
0.06166471, 268.834603018128, 0.000520085398243895, 0.60875,101.101104736328
0.0623317216666667, 268.836241641054, 0.000228648536798111, 0.61625,101.101104736328
0.0629977716666667, 268.838447521819, 0.00021227685913101, 0.6225,106.491386413574
0.063664905, 268.840193463425, 0.000108935049869435, 0.62875,103.362648010254
0.064331025, 268.842092693408, 0.000440199410796235, 0.635,103.894866943359
0.0649979566666667, 268.843972385184, 0.000264189251611977, 0.64125,105.51424407959
0.0656648033333333, 268.845665231369, 0.000691060310356252, 0.64875,105.51424407959
0.0663310816666667, 268.847641072727, 0.000948361886387818, 0.65625,105.223365783691
0.0669983683333333, 268.848906363305, 0.00105586748649422, 0.6625,106.17414855957
0.0676644333333333, 268.851206895501, 0.0011365574335283, 0.66875,105.772148132324
0.0683310233333333, 268.85281118658, 0.000996468969977588, 0.675,103.410057067871
0.06899795, 268.854686192097, 0.00061779499035104, 0.68125,103.410057067871
0.0696651, 268.856534334389, 0.000330418424987515, 0.69,105.684494018555
0.0703321433333333, 268.857860228345, 0.000616311564882423, 0.695,104.545738220215
0.0709982133333333, 268.859198511656, 0.000553509719384699, 0.70125,104.743690490723
0.0716644116666667, 268.860459110312, 0.000603679199475284, 0.70875,106.845184326172
0.07233256, 268.862770510139, 0.000994733557209223, 0.715,106.845184326172
0.0729979316666667, 268.863170257208, 0.00084857939839405, 0.72125,103.454627990723
0.07366462, 268.865403968953, 0.000614718644996131, 0.7275,102.351417541504
0.07433102, 268.866482172883, 0.000332777806583938, 0.73375,101.352523803711
0.074997685, 268.868706674637, 0.000588360468909304, 0.74125,108.042877197266
0.07566443, 268.869578502008, 0.000109667013190766, 0.74875,108.042877197266
0.0763310933333333, 268.871920621987, 0.000452021817068123, 0.755,129.451644897461
0.0769976966666667, 268.873095000836, 0.000598235972901935, 0.76,98.5105590820313
0.0776643466666667, 268.875028358097, 0.000843554650771718, 0.7675,107.127853393555
0.0783318416666667, 268.87697199607, 0.000534750161706292, 0.775,105.714309692383
0.0789977233333333, 268.877806556346, 0.000736499028028799, 0.78125,105.714309692383
0.0796644616666667, 268.879653275562, 0.000468948466828191, 0.7875,104.458503723145
0.0803310466666667, 268.881083239167, 0.000418651493205837, 0.79375,99.2198944091797
0.080997695, 268.883005026173, 0.000337105089209976, 0.8,104.205390930176
0.08166481, 268.883706671078, 0.000132753853558972, 0.8075,101.804130554199
0.08233101, 268.886335962242, 0.000167345116119306, 0.81375,101.804130554199
0.0829979016666667, 268.887557641103, 0.000283724270525679, 0.82,101.115425109863
0.08366434, 268.889248873825, 0.000335749157358144, 0.8275,99.9784240722656
0.0843314116666667, 268.890962525651, 0.000425009673898968, 0.83375,104.236251831055
0.084998405, 268.89260578669, 0.000651130816079577, 0.84,108.158050537109
0.0856643616666667, 268.894288334157, 0.000556929547725512, 0.8475,108.158050537109
0.0863316816666667, 268.895621949839, 0.000499254444645778, 0.85375,106.043785095215
0.0869977683333333, 268.897852580302, 0.000319492973870095, 0.86,103.717758178711
0.087664375, 268.898406653274, 0.000388510507178879, 0.8675,107.677688598633
0.0883310483333333, 268.901627889811, 0.00056948541696683, 0.87375,106.74112701416
0.0889977083333333, 268.902911326417, 0.000429288958859085, 0.88,106.74112701416
0.0896648916666667, 268.906064797588, 0.000471622832485536, 0.88625,107.397903442383
0.090331575, 268.908017454253, 0.000736856010121791, 0.8925,107.128425598145
0.0909981833333333, 268.910912003596, 0.000788793901360121, 0.9,105.742561340332
0.0916646466666667, 268.912125396647, 0.00061346920777693, 0.90625,104.802780151367
0.0923314483333333, 268.914262311749, 0.000531144342867, 0.91375,104.802780151367
0.0929978433333333, 268.915420725048, 0.000593211225322112, 0.91875,126.62622833252
0.0936646066666667, 268.91684990737, 0.000190080974092134, 0.92625,101.761535644531
0.094331025, 268.919159601563, 0.000281426385893552, 0.9325,104.505470275879
0.0949978516666667, 268.920781040883, 0.000299114997441762, 0.94,102.55891418457
0.095665035, 268.922730632027, 0.000613997181251893, 0.945,102.55891418457
0.096331775, 268.923970178562, 0.000663218708885825, 0.9525,98.9893112182617
0.0969977033333333, 268.925880777435, 0.000761654264595434, 0.96,102.206161499023
0.0976643883333333, 268.92735893528, 0.000577211528970782, 0.96625,105.644721984863
0.0983314683333333, 268.9287335739, 0.000775528567684774, 0.9725,103.675247192383
0.098997675, 268.930724657291, 0.000676266553522699, 0.9775,103.675247192383
0.0996645483333333, 268.932414139526, 0.00051206380128128, 0.985,112.171241760254
0.10033109, 268.934268147842, 0.000470194904304856, 0.9925,107.267311096191
0.100997721666667, 268.935487684254, 0.000542276783700848, 0.99875,104.810119628906
0.101664755, 268.937528817538, 0.000654930125251906, 1.005,105.340217590332
0.102331288333333, 268.938925288992, 0.000735431081768663, 1.01125,105.340217590332
0.102998141666667, 268.941197938973, 0.00063746050270908, 1.0175,104.194473266602
0.10366498, 268.943221157779, 0.000543274233599048, 1.025,98.8235092163086
0.104331028333333, 268.945441893585, 0.000729036902953616, 1.03125,102.70581817627
0.104998353333333, 268.947788610273, 0.000588334970258211, 1.0375,96.8007431030273
0.105664841666667, 268.949166879785, 0.000839866336111501, 1.04375,96.8007431030273
0.106331243333333, 268.951587723028, 0.00110594247141117, 1.05,103.762557983398
0.106997693333333, 268.952764110564, 0.00128833331009084, 1.0575,107.605888366699
0.107665001666667, 268.955149420471, 0.00098968181103265, 1.06375,108.178199768066
0.108331296666667, 268.956663693477, 0.000791048288184554, 1.07,105.714790344238
0.108997776666667, 268.959780216989, 0.000650092868179981, 1.0775,105.714790344238
0.109664358333333, 268.961386192358, 0.000585018636764985, 1.08375,121.788764953613
0.110331625, 268.964565897867, 0.000428081519565684, 1.09,103.826354980469
0.110999238333333, 268.966518573501, 0.000726739018278981, 1.09625,111.757751464844
0.111665958333333, 268.968868787741, 0.000798340921802168, 1.10375,97.1845703125
0.112331066666667, 268.970899062942, 0.000555546617106896, 1.11,97.1845703125
0.112999101666667, 268.972432109228, 0.000582827246829251, 1.11625,101.494850158691
0.113664493333333, 268.974212354405, 0.000911447240586772, 1.12375,110.519203186035
0.114331035, 268.976122656779, 0.0005215808231715, 1.13,105.636260986328
0.114997758333333, 268.977923123585, 0.000335116189068682, 1.13625,104.275100708008
0.115665886666667, 268.979069833608, 0.000140455966666201, 1.1425,104.275100708008
0.116332558333333, 268.982178461407, -2.84055515793925E-05, 1.15,108.455581665039
0.116997785, 268.984076247569, -0.000429713394298092, 1.15625,101.037124633789
0.117664976666667, 268.985984480641, -0.000424274667476699, 1.1625,104.258125305176
0.118331021666667, 268.988372572362, -0.000398132480567704, 1.16875,105.472381591797
0.118998346666667, 268.990539177621, -9.12553947217839E-05, 1.17625,105.472381591797
0.119664888333333, 268.992874041987, -0.000314075202695707, 1.1825,103.451461791992
0.120333088333333, 268.995090619484, 2.9014564245517E-05, 1.1875,102.376251220703
0.120998215, 268.998123958083, 0.000134924244510552, 1.195,107.221458435059
0.121664345, 269.000273835514, 0.000354754702659939, 1.2025,105.497192382813
0.122332731666667, 269.004478543663, 0.000290088450810153, 1.20875,105.497192382813
0.122999208333333, 269.006496026985, 0.000880367301734596, 1.215,106.083038330078
0.123666271666667, 269.009925511728, 0.00106109772386607, 1.2225,102.257057189941
0.124331758333333, 269.013192792965, 0.0010794313029927, 1.2275,112.152450561523
0.124998191666667, 269.017143686426, 0.00094528104121719, 1.235,103.483627319336
0.125664776666667, 269.020180418816, 0.000974655565725305, 1.2425,103.483627319336
0.126331568333333, 269.024484575991, 0.000662224258815178, 1.24875,122.66813659668
0.126997821666667, 269.028698104649, 0.000473190253763244, 1.255,100.703002929688
0.127665878333333, 269.032148436987, 0.000242077362297175, 1.26125,106.663520812988
0.128331048333333, 269.036391853013, 0.000560217382463789, 1.26875,109.729637145996
0.128997695, 269.040512305379, 0.000505603625643711, 1.275,109.729637145996
0.129664373333333, 269.045386228279, 0.000713097203472146, 1.28,103.969589233398
0.13033116, 269.048966461397, 0.000744895606283515, 1.28875,98.3666839599609
0.130997846666667, 269.053289677178, 0.00114099121082948, 1.295,104.604133605957
0.131666416666667, 269.057451248414, 0.000821336266760522, 1.30125,106.299415588379
0.13233102, 269.061604939487, 0.000735783564003429, 1.3075,106.299415588379
0.132997986666667, 269.065942115485, 0.000587484512887769, 1.315,99.6619186401367
0.133664643333333, 269.069945161096, 0.00027572967203229, 1.32125,102.11474609375
0.134331178333333, 269.075128297473, 0.000179773491807602, 1.3275,98.4446868896484
0.13499818, 269.07930471952, 0.000304292737331972, 1.33375,106.597999572754
0.13566482, 269.083645497166, 0.000449479444758265, 1.34125,106.597999572754
0.136331016666667, 269.08730312694, 0.000427036072086581, 1.3475,107.476593017578
0.13699796, 269.092491326153, 0.000163409313783772, 1.35375,106.752815246582
0.13766508, 269.096490248487, -4.03704505845736E-05, 1.36125,105.69091796875
0.138331038333333, 269.101144806738, -0.000230866882120971, 1.3675,100.572860717773
0.138998066666667, 269.105915079054, -0.000127688564683113, 1.37375,100.572860717773
0.139664375, 269.11005613437, 0.000115312729622317, 1.38,101.724990844727
0.140331023333333, 269.114787972877, 0.000518685968605622, 1.3875,101.284355163574
0.14099849, 269.118704868819, 0.000352846798521437, 1.39375,102.452781677246
0.14166436, 269.123232613309, 0.000397688546153963, 1.4,108.733375549316
0.142331025, 269.127728376281, 0.000389602452335737, 1.4075,108.733375549316
0.14299773, 269.132261635222, 0.000354345223255341, 1.41375,127.099212646484
0.143664915, 269.136715068392, 0.000445443147466459, 1.42,102.478134155273
0.144331586666667, 269.142193292225, 0.000751679765528426, 1.4275,106.981033325195
0.144997843333333, 269.146715027695, 0.000449812427997043, 1.43375,104.368194580078
0.145664365, 269.150784509673, 0.00042882698207912, 1.44,104.368194580078
0.146331026666667, 269.156208301957, 0.000459515440619537, 1.44625,105.818000793457
0.146997741666667, 269.158053038196, 0.000137406619823026, 1.45375,100.523979187012
0.147664501666667, 269.166098698808, 0.000274784719466951, 1.46,112.292037963867
0.148331043333333, 269.169301289765, 0.000517642021008414, 1.46625,121.330642700195
0.148997798333333, 269.174032429684, 0.000249546987121899, 1.47375,121.330642700195
0.149664375, 269.178250498792, 0.000120514468302979, 1.48125,150.794372558594
0.15033135, 269.186949412916, 0.000329758458207573, 1.4875,159.863204956055
0.15099788, 269.188038742775, 5.60042085698776E-05, 1.4925,129.795806884766
0.151666436666667, 269.193345781136, 0.000253008813218478, 1.5,118.949699401855
0.15233263, 269.197853758733, 0.000626724041896437, 1.50625,118.949699401855
0.152999236666667, 269.201730898367, 0.000555617113532595, 1.5125,109.505966186523
0.153665933333333, 269.205517446183, 0.000831261268194699, 1.52,103.73583984375
0.154331205, 269.209801945015, 0.00100904583833059, 1.5275,104.131942749023
0.154998278333333, 269.215309806297, 0.00079861240818292, 1.5325,100.466125488281
0.155665041666667, 269.220269146355, 0.000893707631672614, 1.53875,100.466125488281
0.156332576666667, 269.225660819854, 0.00142298154676823, 1.54625,102.53784942627
0.156997755, 269.230246955939, 0.00119890180208303, 1.55375,106.006195068359
0.157664326666667, 269.234696631331, 0.00137703135478916, 1.55875,104.897102355957
0.158331121666667, 269.238926940395, 0.00172500937621076, 1.565,128.433135986328
0.158999156666667, 269.243666010759, 0.00160161057440691, 1.5725,128.433135986328
0.159664355, 269.248931957488, 0.00123046921645128, 1.58,104.132659912109
