Time (min), Depth (µm), Load (N), Position (µm), Acoustic (aJ)
7.49333333333333E-06, 228.453823673882, -0.000539654416988537, 0,119.501159667969
0.000666141666666667, 228.453322756942, -0.000535373631997745, 0.00125,126.144607543945
0.00133274833333333, 228.45246077755, -0.000622925734324447, 0.00625,125.515281677246
0.0019995, 228.450500665953, -0.000866207514493286, 0.0125,125.515281677246
0.00266631666666667, 228.448200133886, -0.000424886181582549, 0.02,123.736457824707
0.00333264333333333, 228.446232463417, -0.000595271623276902, 0.02875,119.121971130371
0.00399940833333333, 228.44450851704, -0.000881140764381359, 0.03625,121.737609863281
0.004666385, 228.443259405432, -0.00122065021115564, 0.0425,140.793197631836
0.00533274, 228.44301210047, -0.00148439696345322, 0.04875,140.793197631836
0.00599947833333333, 228.443271356978, -0.0016265598227937, 0.05625,116.273452758789
0.006666075, 228.443622928991, -0.00141707734486648, 0.0625,117.079490661621
0.00733264666666667, 228.44364733542, -0.00126870929724952, 0.07,119.25602722168
0.007999815, 228.443906757517, -0.00118213664568567, 0.07625,122.825897216797
0.00866615, 228.44482911773, -0.000671464796184864, 0.0825,122.825897216797
0.00933277, 228.446065098828, -0.00103518452691793, 0.08875,120.053848266602
0.00999956833333333, 228.447448033732, -0.000968059898524869, 0.09625,117.73558807373
0.010666135, 228.449702112818, -0.00103098173801736, 0.10375,115.251533508301
0.0113330033333333, 228.452799514643, -0.000847917433153099, 0.11,116.875343322754
0.0119996083333333, 228.458219053664, -0.00106918781898466, 0.11625,116.875343322754
0.0126662933333333, 228.463552530525, -0.000998643362378313, 0.125,137.153717041016
0.0133343216666667, 228.46894548694, -0.00115595096096898, 0.13,154.666946411133
0.013999465, 228.475100463494, -0.00127489948632447, 0.13625,156.077331542969
0.0146661066666667, 228.480707034792, -0.00155043564640828, 0.1425,151.733139038086
0.015332725, 228.485517938747, -0.00168072810198099, 0.15125,151.733139038086
0.0159994083333333, 228.490155278058, -0.00151355249904096, 0.1575,159.338241577148
0.0166660933333333, 228.495738785972, -0.00119855182122423, 0.16125,155.342849731445
0.01733264, 228.500812337628, -0.00111914880954069, 0.17125,158.032135009766
0.0179996933333333, 228.506450360413, -0.00103719442604338, 0.17625,152.199569702148
0.018666055, 228.51158175712, -0.00106398758024966, 0.18125,152.199569702148
0.0193327216666667, 228.516881079119, -0.00120706989333435, 0.19,156.331573486328
0.020167945, 228.521844591569, -0.00176117056142477, 0.19625,152.111480712891
0.0208326233333333, 228.526915161138, -0.00145415548251249, 0.2025,153.656448364258
0.021499435, 228.532450170137, -0.00155413896044006, 0.21125,185.136901855469
0.02216607, 228.537523068369, -0.00145638137066699, 0.2175,154.8662109375
0.0228327233333333, 228.543502153036, -0.00134342054457076, 0.22375,154.8662109375
0.0234995283333333, 228.549221362093, -0.0014031205459137, 0.23,154.632446289063
0.024166135, 228.554618678459, -0.00146749881227806, 0.23875,151.896286010742
0.024832785, 228.560068463392, -0.00125677289682926, 0.24375,153.193939208984
0.02549955, 228.565473390086, -0.00112443304412729, 0.25,151.509475708008
0.0261661433333333, 228.570228597134, -0.00111447204444367, 0.25625,151.509475708008
0.0268327833333333, 228.575514523952, -0.00117610844851003, 0.26375,154.759704589844
0.02749943, 228.581074922358, -0.00123106118830901, 0.27,148.963302612305
0.0281661316666667, 228.586329353787, -0.00127625241837, 0.27625,152.147277832031
0.0288327, 228.591707646432, -0.00133461298698704, 0.285,151.826477050781
0.0294994083333333, 228.597556938528, -0.00131146014996635, 0.29,151.826477050781
0.0301665083333333, 228.603467610714, -0.00105528201750411, 0.295,157.117324829102
0.030832725, 228.609061595281, -0.00108312061918949, 0.3025,151.518493652344
0.0314994233333333, 228.615210195863, -0.0009080044150771, 0.31,148.802642822266
0.0321663483333333, 228.621125132768, -0.00115332159304373, 0.31625,148.765930175781
0.0328326883333333, 228.626436385228, -0.00109866883818917, 0.32375,148.765930175781
0.0334996283333333, 228.631559030505, -0.00105102823111007, 0.33125,156.203063964844
0.034166335, 228.636904020928, -0.000994296580692524, 0.3375,146.087356567383
0.03483278, 228.642051250925, -0.00108819636422028, 0.3425,151.612915039063
0.0354995383333333, 228.647528268305, -0.000996016994301872, 0.34875,150.788757324219
0.0361661066666667, 228.652412626249, -0.00127154715470933, 0.3575,150.788757324219
0.0368346816666667, 228.657960188563, -0.00122476600450458, 0.3625,151.701202392578
0.0374994666666667, 228.663646085958, -0.00152338600512905, 0.37,148.311752319336
0.03816614, 228.669111462111, -0.00174525786073133, 0.37625,152.150375366211
0.038832825, 228.673868687216, -0.00153662883993835, 0.3825,149.883804321289
0.0394995116666667, 228.679706230409, -0.00142865076358115, 0.39,149.883804321289
0.0401661966666667, 228.685181858119, -0.00177189952255163, 0.39875,145.444641113281
0.04083283, 228.690702969654, -0.00154248454580761, 0.40375,147.014373779297
0.04149957, 228.695655936245, -0.00121351206975156, 0.41,151.049041748047
0.0421662466666667, 228.701168312288, -0.00113616245491614, 0.415,146.398071289063
0.0428327033333333, 228.706574376204, -0.000778352427309601, 0.42125,146.398071289063
0.04349957, 228.712076678184, -0.000250050463376075, 0.42875,150.661056518555
0.0441676666666667, 228.716799486427, -2.32948530878713E-05, 0.43625,150.739669799805
0.04483269, 228.72245242157, -5.02499991722111E-05, 0.44125,143.717864990234
0.0454995433333333, 228.727730773992, -0.000193411808335295, 0.45,148.5693359375
0.04616623, 228.733402423239, -0.000341541367929625, 0.45625,148.5693359375
0.0468329483333333, 228.738608528124, -0.000765220586969907, 0.46125,147.157516479492
0.047499905, 228.743875314948, -0.00114023475035112, 0.47,151.255569458008
0.048166495, 228.749587919412, -0.00145843026774191, 0.47625,147.201171875
0.0488327483333333, 228.754948591452, -0.00127544095909781, 0.48125,148.225357055664
0.049499485, 228.759333813443, -0.00112265863323943, 0.48875,148.225357055664
0.0501661783333333, 228.764401801346, -0.000988307381572627, 0.49875,151.542587280273
0.0508328983333333, 228.769978746568, -0.000797078986778661, 0.5025,148.548202514648
0.0514994583333333, 228.774685379878, -0.000628025478124433, 0.5075,147.022018432617
0.0521660833333333, 228.780251024922, -0.000621383811719086, 0.515,142.842132568359
0.0528327316666667, 228.786435776304, -0.000910617283812657, 0.5225,142.842132568359
0.0534994033333333, 228.791574329597, -0.000535222139526746, 0.52875,148.084381103516
0.0541662616666667, 228.796930121818, -0.000321593869847535, 0.535,146.094955444336
0.0548326883333333, 228.802062517172, -0.000230309954989159, 0.5425,172.738647460938
0.05550013, 228.807652056961, -0.000275952662380549, 0.55,147.191711425781
0.05616616, 228.813017670771, -0.000196798638211712, 0.555,147.191711425781
0.0568327166666667, 228.819169352309, -0.000585144132027032, 0.56125,145.636520385742
0.05749958, 228.824898363405, -0.000718346441409648, 0.5675,143.881271362305
0.0581664566666667, 228.830333845731, -0.000399345464508039, 0.575,145.483139038086
0.0588327533333333, 228.836045468899, -0.000529202941918784, 0.58,150.235504150391
0.0594995233333333, 228.842042484575, -0.000515346637901029, 0.58875,150.235504150391
0.0601661566666667, 228.847664930339, -0.000553521220434606, 0.595,151.967178344727
0.0608328516666667, 228.853711524367, -0.000713623178677387, 0.6,145.864212036133
0.0614995333333333, 228.859378267896, -0.000960764265037194, 0.60625,147.308532714844
0.062166135, 228.864915326777, -0.00128996172977499, 0.6175,145.383102416992
0.0628327466666667, 228.869950865201, -0.00136421100031626, 0.62125,145.383102416992
0.0634995333333333, 228.874617381879, -0.00128004122807151, 0.62625,145.708374023438
0.064166055, 228.879871322891, -0.00104734741605061, 0.63375,145.969512939453
0.0648327666666667, 228.885177959365, -0.00106449755458927, 0.6425,146.43522644043
0.06549985, 228.890243478552, -0.000741614772651903, 0.64875,147.883758544922
0.0661661716666667, 228.895462632826, -0.000729064903044435, 0.65375,147.883758544922
0.066832655, 228.9015453212, -0.000861019275110999, 0.66,143.448745727539
0.067499615, 228.906226895656, -0.000828296918718444, 0.66625,143.930892944336
0.06816616, 228.91249607381, -0.00106767889480119, 0.67375,147.322448730469
0.0688327416666667, 228.917891929597, -0.00119667991520764, 0.68,146.270782470703
0.0694995116666667, 228.923514613294, -0.000991187236851964, 0.68625,146.270782470703
0.0701661283333333, 228.92904611099, -0.00103663195420087, 0.69375,143.097991943359
0.0708327366666667, 228.935134873645, -0.00130405952160041, 0.7,146.286987304688
0.0714999216666667, 228.940542458833, -0.000859586846987076, 0.705,177.844741821289
0.072166095, 228.946303551628, -0.000735987055270682, 0.7125,146.806579589844
0.0728327283333333, 228.951453744297, -0.00064677603625642, 0.72125,146.806579589844
0.0734994233333333, 228.956449710672, -0.00034033242860555, 0.725,148.101806640625
0.07416616, 228.961612665068, -7.1422935619287E-05, 0.73125,148.2373046875
0.07483286, 228.966001957999, -0.000193954780990529, 0.74,147.374069213867
0.0754994466666667, 228.971513257571, -0.000268438039781219, 0.745,145.699157714844
0.0761661633333333, 228.976999167694, -0.000248966017841232, 0.75125,145.699157714844
0.0768326683333333, 228.982820226423, -0.000358766502645941, 0.76,143.970474243164
0.0774994133333333, 228.98826726341, -0.000697208003096322, 0.76625,144.929718017578
0.0781665766666667, 228.994177383696, -0.000728560928232399, 0.77125,142.120758056641
0.078832745, 228.999136207288, -0.00057683004948697, 0.7775,144.100112915039
0.0794994283333333, 229.004443517591, -0.000680512341609339, 0.785,144.100112915039
0.0801664816666667, 229.009594568433, -0.000586371070252659, 0.79125,145.050140380859
0.0808327433333333, 229.014894286174, -0.000237991069048472, 0.8,143.278289794922
0.0814995683333333, 229.020274062366, -0.000246734129925357, 0.805,141.171600341797
0.0821660883333333, 229.025714545772, -0.00025777657529501, 0.81125,148.119247436523
0.0828326833333333, 229.031298270502, -0.000142019889664767, 0.8175,148.119247436523
0.0834995916666667, 229.036916829901, -2.58447250197456E-05, 0.825,147.804733276367
0.08416656, 229.043505272723, -0.000140492966345948, 0.83125,146.344360351563
0.0848329583333333, 229.049147936975, 1.75838853432619E-06, 0.8375,146.546722412109
0.0854993933333333, 229.05448157508, -0.000293057803144604, 0.84375,147.759582519531
0.0861660633333333, 229.060175796026, -0.000513843713287645, 0.85125,147.759582519531
0.08683281, 229.065501218027, -0.000867392454920638, 0.85875,148.847137451172
0.0874995133333333, 229.070215397208, -0.000933260146451229, 0.865,178.489028930664
0.0881660483333333, 229.075715736455, -0.000973452127647253, 0.87125,152.675857543945
0.0888328433333333, 229.0814470336, -0.000759783360009155, 0.87625,146.727066040039
0.0894994033333333, 229.08752050802, -0.000819508860045699, 0.88375,146.727066040039
0.090166075, 229.093517661345, -0.00089125925608481, 0.89125,149.700057983398
0.0908326583333333, 229.099367897412, -0.0010710222267849, 0.8975,146.978317260742
0.0914993666666667, 229.105570825933, -0.00143280405482763, 0.90375,144.212875366211
0.0921662, 229.112063303561, -0.00159113160224631, 0.90875,146.515472412109
0.0928327616666667, 229.1172814856, -0.00155232105165948, 0.91625,146.515472412109
0.093499415, 229.123808922205, -0.00143560291425296, 0.92375,149.02311706543
0.0941661183333333, 229.130162402448, -0.00139195960643118, 0.93,143.383880615234
0.0948328566666667, 229.136334874071, -0.00101006528860074, 0.93625,147.942153930664
0.0954994916666667, 229.142437634877, -0.0010766229454631, 0.94375,154.305206298828
0.0961661566666667, 229.149465936641, -0.00118537648288555, 0.95,154.305206298828
0.09683282, 229.156225961611, -0.0013584542893726, 0.95625,146.625091552734
0.0974995166666667, 229.162332362, -0.00122438802338493, 0.9625,150.990219116211
0.09816612, 229.168525657996, -0.00147659435532595, 0.97,150.78401184082
0.0988336633333333, 229.174903573544, -0.00133599741733877, 0.9775,151.554779052734
0.0994995933333333, 229.180704262533, -0.00119520248930911, 0.98375,151.554779052734
0.100166185, 229.18649452732, -0.000971796210787245, 0.98875,153.764358520508
0.100832723333333, 229.193123393909, -0.00136857428104296, 0.99625,151.688568115234
0.10149956, 229.199233832039, -0.00154684182685795, 1.0025,154.80891418457
0.102166526666667, 229.205200498747, -0.00151449895146694, 1.00875,151.087326049805
0.10283271, 229.211381864571, -0.00121669640976977, 1.01625,151.087326049805
0.103499428333333, 229.217581521241, -0.00123716438168356, 1.02375,152.518859863281
0.104166146666667, 229.224380778168, -0.000728131949831813, 1.03,187.338897705078
0.104832743333333, 229.231112622456, -0.000636848034909675, 1.035,152.377975463867
0.10549976, 229.23876494613, -0.000883005170690911, 1.04125,161.242935180664
0.106166171666667, 229.245216346277, -0.00114214715428409, 1.04875,161.242935180664
0.106832736666667, 229.251748294991, -0.00138860577491289, 1.05625,153.614181518555
0.107499586666667, 229.257388074613, -0.0014648244465357, 1.0625,161.418685913086
0.108166228333333, 229.263866155316, -0.00136188761694802, 1.06875,156.22639465332
0.108833048333333, 229.269162287419, -0.00119818283965099, 1.075,155.514633178711
0.109499496666667, 229.2756988928, -0.00122299759325056, 1.08125,155.514633178711
0.110166185, 229.281617683864, -0.00116756037782683, 1.09,156.669677734375
0.110832773333333, 229.288038782289, -0.001462078084507, 1.09625,154.876693725586
0.111499675, 229.29364670844, -0.00114100421174002, 1.10125,160.223251342773
0.112166363333333, 229.299593930452, -0.00122326008010615, 1.11,154.404998779297
0.112832805, 229.306068540344, -0.000953477630989667, 1.115,154.404998779297
0.113499583333333, 229.312201472504, -0.00105150520715532, 1.12125,159.801803588867
0.114166471666667, 229.318206560981, -0.000828083929368165, 1.12875,159.255966186523
0.11483272, 229.325141640831, -0.00108173018897011, 1.135,156.595886230469
0.115499666666667, 229.331689145775, -0.00114595096325088, 1.1425,159.754089355469
0.116166251666667, 229.337659140114, -0.00156684332226106, 1.1475,159.754089355469
0.116833861666667, 229.344585612776, -0.00141149162541106, 1.155,161.83283996582
0.11749992, 229.350437914146, -0.00152413296754563, 1.16125,162.420486450195
0.118166135, 229.356183115098, -0.0019800020697303, 1.16875,162.60041809082
0.118832708333333, 229.362168616978, -0.00204485281232419, 1.17375,162.680541992188
0.119499981666667, 229.367916961641, -0.0018716880102005, 1.1825,162.680541992188
0.120166115, 229.373721639425, -0.00213129197055239, 1.1875,161.368881225586
0.120832663333333, 229.380208918259, -0.00244833554578893, 1.19375,189.242904663086
0.12149988, 229.386759040471, -0.00199822615431172, 1.20125,161.258560180664
0.122166361666667, 229.392914164988, -0.00200315190690219, 1.2075,160.048645019531
0.122832873333333, 229.399367762254, -0.00235731861747434, 1.215,160.048645019531
0.123499383333333, 229.405161477164, -0.0022599330090808, 1.22125,163.187301635742
0.12416606, 229.412014394371, -0.00203756917818923, 1.2275,161.994049072266
0.124832761666667, 229.417633597053, -0.00230690164989972, 1.235,165.334930419922
0.125499495, 229.423876273223, -0.00241481822939889, 1.24125,166.698257446289
0.126166568333333, 229.430104957268, -0.00216948005246936, 1.2475,166.698257446289
0.126832923333333, 229.436365196941, -0.00202687321544175, 1.255,169.127197265625
0.127499533333333, 229.44194027651, -0.00187968710842459, 1.26125,166.210876464844
0.1281661, 229.448229257118, -0.00159334399112369, 1.2675,166.87190246582
0.128832775, 229.454577943294, -0.00161252802753574, 1.275,163.431838989258
0.129499428333333, 229.460169557054, -0.00159561937684726, 1.28125,163.431838989258
0.130166075, 229.465918996572, -0.00137295856086008, 1.2875,172.485198974609
0.13083268, 229.471909196542, -0.00143535392682327, 1.29375,164.337371826172
0.131499403333333, 229.477824047227, -0.00157682532084382, 1.30125,166.132400512695
0.132166048333333, 229.483772841308, -0.00138593140923429, 1.3075,171.858993530273
0.132832703333333, 229.490116824203, -0.00117467452044045, 1.31375,171.858993530273
0.133499836666667, 229.496410462939, -0.00151619836602837, 1.32,172.3212890625
0.1341661, 229.502413294707, -0.0015909441116534, 1.32625,168.278625488281
0.134832726666667, 229.508567443054, -0.00166065911000098, 1.33375,169.100479125977
0.135499441666667, 229.514985341893, -0.00156077162721397, 1.34,167.233947753906
0.136166053333333, 229.521002690377, -0.00176259698974481, 1.34625,167.233947753906
0.136832751666667, 229.527209452208, -0.00200418985480178, 1.35375,169.952713012695
0.137499523333333, 229.533292706413, -0.00188876915223787, 1.36,208.276901245117
0.138166003333333, 229.539620175029, -0.00176280247938805, 1.36625,174.586975097656
0.13883274, 229.545288028177, -0.0017269752789494, 1.3725,167.295700073242
0.139499411666667, 229.551370854924, -0.00163852172188631, 1.37875,167.295700073242
0.140166173333333, 229.557561143092, -0.00128814082116686, 1.38625,177.031387329102
0.140832813333333, 229.563557731573, -0.00122032772732392, 1.39375,170.992370605469
0.141499831666667, 229.56964480516, -0.00142176910912251, 1.4,174.257446289063
0.142167166666667, 229.576189030793, -0.00157693481532526, 1.40625,174.946807861328
0.142832843333333, 229.582310713728, -0.00152646085060206, 1.4125,174.946807861328
0.143499568333333, 229.58852728927, -0.0015702646503775, 1.42,172.456039428711
0.144166536666667, 229.594886194633, -0.00166142857130487, 1.42625,172.144409179688
0.144832691666667, 229.601258602963, -0.0016988306926645, 1.4325,172.781661987305
0.1454996, 229.606874367, -0.00188583079984304, 1.43875,171.407958984375
0.146166061666667, 229.612887555818, -0.0019387811401811, 1.44625,171.407958984375
0.146832871666667, 229.619030413441, -0.00210301239102869, 1.4525,183.479461669922
0.147499476666667, 229.625260056432, -0.00223012800616269, 1.45875,175.948440551758
0.14816622, 229.630365805208, -0.00198276643087309, 1.465,176.302169799805
0.148832685, 229.636220792139, -0.00193409837545023, 1.4725,175.845672607422
0.149499645, 229.642115150059, -0.00195938410537619, 1.47875,175.845672607422
0.150166121666667, 229.64717192855, -0.00190838216711427, 1.485,173.308044433594
0.150832813333333, 229.65216193143, -0.00157602586103061, 1.4925,179.071243286133
0.151499416666667, 229.658057965002, -0.00174321646321467, 1.4975,172.727005004883
0.152166081666667, 229.663246961012, -0.00142817078764459, 1.50375,186.27653503418
0.152832698333333, 229.668243155137, -0.00123843631776881, 1.51125,186.27653503418
0.15349941, 229.673883610344, -0.000941796217675448, 1.5175,185.726104736328
0.154166375, 229.679644479191, -0.000810609806988367, 1.52375,217.40544128418
0.154832668333333, 229.685202513742, -0.000430267911149094, 1.53125,182.116668701172
0.15549946, 229.691010823867, -0.00071172877362472, 1.5375,181.825576782227
0.156166051666667, 229.697259248652, -0.000820074331566982, 1.54375,181.825576782227
0.15683279, 229.702420782272, -0.000705774072787352, 1.55125,189.038192749023
0.157499576666667, 229.707857239912, -0.000966169993415445, 1.5575,178.159606933594
0.158166148333333, 229.713340319782, -0.00103026777387389, 1.56375,183.816513061523
0.158832685, 229.718834159325, -0.00103347311289751, 1.57,186.382675170898
0.159499501666667, 229.723745008527, -0.000892468195451393, 1.5775,186.382675170898
0.160166348333333, 229.729993327697, -0.000838973382427432, 1.58375,178.903350830078
0.160832793333333, 229.735125203668, -0.000662495246723087, 1.59125,184.842590332031
