Time (min), Depth (µm), Load (N), Position (µm), Acoustic (aJ)
3.37566666666667E-05, 226.999284641187, 0.00127966934854171, 0,124.432479858398
0.000664815, 226.999009681641, 0.00125282819675453, 0,124.432479858398
0.00133143166666667, 226.997992002709, 0.00122854441647873, 0.005,123.198066711426
0.00199836833333333, 226.996692379624, 0.000969234441394897, 0.0125,125.052833557129
0.00266431, 226.99359473476, 0.0008554516565769, 0.02,124.991508483887
0.003331215, 226.991691922452, 0.00066828655767149, 0.0275,120.419883728027
0.00399764666666667, 226.989588936857, 0.000360256029704416, 0.035,120.419883728027
0.00466429, 226.987923200225, -0.000136768005249435, 0.0425,121.163528442383
0.00533101166666667, 226.98679700775, -7.13607905744069E-05, 0.04875,120.561729431152
0.00599764333333333, 226.987044950628, -9.83238108633491E-06, 0.055,119.474670410156
0.006664315, 226.987666626406, -0.000278588881740957, 0.0625,123.663024902344
0.007331265, 226.987847947669, -0.00036431407582568, 0.07,123.663024902344
0.00800061, 226.988581632958, -7.92203958289944E-05, 0.07625,122.697578430176
0.00866730666666667, 226.989010038465, -0.000119202387587309, 0.08125,120.000770568848
0.00933396666666667, 226.989303331192, -9.22997388570829E-05, 0.09,124.672698974609
0.010000445, 226.990161064538, -0.00013168026082342, 0.095,148.287536621094
0.0106672416666667, 226.991899650629, 4.52478522656645E-05, 0.1025,148.287536621094
0.01133389, 226.993090430771, -0.000104690616477806, 0.11,123.153816223145
0.0121673216666667, 227.00028782609, -0.000547654366886413, 0.1175,118.233352661133
0.012833945, 227.006404520944, -0.000721161151837806, 0.12375,152.126678466797
0.0135004433333333, 227.011615328732, -0.000555773459084018, 0.13125,156.00407409668
0.0141671633333333, 227.017467498695, -0.000690322700814555, 0.1375,158.568237304688
0.014834995, 227.023654753894, -0.000534237540825083, 0.14375,158.568237304688
0.015500555, 227.027044051916, -0.000241722233584578, 0.1525,155.235122680664
0.0161673183333333, 227.031471894947, -0.000352784155067476, 0.15625,149.788986206055
0.0168338416666667, 227.035936068995, -0.000319715316031498, 0.1625,151.682281494141
0.01750053, 227.041108829799, -0.000273778623372054, 0.17,148.821975708008
0.0181673033333333, 227.045677013794, -0.000610076731446351, 0.18,148.821975708008
0.01883398, 227.051096546305, -0.000629601250740452, 0.18375,150.099227905273
0.01950051, 227.056225646755, -0.000552523122328298, 0.19,149.440124511719
0.02016714, 227.061932429124, -0.000601869143730208, 0.19625,144.410781860352
0.0208339283333333, 227.067063554503, -0.00090393747119539, 0.20375,147.849334716797
0.0215004866666667, 227.072995042827, -0.000898261756275774, 0.21125,147.849334716797
0.0223346333333333, 227.078362266653, -0.00097465591909628, 0.22,149.33251953125
0.0230004616666667, 227.083058335722, -0.000921290099613508, 0.225,150.032821655273
0.0236673983333333, 227.088268422718, -0.000966443831606927, 0.23,148.129867553711
0.02433481, 227.093710805679, -0.0006603632056829, 0.23875,150.654678344727
0.0250005416666667, 227.098985502391, -0.000662710587735318, 0.245,150.654678344727
0.0256671366666667, 227.103458181416, -0.000733838515040805, 0.25125,152.05207824707
0.0263339116666667, 227.1094990378, -0.00112559483752299, 0.2575,179.088287353516
0.02700052, 227.114717609552, -0.00115813120326829, 0.265,149.151992797852
0.0276673533333333, 227.120321925984, -0.00111760173903902, 0.27125,147.777069091797
0.02833377, 227.125211287738, -0.00103848071322831, 0.27875,150.2998046875
0.0290004883333333, 227.131700900536, -0.00112269998297837, 0.285,150.2998046875
0.029667435, 227.136729211434, -0.00107439490928235, 0.2925,154.496459960938
0.03033378, 227.142509917844, -0.000937808769850873, 0.2975,151.00244140625
0.0310004816666667, 227.147928423597, -0.000921624582776688, 0.305,152.482437133789
0.0316671016666667, 227.153892466282, -0.000876523348201145, 0.3125,146.814971923828
0.0325005766666667, 227.161528569783, -0.000966418332913326, 0.31875,145.941421508789
0.0331671116666667, 227.167738796941, -0.000941080105633255, 0.3275,145.941421508789
0.0338338933333333, 227.172318289367, -0.00101270300805558, 0.33375,145.278045654297
0.0345005933333333, 227.177630230124, -0.00110480588180817, 0.33875,149.411926269531
0.0351682383333333, 227.182793822826, -0.0010190191907804, 0.34625,147.825561523438
0.0358347483333333, 227.189092566703, -0.000853288015274508, 0.35375,144.575790405273
0.0365004833333333, 227.194076336834, -0.000782485571585781, 0.35875,144.575790405273
0.0371672666666667, 227.200720055279, -0.000717787821302273, 0.365,148.150497436523
0.0378340583333333, 227.206589177341, -0.000572803603712927, 0.375,144.17919921875
0.038500545, 227.212081312704, -0.000487579384421401, 0.37875,142.579193115234
0.0391674116666667, 227.217016243361, -0.000395496009643548, 0.385,146.24674987793
0.0398338066666667, 227.222763783553, -0.000495386492258112, 0.39375,146.24674987793
0.0405005616666667, 227.2283330163, -0.000526631422879663, 0.3975,147.584365844727
0.0411673033333333, 227.23350565633, -0.000488425341912363, 0.405,146.597045898438
0.0418338183333333, 227.239026935711, -0.000429538299744764, 0.41375,148.361236572266
0.042667165, 227.244646550405, -0.00015277820113535, 0.42125,171.190078735352
0.0433340333333333, 227.249908831926, 7.91322750418212E-06, 0.42625,142.300750732422
0.0440007133333333, 227.254909300996, -0.000145667058285513, 0.43375,142.300750732422
0.044667335, 227.26150656456, -0.000356820452274266, 0.44125,145.176452636719
0.0453340416666667, 227.267116172789, -0.000249556340060548, 0.4475,143.2431640625
0.046001385, 227.272860576903, -0.000367300425865173, 0.4525,151.255249023438
0.046667295, 227.278354670171, -0.00019885738659185, 0.45875,149.146530151367
0.0473340016666667, 227.283796281173, -4.06333340632672E-05, 0.4675,149.146530151367
0.0480004533333333, 227.289080177018, 3.97716272704275E-05, 0.475,148.24235534668
0.0486671016666667, 227.295022439562, -0.000200489304661406, 0.48,145.438400268555
0.0495011516666667, 227.304034245657, -0.000568150837406366, 0.4875,147.591003417969
0.0501672766666667, 227.309766119535, -0.000657130868041272, 0.49625,143.150314331055
0.05083412, 227.315285584453, -0.000249491843289954, 0.5,147.068481445313
0.0515004166666667, 227.320607195566, -0.000123225185516977, 0.50875,147.068481445313
0.0521675033333333, 227.326032341338, -0.000473744079302784, 0.51375,143.877822875977
0.0528353916666667, 227.33234836182, -0.00059862180680204, 0.52125,143.030502319336
0.05350037, 227.33789497914, -0.000708822771507435, 0.52875,137.173004150391
0.05416766, 227.344328908047, -0.000659652241324468, 0.535,145.154205322266
0.0548338, 227.349641946265, -0.000575284479037235, 0.54,145.154205322266
0.055502675, 227.356002122829, -0.000239001370185716, 0.5475,152.380828857422
0.05616804, 227.361125566411, 7.26076028249448E-06, 0.555,140.992401123047
0.056834535, 227.367466994623, -0.000315784013511683, 0.56125,142.346176147461
0.05750112, 227.372769808271, -0.000803648008604542, 0.56625,145.332122802734
0.05816731, 227.379532403827, -0.00132174598505862, 0.57375,145.332122802734
0.0588348083333333, 227.384303218582, -0.00162521074233452, 0.58,143.00895690918
0.0595005116666667, 227.389808758576, -0.00184354577557755, 0.58625,169.630035400391
0.0601687616666667, 227.395484806753, -0.00177743959602434, 0.595,139.01481628418
0.060833965, 227.401536067336, -0.00159324434794748, 0.60125,146.890426635742
0.0615018483333333, 227.406201221782, -0.00100745327162398, 0.6075,146.890426635742
0.0621677033333333, 227.412099916538, -0.000723036057639436, 0.61375,142.774765014648
0.06283664, 227.418084118035, -0.000628650298541262, 0.62,146.021423339844
0.0635007383333333, 227.423123236883, -0.000371203229842581, 0.6275,143.856628417969
0.064167215, 227.428449031318, -0.000335838006205149, 0.6325,148.739273071289
0.0648343133333333, 227.43427004266, -0.000780607665935345, 0.64,148.739273071289
0.0655007683333333, 227.439826702592, -0.000846524854971243, 0.6475,140.873336791992
0.0661673883333333, 227.444988534364, -0.000840216171847181, 0.65375,143.642120361328
0.066833985, 227.450583487521, -0.000648723790315733, 0.65875,138.009414672852
0.0675007733333333, 227.455310690068, -0.000666575893602644, 0.66625,137.178527832031
0.0681680083333333, 227.460762279949, -0.000456035968822348, 0.6725,137.178527832031
0.068834235, 227.466025818178, -0.000665570944103683, 0.67875,146.536422729492
0.0695014366666667, 227.472220318505, -0.000594518013018358, 0.68625,147.314453125
0.0701676433333333, 227.478226969253, -0.000742727068648569, 0.695,141.058517456055
0.0708339316666667, 227.484498143404, -0.000560468223316379, 0.7,145.491607666016
0.0715009716666667, 227.490353897542, -0.000471933670314257, 0.705,145.491607666016
0.0721678183333333, 227.496861008215, -0.000622295117781953, 0.7125,146.28092956543
0.072834805, 227.501866121846, -0.000523240093208782, 0.71875,139.994430541992
0.0735005816666667, 227.507522915744, -0.000625812441081454, 0.725,146.827621459961
0.074168025, 227.513384511947, -0.000561890151841954, 0.73375,146.547027587891
0.074834195, 227.518649167864, -0.000944343941581081, 0.73875,146.547027587891
0.0755009616666667, 227.523747721627, -0.000798569263724948, 0.745,149.921951293945
0.0761673266666667, 227.529760388262, -0.000797177333623675, 0.75125,174.908569335938
0.07683435, 227.535486165789, -0.000946527831873544, 0.75875,139.278442382813
0.0775019516666667, 227.540890009872, -0.00130391938046531, 0.76625,136.657791137695
0.078167935, 227.546759241736, -0.00128293543442928, 0.7725,136.657791137695
0.0788339233333333, 227.552292989604, -0.000938948712524874, 0.7775,136.989364624023
0.0795010383333333, 227.557878470638, -0.00105297898491192, 0.78375,139.984024047852
0.0801686133333333, 227.56308633097, -0.00102082360005006, 0.79125,146.947982788086
0.080835845, 227.568984492814, -0.00107592783223502, 0.79875,145.117904663086
0.0815014266666667, 227.575105694697, -0.000904498443007225, 0.805,145.117904663086
0.0821672966666667, 227.58111017619, -0.00101628332818002, 0.81,134.969787597656
0.0828348216666667, 227.587346823426, -0.0011863417862907, 0.8175,141.988342285156
0.0835013333333333, 227.59357219736, -0.000945743371304369, 0.82375,143.140731811523
0.0841672933333333, 227.598820995658, -0.00100025063342805, 0.83125,144.151458740234
0.0848349083333333, 227.604568709495, -0.000990009147817265, 0.8375,144.151458740234
0.0855004766666667, 227.609823418617, -0.000672086616710377, 0.84375,137.521270751953
0.0861676016666667, 227.615659246823, -0.00076672586307521, 0.85,145.215545654297
0.08683499, 227.62124929443, -0.000735612925864908, 0.8575,146.643585205078
0.0875004233333333, 227.627202602977, -0.000478737328470139, 0.86375,145.367553710938
0.0881680933333333, 227.632767997879, -0.000542857607773376, 0.87,145.367553710938
0.088834865, 227.639515071714, -0.000798659259125381, 0.8775,151.148498535156
0.0895013333333333, 227.644640382061, -0.000544164042119901, 0.88375,145.7392578125
0.0901686033333333, 227.650844357657, -0.000609782746199551, 0.89,141.206558227539
0.0908337783333333, 227.656686316166, -0.000584269027721791, 0.89625,142.367462158203
0.0915015116666667, 227.663052566461, -0.000774970948965197, 0.90375,142.367462158203
0.0921681266666667, 227.668619216105, -0.000539517275553461, 0.91,145.23681640625
0.0928340016666667, 227.675008629046, -0.000566331428701386, 0.91625,173.053924560547
0.093502555, 227.681000680098, -0.000511861664645275, 0.9225,148.144073486328
0.0941681466666667, 227.687941614635, -0.000583504066106096, 0.93,151.196823120117
0.09483432, 227.694109332834, -0.000603843044499944, 0.9375,151.196823120117
0.0955005766666667, 227.70028795752, -0.00116567582424941, 0.94375,142.086959838867
0.0961677516666667, 227.706352006259, -0.00124611978361759, 0.95,152.871932983398
0.096834865, 227.712289146156, -0.00165436627781599, 0.95625,148.830352783203
0.097500415, 227.717587412991, -0.00142154797206963, 0.9625,146.58757019043
0.098168915, 227.723430358276, -0.00163599520060054, 0.96875,146.58757019043
0.098834575, 227.729680415898, -0.00135510130959185, 0.97625,142.475387573242
0.0995005833333333, 227.735983475623, -0.00117017109845113, 0.9825,140.191986083984
0.100167438333333, 227.741822250213, -0.000899889174423341, 0.98875,153.909072875977
0.100834515, 227.748160149697, -0.00106415192366214, 0.995,151.519256591797
0.10150069, 227.753973646312, -0.000454708535385399, 1.00375,151.519256591797
0.102167358333333, 227.75978418057, -0.000718536283622007, 1.01,144.661010742188
0.102833916666667, 227.765833339073, -0.00113599681500242, 1.015,148.878463745117
0.103500428333333, 227.772437009118, -0.00123461986126244, 1.02125,146.573791503906
0.104167126666667, 227.778112018222, -0.00138590376238692, 1.02875,143.220245361328
0.104834001666667, 227.784217103725, -0.00167362081065375, 1.03625,143.220245361328
0.10550074, 227.790631405082, -0.00149401983183172, 1.04125,149.82080078125
0.106167338333333, 227.796715019517, -0.00140158997449546, 1.04875,149.946273803711
0.106835008333333, 227.802739387262, -0.00118575531561523, 1.055,147.356857299805
0.107501275, 227.809564848905, -0.000925996863028554, 1.06125,147.49592590332
0.108167085, 227.816361267023, -0.000810138182475127, 1.06875,147.49592590332
0.108835458333333, 227.822241356796, -0.000759311735432153, 1.07625,179.512084960938
0.109500435, 227.827866740874, -0.000410939233807474, 1.0825,152.57633972168
0.110168211666667, 227.83424605589, -0.000593283574873157, 1.0875,145.907867431641
0.110834496666667, 227.840063407294, -0.000703934516984546, 1.095,151.342590332031
0.111500986666667, 227.845328470588, -0.000993826456039925, 1.10125,151.342590332031
0.112168081666667, 227.851499156963, -0.000921774575131998, 1.1075,146.949188232422
0.11283449, 227.858390865693, -0.0013223579542364, 1.115,150.209381103516
0.11350149, 227.863831850802, -0.0014092725886067, 1.12125,151.940475463867
0.11416736, 227.869855350976, -0.00147134097094371, 1.1275,149.252487182617
0.114834413333333, 227.876208483489, -0.00102528737573304, 1.13375,149.252487182617
0.11550131, 227.882074545438, -0.0012132444348934, 1.14125,149.23974609375
0.116167326666667, 227.887351761187, -0.000983365981423752, 1.14875,153.935211181641
0.11683503, 227.893358327643, -0.00132259644223777, 1.15375,147.254333496094
0.117501325, 227.899315070517, -0.00134553778993886, 1.16125,149.688430786133
0.118167326666667, 227.905462431949, -0.00170065545273146, 1.1675,149.688430786133
0.118834316666667, 227.91164703632, -0.00171985148851748, 1.175,145.612457275391
0.119500811666667, 227.918276208647, -0.00186287530459296, 1.18125,149.597061157227
0.120167705, 227.924303318982, -0.00140434083631862, 1.1875,149.959609985352
0.120834708333333, 227.930431278761, -0.00136116250510436, 1.195,147.591201782227
0.121500815, 227.936351064353, -0.00139488681116832, 1.20125,147.591201782227
0.122167096666667, 227.942635054192, -0.00131373638727869, 1.2075,157.526870727539
0.12283414, 227.94796096201, -0.00116927564339109, 1.215,154.910797119141
0.123501098333333, 227.954295480259, -0.00121874915836728, 1.22125,151.959259033203
0.124167306666667, 227.960406809538, -0.00124011108541669, 1.2275,153.013381958008
0.124834463333333, 227.966201602872, -0.00110048909848292, 1.23375,153.013381958008
0.125500866666667, 227.971110099693, -0.00122505934145825, 1.24125,185.702713012695
0.126167186666667, 227.977039475729, -0.0014494285716383, 1.2475,157.516235351563
0.126835103333333, 227.982410648233, -0.00135452083872027, 1.25375,157.175216674805
0.127500441666667, 227.987355987122, -0.00147076799973665, 1.26,151.511260986328
0.12816737, 227.993407754746, -0.00144776965492949, 1.2675,151.511260986328
0.12883387, 227.99956632232, -0.00153735415518392, 1.2725,161.725036621094
0.129501163333333, 228.005637253091, -0.00158423880019375, 1.28,154.180648803711
0.130168245, 228.011737469066, -0.00187569366077488, 1.28625,150.066482543945
0.130834006666667, 228.018272917541, -0.00156939404584547, 1.29375,154.249313354492
0.131500493333333, 228.024681951708, -0.00181256933140293, 1.3,154.249313354492
0.132167638333333, 228.031078420597, -0.00149366134981432, 1.30625,153.989990234375
0.132834445, 228.037278711907, -0.00158337634355561, 1.31375,156.518188476563
0.133502285, 228.043403061044, -0.00150903407765882, 1.32,165.663558959961
0.134168873333333, 228.04932974716, -0.00138674072037397, 1.32625,159.252777099609
0.134835543333333, 228.054528409407, -0.00118987860856493, 1.3325,159.252777099609
0.135500535, 228.060500360569, -0.00121865616309679, 1.34,154.978408813477
0.13616725, 228.066113499895, -0.000906643335158933, 1.34625,154.772720336914
0.136834686666667, 228.072653956658, -0.000715126954837033, 1.3525,163.908752441406
0.137501551666667, 228.07911206789, -0.00093404845867052, 1.35875,156.723403930664
0.138167385, 228.085472286569, -0.0010600241310455, 1.365,156.723403930664
0.138835356666667, 228.090962262884, -0.000831332118012628, 1.3725,161.6962890625
0.13950046, 228.097665855355, -0.000914420444592595, 1.37875,155.927230834961
0.140168746666667, 228.102895404076, -0.000728501783100088, 1.385,157.566284179688
0.14083381, 228.10838449031, -0.000848353263073863, 1.3925,161.287750244141
0.141501158333333, 228.114520252765, -0.000717114355053923, 1.39875,161.287750244141
0.142167275, 228.120790089115, -0.000726460385625934, 1.405,191.128295898438
0.142833883333333, 228.126513075236, -0.000740537178552222, 1.41125,155.284576416016
0.143500983333333, 228.13213197632, -0.000711881117939539, 1.41875,157.849258422852
0.144167711666667, 228.138690875319, -0.000625090977315962, 1.425,157.938766479492
0.144834186666667, 228.14504736925, -0.000765408929300371, 1.4325,157.938766479492
0.145501006666667, 228.151146672587, -0.000941881065285849, 1.43875,160.574249267578
0.146167288333333, 228.157374364548, -0.00109021761444783, 1.445,157.056625366211
0.14683483, 228.164455582763, -0.00136654123499213, 1.45125,158.137481689453
0.147502206666667, 228.169924144391, -0.00153822111168029, 1.45875,156.785903930664
0.148168136666667, 228.175728186373, -0.00126523482348584, 1.465,156.785903930664
0.148834335, 228.181644029126, -0.00106416842285184, 1.47125,165.791412353516
0.149501345, 228.187228766378, -0.000678903774313414, 1.4775,158.052749633789
0.150167211666667, 228.192127412924, -0.000180528307217179, 1.485,160.423385620117
0.150835466666667, 228.19799053464, 1.89661723871661E-05, 1.49125,157.937973022461
0.151500788333333, 228.203218112238, 3.45458898418216E-05, 1.4975,157.937973022461
0.152167141666667, 228.208770938336, 4.31689567451918E-05, 1.50375,161.659790039063
0.15283447, 228.213947457449, 0.000134002894261337, 1.51125,170.175003051758
0.153500816666667, 228.22024028452, -0.000104282636891341, 1.51625,167.563125610352
0.154168055, 228.225464617685, 2.68749009683032E-06, 1.52375,164.137908935547
0.1548344, 228.230905369677, -7.14901581880826E-06, 1.53125,164.137908935547
0.155500988333333, 228.236263313342, 0.000127335729141134, 1.5375,160.114532470703
0.156167295, 228.24209511605, -2.04158494185581E-05, 1.54375,163.070861816406
0.156834458333333, 228.246682724127, 0.000175994785060082, 1.55,163.213012695313
0.157501368333333, 228.252645202614, 0.00025936059769716, 1.5575,161.482559204102
0.158168181666667, 228.258278899167, 0.000212753438723189, 1.5625,161.482559204102
0.158834483333333, 228.26426402183, -0.000186770993624988, 1.57,197.991348266602
0.159500483333333, 228.269707764952, -3.41120358952093E-06, 1.57625,165.392959594727
0.160168093333333, 228.276389480485, -0.00012009784254107, 1.58375,162.531814575195
0.160834746666667, 228.282187259174, 9.41723948890053E-05, 1.59,159.735549926758
0.16150241, 228.287753850926, 0.00034422783487444, 1.5975,159.735549926758
