Time (min), Depth (µm), Load (N), Position (µm), Acoustic (aJ)
1.00716666666667E-05, 229.120607213681, -0.000115315049041771, 0,363.844665527344
0.000665518333333333, 229.120925633847, -0.000307668387371975, 0.005,367.682464599609
0.00133203166666667, 229.121631762075, -0.00027328261451865, 0.01875,366.802642822266
0.00199885, 229.122942754939, 0.000263711412798288, 0.035,366.802642822266
0.002665155, 229.12555496895, 0.000265167839648901, 0.04875,369.968200683594
0.00333194166666667, 229.128901319987, -2.23002211669857E-05, 0.06125,377.1435546875
0.00399884, 229.132905342138, -1.95193608132473E-05, 0.075,379.335845947266
0.00466519333333333, 229.137037998933, 0.000130654596104042, 0.08875,385.017700195313
0.00533207, 229.140861225294, 4.53508808191438E-05, 0.1025,385.017700195313
0.00599871666666667, 229.145359111584, 0.000157270759230738, 0.11625,386.223846435547
0.00666530666666667, 229.150786000748, 0.000433961861338856, 0.13,390.889953613281
0.00733228166666667, 229.158029132665, 0.000577065173428959, 0.1425,394.085327148438
0.007998785, 229.166321038262, 0.000410902019652417, 0.15625,312.714965820313
0.008665125, 229.1768601965, 0.000425826270036578, 0.17,312.714965820313
0.009332025, 229.186981798705, 0.000390534542673652, 0.18125,473.686279296875
0.009998635, 229.197223199913, 0.000162601491516351, 0.195,393.633850097656
0.0106653583333333, 229.206873893071, 9.17360510026872E-05, 0.20875,405.217712402344
0.0113323633333333, 229.216678603561, 6.48454017101957E-05, 0.22125,405.941833496094
0.0119988366666667, 229.225913903315, -3.70549799448001E-05, 0.235,405.941833496094
0.0126651783333333, 229.236325776914, -0.000205826502704944, 0.24875,410.406494140625
0.0133321016666667, 229.246531243357, -0.000297555895238613, 0.26125,419.828765869141
0.013998995, 229.257222178875, -0.000330888720969564, 0.275,412.860321044922
0.0146651716666667, 229.267938115749, -0.0005864788829382, 0.2875,423.270538330078
0.015332, 229.278723804312, -0.00107042207500332, 0.30125,423.270538330078
0.0159988216666667, 229.289826055296, -0.00114257295096437, 0.315,425.006683349609
0.0166652866666667, 229.300972175976, -0.00106432488130514, 0.3275,426.581939697266
0.01733199, 229.311405031744, -0.00115280393710434, 0.34125,431.129577636719
0.018165705, 229.322471906617, -0.00111696773711927, 0.3575,435.529388427734
0.0188321566666667, 229.333237331104, -0.000683224023611543, 0.37125,438.657012939453
0.01949895, 229.343974707614, -0.000768245753044867, 0.385,438.657012939453
0.0201655266666667, 229.354600768246, -0.000536652885663485, 0.3975,441.669036865234
0.020832185, 229.365817859111, -0.000582790568235475, 0.41125,440.172760009766
0.02149871, 229.37679825103, -0.000645092938800644, 0.425,444.517333984375
0.0221651566666667, 229.387676126244, -0.000758182758416812, 0.43875,441.088806152344
0.02283275, 229.398451207448, -0.000489714243311377, 0.4525,441.088806152344
0.02349874, 229.409922751356, -0.00087871070446649, 0.465,434.87060546875
0.024165465, 229.421064740189, -0.000871806551269319, 0.47875,435.038848876953
0.02483194, 229.43194403499, -0.000831107595539976, 0.49125,440.064453125
0.0254989466666667, 229.443033519525, -0.000561283148518948, 0.505,532.879638671875
0.026165235, 229.454255732114, -0.000547513840095328, 0.51875,532.879638671875
0.0268320366666667, 229.465515910076, -0.000241949188272291, 0.5325,438.745849609375
0.0274987033333333, 229.477536825751, -5.1758741356666E-05, 0.545,437.477691650391
0.02816545, 229.489588945654, -3.61955230704464E-05, 0.55875,437.709716796875
0.0288322483333333, 229.502214684638, -4.58580377553071E-05, 0.5725,437.414367675781
0.0294988, 229.514301416151, -0.000214799052036782, 0.58625,437.414367675781
0.0301654766666667, 229.526418582836, -0.000125843020213581, 0.6,438.808502197266
0.030832005, 229.538320200123, -0.000268011879230422, 0.61125,437.764343261719
0.0314990716666667, 229.550185136778, -4.76504477572658E-05, 0.62625,439.857330322266
0.0321655716666667, 229.56140034426, -0.00039241713047889, 0.64,436.148498535156
0.0328320383333333, 229.573215182533, -0.000126315496506878, 0.6525,436.148498535156
0.0334993083333333, 229.584470201503, -0.000148584877947785, 0.66625,438.442108154297
0.0341651916666667, 229.596289705521, -0.000286619944586607, 0.67875,442.176635742188
0.0348325116666667, 229.607506506872, -0.000362976609275778, 0.6925,446.281280517578
0.0354987383333333, 229.619387234704, -1.18817444128503E-05, 0.70625,440.694183349609
0.0361652966666667, 229.63086956902, -0.000102871674088188, 0.72,440.694183349609
0.03683257, 229.642649256833, -8.17812334407829E-05, 0.7325,439.995544433594
0.0374987983333333, 229.654149176026, -0.000199382826427098, 0.745,433.624389648438
0.0381663116666667, 229.665635651811, 2.82517397101931E-05, 0.75875,437.124237060547
0.0388326683333333, 229.676825769776, 0.000137030775868759, 0.7725,434.881561279297
0.0394995316666667, 229.688624313244, -4.25147057716012E-05, 0.78625,434.881561279297
0.0401660933333333, 229.699749521923, -0.000211835200948354, 0.79875,432.740966796875
0.0408329766666667, 229.710741184793, -9.48336482445077E-06, 0.81125,427.888610839844
0.0414991816666667, 229.722195143345, -0.000292966125778242, 0.825,510.505401611328
0.042165785, 229.733884625388, -0.000587065353464891, 0.83875,428.672271728516
0.04283231, 229.74518812911, -0.000458055333490765, 0.85125,428.672271728516
0.0434987433333333, 229.757052730585, -0.000536237406540021, 0.865,426.490539550781
0.0441655583333333, 229.768071416804, -0.000543870523145954, 0.8775,426.078735351563
0.044832345, 229.779225566756, -0.000530816678853975, 0.89125,424.092895507813
0.0454987566666667, 229.789749926168, -0.00043499849169564, 0.905,432.608367919922
0.04616522, 229.800273917667, -0.00062480795777033, 0.9175,432.608367919922
0.0468326033333333, 229.810659886803, -0.000273666595187138, 0.93125,422.713989257813
0.0474990233333333, 229.821343585805, -0.000394422529724857, 0.945,428.723297119141
0.0481659116666667, 229.832006580758, -0.000447300873712808, 0.9575,421.328765869141
0.0488320483333333, 229.842556987081, -0.000526235908876261, 0.97,427.875457763672
0.0494991666666667, 229.852528968561, -0.000100050315733053, 0.98375,427.875457763672
0.050165825, 229.862350055789, -0.000204113588781375, 0.9975,423.820098876953
0.0508319933333333, 229.87269411994, -0.000298172364338384, 1.01,431.480621337891
0.0514993766666667, 229.882256613831, -4.56870463945899E-05, 1.02375,426.379516601563
0.0521655766666667, 229.891973941448, -9.76639356886587E-05, 1.03625,445.775665283203
0.052831995, 229.902130229001, -0.000674798946771911, 1.05,445.775665283203
0.0534987983333333, 229.912321675735, -0.000938661193269794, 1.0625,438.628601074219
0.054165295, 229.921521204141, -0.000771461591496804, 1.07625,437.008605957031
0.0548325916666667, 229.931311108254, -0.00104592980525672, 1.08875,437.895599365234
0.0554988666666667, 229.941084995828, -0.000994543886283806, 1.1025,442.546569824219
0.0561655716666667, 229.950071918697, -0.000753496993858395, 1.115,442.546569824219
0.0568325816666667, 229.958788502907, -0.000610002201414026, 1.12875,439.218414306641
0.0574987416666667, 229.96749301457, -0.000466765396052033, 1.14125,443.08203125
0.0581651533333333, 229.976070479173, -0.000180378780985944, 1.155,514.574096679688
0.0588326583333333, 229.984203980155, -7.43386072553176E-05, 1.17,431.582885742188
0.0594987933333333, 229.992494884692, -9.86793846371888E-05, 1.18125,431.582885742188
0.0601651433333333, 230.000698948262, 0.000131184069567171, 1.195,434.013244628906
0.0608325816666667, 230.008865709812, 0.000323589905208982, 1.21125,429.804809570313
0.0614987466666667, 230.018699424157, 0.000366943727620935, 1.2225,425.865447998047
0.06216576, 230.028377023562, 0.00072106394055784, 1.23625,428.629425048828
0.0628318883333333, 230.037337008733, 0.000954677206450476, 1.25,428.629425048828
0.063498785, 230.046233125358, 0.00091150037518187, 1.26375,425.290405273438
0.0641654233333333, 230.055193293161, 0.000866909114924688, 1.27625,428.153472900391
0.06483256, 230.062014584499, 0.000650024508792145, 1.29,433.970611572266
0.0654988666666667, 230.068811074352, 0.000408152657753655, 1.30375,429.499908447266
0.066165715, 230.076040513416, 0.000539714049541549, 1.31625,429.499908447266
0.0668335933333333, 230.082940338344, 0.000440651525367616, 1.33125,424.233184814453
0.0674987166666667, 230.089848493461, 0.000168875676357883, 1.34375,429.339019775391
0.0681654716666667, 230.096679980358, 0.000293438419711201, 1.35625,426.461547851563
0.06883244, 230.103280398544, 0.000434875315512982, 1.37,432.469818115234
0.0694988033333333, 230.110300538866, 0.000293090437249645, 1.38375,432.469818115234
0.0701655, 230.117563869679, 0.000188344698491571, 1.39625,421.220855712891
0.0708320416666667, 230.124521582705, 0.000243141446088847, 1.41,426.411102294922
0.071498695, 230.131865687234, -5.78664345894368E-05, 1.42375,424.423156738281
0.0721659116666667, 230.138910053041, -0.000283020125381166, 1.43625,428.1845703125
0.0728321116666667, 230.145760618214, -0.000458622305063976, 1.45,428.1845703125
0.0734988283333333, 230.152977434602, -0.000282849133956686, 1.46375,427.160003662109
0.0741651716666667, 230.159771690383, -0.000318052365758565, 1.47625,422.968017578125
0.0748322, 230.166731644457, 0.000298418169601435, 1.49125,506.953643798828
0.0754986883333333, 230.173520516974, 0.000576678192890411, 1.50375,425.036560058594
0.0761654233333333, 230.180732717999, 0.000789369009647552, 1.5175,425.036560058594
0.0768320866666667, 230.187730589743, 0.00084509571054488, 1.53125,430.658081054688
0.07749933, 230.195051628583, 0.000854534736472402, 1.54375,433.280792236328
0.0781652433333333, 230.201740957289, 0.000495908749841708, 1.5575,423.37744140625
0.0788326266666667, 230.209341117917, 0.000306201278668948, 1.57,425.792572021484
0.07949879, 230.21678905318, 4.49189026122597E-05, 1.585,425.792572021484
0.0801655133333333, 230.223663335634, 5.24635236358925E-05, 1.5975,433.559448242188
0.0808322116666667, 230.23123155034, -3.87364659983208E-06, 1.61,434.964111328125
0.0814990416666667, 230.238868933266, -0.000195633014717568, 1.62375,426.961791992188
0.0821666883333333, 230.246784119565, -0.000254223071853322, 1.6375,426.961791992188
0.0828322616666667, 230.254034572443, -0.000422387125166385, 1.65,437.747741699219
0.0834988066666667, 230.26143948857, -0.000538028316617576, 1.665,434.682708740234
0.0841651983333333, 230.268743460007, -0.000573138553085199, 1.67625,439.359802246094
0.0848320716666667, 230.276173612922, -0.000642891049479104, 1.69,435.894622802734
0.085499235, 230.282864064203, -0.000859036192689555, 1.70375,435.894622802734
0.086165205, 230.29004043162, -0.000476144424939661, 1.71625,435.082733154297
0.08683211, 230.297248311216, -0.000569217749972444, 1.72875,428.930236816406
0.0874987166666667, 230.304195327932, -0.000617408829350051, 1.7425,429.785736083984
0.0881654916666667, 230.31045699579, -0.000655103435989569, 1.75625,429.153106689453
0.0888319583333333, 230.317280253626, -0.000806810315923291, 1.77,428.428405761719
0.0894985633333333, 230.323715706059, -0.00122850363471359, 1.7825,428.428405761719
0.09016531, 230.330066469517, -0.000872283527272063, 1.795,427.028472900391
0.0908320616666667, 230.336356496127, -0.000916478807401768, 1.80875,430.414642333984
0.0914986716666667, 230.343254368338, -0.000795581879927635, 1.8225,516.989501953125
0.0921653133333333, 230.349658575297, -0.00097361393754755, 1.835,428.511047363281
0.09283277, 230.357079690315, -0.000987248252711114, 1.84875,428.511047363281
0.0934987966666667, 230.363661669953, -0.00133845111215233, 1.8625,427.817596435547
0.0941655466666667, 230.370298465703, -0.00125499080425659, 1.875,420.537078857422
0.0948320366666667, 230.376767679359, -0.00141183642608855, 1.88875,426.566497802734
0.0954987, 230.383613046234, -0.00128079100840165, 1.90125,434.179046630859
0.09616541, 230.389187388821, -0.00148277686290739, 1.915,434.179046630859
0.0968319666666667, 230.395879820472, -0.0016405764368086, 1.92875,426.520416259766
0.0974989466666667, 230.402450315349, -0.00190195780789716, 1.94,431.614837646484
0.0981656783333333, 230.40887470931, -0.00192928343533036, 1.95375,429.759582519531
0.0988321233333333, 230.414484524655, -0.00173580815339773, 1.9675,413.377227783203
0.0994989566666667, 230.420742308752, -0.00114573329221339, 1.98125,413.377227783203
0.10016746, 230.426960214921, -0.00103902415207138, 1.995,413.603363037109
0.10083236, 230.433277289676, -0.000936190817288784, 2.0075,415.439971923828
0.101498831666667, 230.440024431371, -0.000456234425010161, 2.02125,415.971099853516
0.102165696666667, 230.447484997221, -0.000462880591167464, 2.03375,414.217803955078
0.102832053333333, 230.454680328748, -0.000700177671989616, 2.0475,414.217803955078
0.103499121666667, 230.462450693341, -0.000601854610695267, 2.06,418.418823242188
0.10416572, 230.470420057686, -0.00095473588586254, 2.075,410.319610595703
0.10483193, 230.478004077289, -0.00114716572031606, 2.0875,412.537658691406
0.105498748333333, 230.485045777817, -0.001020795567738, 2.10125,410.542358398438
0.106165341666667, 230.49234109008, -0.00104410889671235, 2.115,410.542358398438
0.106831863333333, 230.499226554286, -0.00112681174265692, 2.1275,419.6943359375
0.10749871, 230.505865958156, -0.000872573012809416, 2.14125,411.219177246094
0.10816668, 230.512142478402, -0.000739544694700086, 2.155,498.044677734375
0.108831818333333, 230.519119435945, -0.000709235717076201, 2.16875,414.544342041016
0.10949877, 230.526105186426, -0.000531577140696459, 2.18125,414.544342041016
0.110166806666667, 230.532951818576, -0.000325572988034254, 2.195,418.878601074219
0.110832693333333, 230.539652473984, 4.08106089490972E-05, 2.2075,422.558074951172
0.111498731666667, 230.546722715662, -7.78349315919181E-05, 2.22125,411.968475341797
0.112165468333333, 230.553618588301, -7.51230677607295E-05, 2.235,415.976135253906
0.112832586666667, 230.560543903475, -0.000274967029814796, 2.24875,415.976135253906
0.113499, 230.567632867873, -0.000442610609253657, 2.26125,416.094055175781
0.11416582, 230.574712921299, -0.000640843652243575, 2.275,412.730529785156
0.114832461666667, 230.58178454535, -0.000774741926698082, 2.28875,411.906341552734
0.115498736666667, 230.588632195863, -0.000804605426710437, 2.30125,412.316772460938
0.116165168333333, 230.595242493038, -0.000673504511778105, 2.315,412.316772460938
0.116832725, 230.601778102679, -0.000559301748063432, 2.32875,416.210845947266
0.117498738333333, 230.608977345868, -0.000597093849789163, 2.34125,416.945648193359
0.118167046666667, 230.615832813162, -0.000447419367740666, 2.355,406.946228027344
0.11883293, 230.623164565015, -0.000520882677767108, 2.36875,408.970367431641
0.1194991, 230.630768901334, -0.000698070277820465, 2.38125,408.970367431641
0.12016738, 230.637996298072, -0.000517396852837568, 2.395,418.190490722656
0.120833371666667, 230.645166075544, -0.00044801033806182, 2.4075,412.137878417969
0.121498876666667, 230.652322544312, -0.000218286376869471, 2.42125,402.822326660156
0.122166705, 230.659297365312, -1.43971180196873E-05, 2.435,410.958251953125
0.122832071666667, 230.666804745559, 4.98041572013262E-05, 2.44875,410.958251953125
0.12349882, 230.674678134244, -0.000166567474700287, 2.46125,400.974304199219
0.124165208333333, 230.68300743161, -0.000169855309566089, 2.475,478.254852294922
0.124831966666667, 230.691737761487, -0.000500089222257818, 2.4875,400.555572509766
0.12549866, 230.700164251139, -0.000475584953073484, 2.50125,399.000366210938
0.126166636666667, 230.708735931044, -0.000480482207057776, 2.515,399.000366210938
0.126832261666667, 230.717605876676, -8.27546845060218E-05, 2.5275,396.928588867188
0.127500078333333, 230.726306533552, 0.00016102807054103, 2.54,395.213592529297
0.12816518, 230.734749159618, 0.000612884874266848, 2.5525,393.772796630859
0.128832136666667, 230.744046807617, 0.000493601865726924, 2.56625,407.15478515625
0.12949891, 230.752797222005, 0.00085786606910339, 2.58,407.15478515625
0.130165375, 230.762082794851, 0.00039856213944015, 2.5925,389.490356445313
0.13083247, 230.77076343991, 0.000287807702502429, 2.60625,391.85546875
0.13149881, 230.779965546076, 2.75542747351536E-05, 2.62,391.683807373047
0.132165491666667, 230.789000066051, -4.38196402149765E-05, 2.6325,396.759979248047
0.132832065, 230.798395834399, -0.00034190116789366, 2.64625,396.759979248047
0.13349924, 230.807406319889, -0.000230855745600452, 2.66,391.712890625
0.134166763333333, 230.817156026396, -0.000435085487311029, 2.6725,394.474090576172
0.13483218, 230.826408619029, -0.00032422905553514, 2.68625,398.488800048828
0.1354987, 230.835648420979, -0.000248971835624844, 2.69875,400.830627441406
0.136165478333333, 230.84459656517, -0.000345679478103089, 2.7125,400.830627441406
0.136832045, 230.853694967486, -0.000172145694512437, 2.725,404.998474121094
0.1374988, 230.862605828092, -0.000285632994159231, 2.7375,402.806457519531
0.138165153333333, 230.871444564502, -0.000538155810213107, 2.75125,408.414337158203
0.138832258333333, 230.879942084393, -0.000637855802364696, 2.765,387.708435058594
0.139499335, 230.888360533776, -0.00042510798848023, 2.7775,387.708435058594
0.140165178333333, 230.896623161273, -0.000341761674881649, 2.79125,396.538482666016
0.140832385, 230.904976306878, -0.000275345010913195, 2.805,473.206329345703
0.141498896666667, 230.913537209912, -4.25582035367875E-05, 2.8175,397.061584472656
0.142165736666667, 230.922954167864, -6.0431305807852E-05, 2.83125,387.827575683594
0.142832048333333, 230.932738623356, -0.000343069609195085, 2.845,387.827575683594
0.14349861, 230.942115619711, -0.000559900217985349, 2.8575,393.743774414063
0.144165466666667, 230.951979620295, -0.000502922579923163, 2.87125,391.707153320313
0.144832438333333, 230.961830670524, -0.000549345248153025, 2.885,393.544494628906
0.145498726666667, 230.971486569832, -0.000241004235770714, 2.89875,396.622192382813
0.146165485, 230.981823777363, -0.00022230917479914, 2.91125,396.622192382813
0.146831965, 230.992100263643, -0.000232033186405788, 2.925,385.5439453125
0.147499031666667, 231.001717661579, -0.000118637382147593, 2.9375,385.283386230469
0.148165341666667, 231.012071857063, -0.00036428904334117, 2.95125,380.035736083984
0.148832093333333, 231.021925689361, -0.000412231135267836, 2.96625,380.035736083984
0.149499356666667, 231.031464263583, -0.000475988432801723, 2.97875,381.020812988281
0.150165803333333, 231.040938843182, -0.000441248677746721, 2.9925,389.233032226563
0.150832035, 231.050669717477, -0.000692670549076064, 3.00625,384.072326660156
0.15149927, 231.060464203446, -0.000674201976710636, 3.01875,383.916381835938
0.152165276666667, 231.070437014366, -0.000912622501080861, 3.03125,389.915649414063
0.152832045, 231.080000476722, -0.000708053776348877, 3.04625,389.915649414063
0.153498686666667, 231.090355735937, -0.000673080033065712, 3.05875,381.449615478516
0.154165473333333, 231.100267522733, -0.000738725735699604, 3.07125,380.314605712891
0.154832555, 231.109894327935, -0.000628677763304595, 3.08625,380.889495849609
0.15549876, 231.119310287566, -0.000607500327041801, 3.09875,385.278167724609
0.156165166666667, 231.129410809266, -0.000725275911301403, 3.1125,385.278167724609
0.156832106666667, 231.138767779575, -0.000877557262345335, 3.125,393.591613769531
0.157499341666667, 231.14835159925, -0.000840797108821587, 3.13875,463.056671142578
0.158165503333333, 231.157845850258, -0.000753098013839604, 3.1525,384.712768554688
0.158832426666667, 231.167566015743, -0.000576906363781297, 3.16625,380.818756103516
0.159498825, 231.176162851717, -0.000195160538488034, 3.17875,380.818756103516
0.160165743333333, 231.185761983924, 1.4333938834413E-05, 3.1925,379.607635498047
