Time (min), Depth (µm), Load (N), Position (µm), Acoustic (aJ)
9.40833333333333E-06, 229.160335994781, -0.000480479435882032, 0,658.136047363281
0.000666415, 229.16014767853, -0.000750905352652529, 0.00625,674.452697753906
0.00133229833333333, 229.161103516659, -0.000773179233824137, 0.01875,672.263793945313
0.00200214833333333, 229.163775585395, -0.000729354435149562, 0.035,672.263793945313
0.00266590333333333, 229.168603542066, -0.000526048646998916, 0.05,671.334045410156
0.00333244666666667, 229.174345499152, -0.000375984184584318, 0.0625,534.377868652344
0.00399878, 229.182454325633, -0.000196384705665441, 0.07625,668.5498046875
0.00466554, 229.189900643272, 9.85184816288784E-05, 0.09,674.022277832031
0.00533223333333333, 229.19705136715, -0.000163525856109682, 0.10375,674.022277832031
0.00599978666666667, 229.202469378894, -2.82401513483665E-05, 0.1175,677.901977539063
0.006666205, 229.206790205516, 0.000112505279112225, 0.13,677.216735839844
0.00733376666666667, 229.21138140286, 0.000201204823841214, 0.14375,680.024230957031
0.00799877833333333, 229.217341834601, -0.000213569342507885, 0.15625,821.725524902344
0.00866556666666667, 229.223810862101, 0.000197708499440851, 0.17125,821.725524902344
0.009332855, 229.231702618447, 0.000221845287040117, 0.18375,680.312377929688
0.00999941666666667, 229.240716687807, 0.000188459963955052, 0.19625,685.082580566406
0.0106661566666667, 229.249988592715, 0.000449478353274259, 0.21,693.380554199219
0.011332335, 229.259628589899, 0.00056109674683829, 0.2225,699.348876953125
0.0119987983333333, 229.269331147133, 0.000438464406510776, 0.23625,699.348876953125
0.0126655466666667, 229.279459617574, 0.00018248426413353, 0.25,692.827514648438
0.013332375, 229.289890114666, 0.000213900186137052, 0.2625,705.993591308594
0.01399879, 229.300031680805, -0.000195292760529836, 0.27625,699.632690429688
0.0146656566666667, 229.310387771936, -0.000169047078837016, 0.29,709.531555175781
0.0153322916666667, 229.321092716821, -0.000206701187475138, 0.3025,709.531555175781
0.0159987966666667, 229.331809366976, -0.000184580298592662, 0.31625,712.09228515625
0.01666582, 229.342612526567, -0.000152591405339571, 0.32875,712.342163085938
0.01733235, 229.353605736829, -0.000215591240943543, 0.3425,720.458679199219
0.0179987966666667, 229.364629213751, -0.000193846833128793, 0.35625,722.369873046875
0.018665685, 229.375347967667, -0.000110407524195955, 0.37,722.369873046875
0.0193328483333333, 229.386466420288, 1.25727986356231E-05, 0.3825,717.390808105469
0.019998855, 229.398360589974, -0.000266396689002364, 0.39625,722.521545410156
0.0206658066666667, 229.410246193773, -0.000527751061430409, 0.40875,728.048706054688
0.0213322966666667, 229.422101741808, -0.000837400008126156, 0.4225,722.258239746094
0.021998935, 229.434062608785, -0.000920717823139821, 0.43625,722.258239746094
0.022665605, 229.446078177392, -0.00112807340788065, 0.45,729.058776855469
0.0233326266666667, 229.457179770875, -0.00109528055504114, 0.4625,728.714782714844
0.0239988083333333, 229.468188768714, -0.000614547201772852, 0.47625,728.2744140625
0.0246655833333333, 229.479475895668, -0.000327769106352497, 0.48875,872.473754882813
0.0253324166666667, 229.490920943249, -0.000568499514728821, 0.50375,872.473754882813
0.02599882, 229.502529640719, -0.000582927290050487, 0.51625,729.263610839844
0.0266661583333333, 229.514038433469, -0.000724518678044549, 0.53,730.972534179688
0.0273323083333333, 229.525885401529, -0.00070176332101197, 0.54375,723.050903320313
0.0279988016666667, 229.537156702963, -0.000850411854534844, 0.55625,728.532775878906
0.0286655233333333, 229.548501625969, -0.000824937134112823, 0.57,728.532775878906
0.029332145, 229.559722660967, -0.000962276235701009, 0.58375,724.637451171875
0.0299987866666667, 229.576881404186, -0.000905706577161525, 0.6,723.197692871094
0.0308323816666667, 229.587656343586, -0.00106235270896283, 0.6125,725.162963867188
0.0314987716666667, 229.599342872405, -0.000785550612448872, 0.62625,729.151550292969
0.032165625, 229.610374516562, -0.000772430771419387, 0.64,729.2451171875
0.03283245, 229.621630043363, -0.00040962599474234, 0.65375,729.2451171875
0.033498765, 229.632876435928, -0.000388160572930359, 0.6675,724.410888671875
0.034165775, 229.644418504343, -0.000350018988733653, 0.68,722.443420410156
0.03483266, 229.655324008932, -0.000466213652374663, 0.69375,725.379821777344
0.0354988483333333, 229.666786853482, -0.000227286153449867, 0.70625,722.891845703125
0.03616633, 229.677841709456, -0.000269693523329569, 0.72,722.891845703125
0.0368324233333333, 229.689445152741, -0.000376477659691736, 0.73375,728.723022460938
0.03749895, 229.701031421933, -0.00059749155838658, 0.74625,720.002319335938
0.0381657316666667, 229.712595711038, -0.000596990583593383, 0.76,713.909362792969
0.038832355, 229.724561581031, -0.000690983362412887, 0.7725,723.279846191406
0.0394988666666667, 229.735960232822, -0.000726293088889906, 0.78625,723.279846191406
0.0401656616666667, 229.747224518544, -0.000284572776045395, 0.8,720.228149414063
0.0408328233333333, 229.758193833004, -0.000249857019780845, 0.8125,710.692138671875
0.041498795, 229.769755146505, -0.000417445101953023, 0.82625,856.171813964844
0.04216577, 229.780810016554, -0.000650146413617191, 0.83875,719.010803222656
0.0428322916666667, 229.792144196701, -0.000704079204609412, 0.8525,719.010803222656
0.043498925, 229.803136191887, -0.00109963033651197, 0.86625,713.130554199219
0.0441658933333333, 229.814487121529, -0.000842957228911644, 0.87875,713.313781738281
0.04483232, 229.82500242072, -0.000623761238933614, 0.89125,710.115783691406
0.0454987633333333, 229.835285450351, -0.000235097761081042, 0.905,715.605407714844
0.0461654483333333, 229.845775324641, -0.000387697096162227, 0.91875,715.605407714844
0.046832255, 229.855696406575, -0.000119158084588585, 0.9325,711.779663085938
0.0474989483333333, 229.865540871472, -0.000105640763549729, 0.945,716.888244628906
0.0481656816666667, 229.875363071318, -0.000241950916869756, 0.9575,715.839416503906
0.0489996516666667, 229.885101695133, -0.000391277416329173, 0.975,712.2236328125
0.0496660016666667, 229.895210754327, -0.000302286886244697, 0.9875,719.320861816406
0.05033232, 229.905274440484, -0.000672600285780953, 1.00125,719.320861816406
0.0510003933333333, 229.915022843754, -0.000684725676761045, 1.015,716.765869140625
0.0516660383333333, 229.925034816143, -0.000546936597745611, 1.0275,714.850830078125
0.05233238, 229.934974097482, -0.00059767004945433, 1.04,718.522094726563
0.0530003316666667, 229.944626104808, -0.000510791413269707, 1.05375,723.523071289063
0.0536662283333333, 229.954760278853, -0.000272534380638183, 1.06625,723.523071289063
0.0543334466666667, 229.965163650405, -0.000280269492124792, 1.08125,723.924194335938
0.05499875, 229.975361094808, -0.000212667887686478, 1.0925,726.459594726563
0.0556657616666667, 229.986040739718, -0.000264823267984535, 1.10625,726.841918945313
0.0563323133333333, 229.996754552153, -0.00031027248510665, 1.12,721.144958496094
0.0569993666666667, 230.007548544532, -0.000498495030907643, 1.13375,721.144958496094
0.05766712, 230.017779443062, -0.000438384050214445, 1.14625,862.431396484375
0.058332375, 230.028514265888, -0.000509133996485295, 1.16,722.119873046875
0.058999095, 230.038402493148, -0.000457020614091784, 1.1725,712.909240722656
0.059665735, 230.047991538849, -0.000146107230954058, 1.18625,714.280334472656
0.0603323033333333, 230.057476259523, 9.33047436592609E-05, 1.2,714.280334472656
0.06099896, 230.067487323659, 0.000366925499982558, 1.215,717.233276367188
0.0616659466666667, 230.077759232423, 0.000475491546875861, 1.22625,724.787231445313
0.0623323233333333, 230.088100088808, 0.000545167547103946, 1.24,725.071105957031
0.062999125, 230.098344597233, 0.00035416564093738, 1.25375,723.637878417969
0.0636656316666667, 230.107922917974, 0.000308920413555362, 1.2675,723.637878417969
0.0643323983333333, 230.117110322728, -0.000316981648046381, 1.28125,723.192138671875
0.0649987816666667, 230.125593929625, -0.000635915128371098, 1.295,723.400390625
0.0656663133333333, 230.134190425317, -0.000693812220220005, 1.3075,723.006774902344
0.0663323316666667, 230.142525487401, -0.000920738821932688, 1.32125,723.525390625
0.066998775, 230.150923484479, -0.000961031298106239, 1.33375,723.525390625
0.0676665416666667, 230.159468214957, -0.000788647956724173, 1.34875,718.829284667969
0.068332535, 230.16794685376, -0.000832084274978305, 1.36125,718.372314453125
0.0689989066666667, 230.175918878573, -0.00127773739030954, 1.37375,724.122192382813
0.0696660566666667, 230.184029635141, -0.0011324606873978, 1.3875,720.10595703125
0.07033228, 230.19201376943, -0.00127500902735243, 1.40125,720.10595703125
0.070999095, 230.1999915876, -0.00106771643943654, 1.415,722.547058105469
0.0716658866666667, 230.207442374926, -0.000980930798607425, 1.4275,723.02880859375
0.0723326566666667, 230.215099974175, -0.00032284185373136, 1.44125,727.550354003906
0.0729987916666667, 230.222127228339, -0.000180794488633692, 1.455,719.005554199219
0.073666185, 230.229910298444, -0.00019014351905451, 1.4675,719.005554199219
0.0743329383333333, 230.236727716836, -0.000150705999960848, 1.48125,863.552307128906
0.0749990933333333, 230.244058789656, -6.49283084795037E-05, 1.495,729.02880859375
0.0756656616666667, 230.251246955736, -0.000310353481024426, 1.5075,722.589233398438
0.07633292, 230.258989804163, -0.00057211883282398, 1.52125,722.863098144531
0.0769991, 230.26619883285, -0.000518840008977851, 1.535,722.863098144531
0.0776659266666667, 230.273534500625, -0.000501197895107396, 1.54875,719.810302734375
0.0783327633333333, 230.280584610971, -0.000497850063265464, 1.56125,717.890747070313
0.0789991833333333, 230.287420818692, -0.000688250499640053, 1.575,717.846069335938
0.0796656366666667, 230.294323877966, -0.000665421646311715, 1.58875,720.232177734375
0.0803330383333333, 230.3007670365, -0.000727142046144658, 1.60125,720.232177734375
0.0809993183333333, 230.307763069953, -0.000990924796627914, 1.615,726.214721679688
0.0816660283333333, 230.315410254781, -0.00118904534524508, 1.62875,726.885986328125
0.0823329783333333, 230.323369644946, -0.00135208565588269, 1.64125,728.432067871094
0.0829987816666667, 230.331144850673, -0.00139090520605844, 1.65375,726.634155273438
0.0836656166666667, 230.339859188002, -0.00159949372885004, 1.6675,726.634155273438
0.0843324033333333, 230.348221599277, -0.00140724088551861, 1.68125,729.100219726563
0.084998995, 230.356300316772, -0.00155957773380797, 1.69375,728.733764648438
0.08566572, 230.364857221377, -0.00152348954648065, 1.7075,722.130554199219
0.0863329666666667, 230.373136819973, -0.00176267203259651, 1.72,725.100524902344
0.08699911, 230.381356676173, -0.00138209314868026, 1.73375,725.100524902344
0.087665925, 230.389805955529, -0.00170345800684523, 1.7475,725.855041503906
0.0883328616666667, 230.398406616854, -0.00162483345605451, 1.76,727.98046875
0.0889995166666667, 230.406824353912, -0.00178873322352396, 1.77375,722.161804199219
0.0896654533333333, 230.415618164642, -0.00150217111723893, 1.78625,728.231872558594
0.0903327166666667, 230.423712181131, -0.00175594037070571, 1.8,728.231872558594
0.0909988833333333, 230.432179443936, -0.00166654036117413, 1.81375,864.186462402344
0.0916662966666667, 230.439618656647, -0.00162301554740146, 1.82625,721.957092285156
0.0923322583333333, 230.447423622943, -0.00168612037771366, 1.83875,723.804504394531
0.0929988266666667, 230.454843349361, -0.00174298102167239, 1.8525,716.76806640625
0.0936662383333333, 230.462659468233, -0.00168311902845139, 1.86625,716.76806640625
0.0943324133333333, 230.47011980831, -0.00167590889063344, 1.88,726.03759765625
0.0949988216666667, 230.478222790152, -0.00166045066709796, 1.8925,725.43115234375
0.0956658866666667, 230.48582523836, -0.00144667540480597, 1.905,728.051635742188
0.0963322766666667, 230.493402782121, -0.00113652998311149, 1.92,719.688293457031
0.0969987916666667, 230.501077140482, -0.00123781239582733, 1.93125,719.688293457031
0.0976662166666667, 230.509093602754, -0.0011950330445681, 1.945,722.17138671875
0.0983326933333333, 230.516989037863, -0.00130987327626042, 1.95875,719.905639648438
0.0989988733333333, 230.524805154192, -0.00109667848477626, 1.97125,712.862670898438
0.099666175, 230.53293475064, -0.00145880079574356, 1.985,708.171752929688
0.100332311666667, 230.540693474813, -0.00107422611251565, 1.99875,708.171752929688
0.100999118333333, 230.548171698708, -0.00115716144674272, 2.0125,715.375122070313
0.101666031666667, 230.555377139293, -0.000661439346340934, 2.025,716.8408203125
0.10233245, 230.562597730012, -0.000870450847899261, 2.03875,713.65478515625
0.103000218333333, 230.570056402355, -0.000782930243985028, 2.05125,720.050109863281
0.103666408333333, 230.576856695289, -0.000972148739738563, 2.065,720.050109863281
0.104332335, 230.583888327314, -0.000818026981133022, 2.07875,720.973876953125
0.104998891666667, 230.591127005993, -0.00103953735489036, 2.09125,720.882995605469
0.105666125, 230.598442355824, -0.0010886013904832, 2.105,713.521667480469
0.106332671666667, 230.605511263343, -0.00131536750028474, 2.11875,720.029968261719
0.106998738333333, 230.612979762952, -0.000987989444145656, 2.1325,720.029968261719
0.10766646, 230.619514947388, -0.00126286113763381, 2.14625,855.733581542969
0.108332311666667, 230.626194838148, -0.00141281760544887, 2.15875,712.914672851563
0.108998848333333, 230.632458704987, -0.00130574398363436, 2.17125,722.098876953125
0.10966559, 230.638621307487, -0.0010620227255091, 2.18625,715.576354980469
0.110332686666667, 230.645043664382, -0.00144253111297839, 2.2,715.576354980469
0.111000245, 230.651928930137, -0.00149828031272051, 2.2125,714.227294921875
0.111665645, 230.658379201316, -0.00153898976794193, 2.225,711.204528808594
0.112332571666667, 230.665672771908, -0.00162973970964898, 2.24,720.926086425781
0.112999208333333, 230.672416568789, -0.00177024815203261, 2.2525,718.014343261719
0.113665708333333, 230.679614357654, -0.00218380437955372, 2.26625,718.014343261719
0.114332338333333, 230.686392592753, -0.00203379391441764, 2.27875,718.589172363281
0.114998858333333, 230.693307397691, -0.00213220097154233, 2.2925,720.942016601563
0.115665651666667, 230.699548696302, -0.00203777621438842, 2.30625,714.984191894531
0.116332116666667, 230.706390773059, -0.00200548733623342, 2.32,712.851928710938
0.116998826666667, 230.7124995041, -0.00153021520865258, 2.3325,712.851928710938
0.117666251666667, 230.719427552507, -0.00142500599321139, 2.34625,714.734191894531
0.118332791666667, 230.726295925865, -0.0013835615749261, 2.35875,707.027465820313
0.118999343333333, 230.733371471074, -0.0013654229859719, 2.3725,714.808715820313
0.11966584, 230.739869192374, -0.000991589263223573, 2.38625,705.786254882813
0.120332476666667, 230.747312424467, -0.00140270961306746, 2.4,705.786254882813
0.120998786666667, 230.754040081592, -0.00136904380405522, 2.4125,703.198425292969
0.121666383333333, 230.761122131452, -0.00109134175272928, 2.425,712.382507324219
0.122332351666667, 230.767902584705, -0.00128725591218793, 2.44,712.306030273438
0.122998913333333, 230.775552138354, -0.00135585346660004, 2.4525,704.215026855469
0.123665408333333, 230.782734176495, -0.00111229870012604, 2.465,704.215026855469
0.124332375, 230.790090392986, -0.000955660067946755, 2.48,844.567932128906
0.124999105, 230.797106508073, -0.000997738954382143, 2.49125,695.362976074219
0.125665621666667, 230.804118684625, -0.000769177434772352, 2.505,695.505310058594
0.126332736666667, 230.810746391016, -0.000660848376062289, 2.51875,698.221374511719
0.126998788333333, 230.817188353738, -0.00036129092251575, 2.53125,698.221374511719
0.127666331666667, 230.823222060096, -0.000461944866757844, 2.545,692.716552734375
0.1283323, 230.829880691036, -0.000139036586084363, 2.5575,705.580871582031
0.12899932, 230.836113134095, -9.86316155380594E-05, 2.57125,703.459350585938
0.129665538333333, 230.842399159418, -0.000196159716792411, 2.58375,696.435852050781
0.130332435, 230.848327865441, -0.000134800798783161, 2.5975,696.435852050781
0.130999111666667, 230.854835666803, 3.01377894712837E-06, 2.61,695.744323730469
0.131665538333333, 230.860908216771, -0.000120302527035796, 2.62375,704.862548828125
0.132332636666667, 230.86755232345, 2.00304241713916E-05, 2.63625,691.92431640625
0.13299896, 230.873810062189, 2.50896700762524E-05, 2.65,693.818420410156
0.133665643333333, 230.88081226686, -0.000163756844361513, 2.66375,693.818420410156
0.13433237, 230.887680779121, -0.000401103422710226, 2.67625,694.643493652344
0.13499897, 230.894373892502, -0.000538141039429595, 2.69,697.599731445313
0.135665655, 230.900947216117, -0.000517323585087345, 2.7025,699.415588378906
0.136332871666667, 230.907577894723, -0.00044949399205472, 2.71625,697.556518554688
0.136998968333333, 230.913661706975, -0.000441584889379842, 2.73,697.556518554688
0.137665703333333, 230.919899608474, -0.000520744913267545, 2.7425,708.131713867188
0.13833236, 230.925729577412, -0.000812825242367343, 2.755,702.780883789063
0.138998983333333, 230.931498111492, -0.000869483396489127, 2.76875,697.027587890625
0.139665696666667, 230.938001197177, -0.00101387664375732, 2.7825,839.703308105469
0.140332938333333, 230.945239962495, -0.00133028575086502, 2.795,839.703308105469
0.140999143333333, 230.952510769006, -0.00140375806041662, 2.81,689.625793457031
0.14166555, 230.960879937579, -0.00129939180268135, 2.8225,697.518798828125
0.142332353333333, 230.969941582555, -0.00136607245334478, 2.83625,696.713928222656
0.142999213333333, 230.979411203649, -0.00159937673472533, 2.84875,697.816589355469
0.143666086666667, 230.988424255846, -0.00154517545720116, 2.8625,697.816589355469
0.1443323, 230.998298746273, -0.00145198063829172, 2.87625,695.129211425781
0.144998783333333, 231.007949807422, -0.00127248315423226, 2.88875,695.018676757813
0.145666408333333, 231.018282087083, -0.00139130118616467, 2.9025,701.902954101563
0.146332246666667, 231.028220724935, -0.00137343108376366, 2.91625,688.893920898438
0.146998895, 231.039121786013, -0.00126732341345614, 2.92875,688.893920898438
0.147666861666667, 231.049733945581, -0.00149237810919475, 2.9425,697.250671386719
0.148332875, 231.060822916802, -0.00186239902342986, 2.95625,687.88671875
0.148999171666667, 231.070673176223, -0.00169933021416483, 2.97,688.820495605469
0.149665663333333, 231.081006075604, -0.00163199859616161, 2.9825,692.300476074219
0.150333036666667, 231.090792568552, -0.00153077918033447, 2.99625,692.300476074219
0.15100025, 231.100736594358, -0.00129132520785912, 3.01,689.450805664063
0.151666278333333, 231.110342833424, -0.000969951350126471, 3.0225,695.721557617188
0.152332366666667, 231.120588287912, -0.00104747795606272, 3.03625,692.407043457031
0.15299916, 231.130736243568, -0.00108380613133708, 3.05,690.980895996094
0.153666145, 231.141319726204, -0.0014038345566037, 3.06375,690.980895996094
0.15433296, 231.150824972888, -0.000935286591270378, 3.0775,691.841613769531
0.154999105, 231.16099954672, -0.00075999939575476, 3.09,689.793212890625
0.155665666666667, 231.171174748923, -0.000937266491822744, 3.10375,691.165771484375
0.156332411666667, 231.181389424853, -0.000763522718815636, 3.11625,831.441467285156
0.156998808333333, 231.191370758723, -0.000318505571580157, 3.13,831.441467285156
0.157666333333333, 231.201927627878, -0.000843939679565811, 3.14375,690.509155273438
0.158332303333333, 231.212037164073, -0.000835649595986234, 3.15625,692.441162109375
0.158998773333333, 231.222720619364, -0.000566863096822293, 3.17,687.825988769531
0.159666245, 231.232268472306, -0.000793452215501734, 3.18375,691.825805664063
0.160332381666667, 231.242459246928, -0.00100353316335087, 3.19625,691.825805664063
