Time (min), Depth (µm), Load (N), Position (µm), Acoustic (aJ)
8.885E-06, 229.130588848299, 0.000387041995448975, 0,711.871154785156
0.000665706666666667, 229.131369277615, -4.06675211642459E-05, 0.005,704.778015136719
0.00133075333333333, 229.132230716792, -2.05085337200427E-05, 0.01875,709.587341308594
0.00199774666666667, 229.133855904299, 0.000235111626757913, 0.035,711.902282714844
0.00266430166666667, 229.136772164024, 0.000394475622088021, 0.05,711.902282714844
0.003330805, 229.139854350885, 0.000226941537151851, 0.0625,720.710144042969
0.00399762833333333, 229.143513995976, 0.000422464216277492, 0.075,859.833679199219
0.004664425, 229.146536937777, 0.000118847966594353, 0.09,718.63720703125
0.00533083, 229.14994262071, -0.000269400032092246, 0.10375,717.650573730469
0.005998085, 229.152375656706, -0.000524352726104482, 0.11625,717.650573730469
0.00666449833333333, 229.15630600173, -0.00039812506636599, 0.13,722.7861328125
0.00733076, 229.161658300416, -0.000678775969536332, 0.14375,720.606872558594
0.00799780666666667, 229.168868218195, -0.000620946374285571, 0.15625,721.072570800781
0.00866411166666667, 229.177474540903, -0.000507853554841851, 0.17,726.944519042969
0.00933109, 229.187397579851, -0.000594714191933634, 0.1825,726.944519042969
0.00999751833333333, 229.197210406668, -0.000433542787421298, 0.19625,721.727966308594
0.010664295, 229.207004370427, -0.000117531160386734, 0.20875,729.934204101563
0.0113307716666667, 229.216967467334, 0.000114084205818188, 0.2225,728.863159179688
0.0119974916666667, 229.227095972041, 0.000129062453502121, 0.23625,728.142150878906
0.0126644683333333, 229.237593566347, 0.000620536767271246, 0.25,728.142150878906
0.0133307966666667, 229.24817636786, 0.000504277606838387, 0.26125,736.511413574219
0.0139974866666667, 229.259237383196, 0.000139194444610218, 0.27625,734.727355957031
0.0146649633333333, 229.270296414762, -0.000141064978312128, 0.28875,740.86181640625
0.0153308233333333, 229.2806662869, -0.000313331325548232, 0.3025,739.295166015625
0.0159980983333333, 229.291314646133, -0.000617882028325888, 0.31625,739.295166015625
0.016665765, 229.302094261333, -0.000760802349575031, 0.32875,745.68994140625
0.0173311816666667, 229.312166561581, -0.000223113857110605, 0.34125,739.588806152344
0.017997585, 229.323173450023, -0.000236437687837679, 0.355,747.918395996094
0.01866417, 229.334226494203, -0.000302069891236958, 0.36875,744.457763671875
0.0193313816666667, 229.345451149368, -0.000184639289653868, 0.3825,744.457763671875
0.0199975383333333, 229.35701492723, -7.86276145081573E-05, 0.395,745.327819824219
0.0206641566666667, 229.369489291891, -0.000701721817116903, 0.40875,900.041076660156
0.0213308, 229.380626420539, -0.000577546054344642, 0.4225,748.804382324219
0.0219976833333333, 229.392140362156, -0.000576557603971608, 0.43625,756.491882324219
0.0226644833333333, 229.403291475954, -0.000635009667977246, 0.45,756.491882324219
0.0233307983333333, 229.414604864095, -0.000269739015156161, 0.4625,749.544616699219
0.0239975666666667, 229.425425831121, -2.17549711541992E-05, 0.475,753.62158203125
0.0246656466666667, 229.4369724682, 0.00013437068679416, 0.49,746.656677246094
0.0253308316666667, 229.44884828751, 0.000325206101330711, 0.50375,741.309326171875
0.02599767, 229.460792342605, 0.00037286620744831, 0.51625,741.309326171875
0.0266651166666667, 229.472651717329, 0.000197513015280203, 0.53,750.165588378906
0.02733082, 229.484782199924, 0.000180233883221608, 0.5425,750.183654785156
0.0279975133333333, 229.496879415047, 0.000155501625527978, 0.55625,746.979431152344
0.0286647116666667, 229.508800657656, 0.000260437854685266, 0.56875,749.297119140625
0.0293312833333333, 229.520396136973, 0.000389965348642277, 0.58375,749.297119140625
0.029997575, 229.532510307873, 0.000200844347974954, 0.59625,746.487854003906
0.030665065, 229.543800276126, 0.000496368504099746, 0.61,745.155395507813
0.0313311383333333, 229.5554550834, 0.00054601151057601, 0.62375,746.441589355469
0.0319977116666667, 229.566739066678, 0.000576237992357716, 0.63625,749.193237304688
0.03266434, 229.579047682716, 0.000230307368086623, 0.65,749.193237304688
0.0333310133333333, 229.59014726606, 0.000490176815121647, 0.6625,748.495910644531
0.033997715, 229.601973449241, 0.000452137225826872, 0.67625,750.786682128906
0.03466414, 229.613228931644, 0.000302279753022431, 0.69,742.130798339844
0.035330825, 229.624097495874, 0.000621871700245194, 0.7025,742.476928710938
0.0359975616666667, 229.634744276577, 0.000785823965090015, 0.71625,742.476928710938
0.0366643233333333, 229.645863006537, 0.000712389153627235, 0.72875,742.982788085938
0.0373308516666667, 229.656943383006, 0.000626110487310186, 0.7425,895.175598144531
0.0379976533333333, 229.668211396347, 0.000884758995668418, 0.75625,746.598388671875
0.0386643483333333, 229.680151593645, 0.000364340635716168, 0.77,738.705993652344
0.0393308916666667, 229.692279917119, 0.000421085785453341, 0.7825,738.705993652344
0.0399992066666667, 229.704137378964, 0.000265191115905592, 0.79625,737.86767578125
0.0406641433333333, 229.715625262444, 0.000500410801089166, 0.80875,742.374267578125
0.0413308666666667, 229.727344811267, 0.00018414118699348, 0.8225,734.024047851563
0.041998275, 229.738971961684, 0.000196373072606203, 0.83625,739.141540527344
0.0426648433333333, 229.750215889043, 0.000223577206141483, 0.84875,739.141540527344
0.04333097, 229.761583858541, 0.000124844665378775, 0.86125,737.039123535156
0.043997625, 229.773137580463, -0.000218948566235102, 0.875,739.507080078125
0.0446642533333333, 229.783989667138, 0.000196715055412654, 0.88875,730.000122070313
0.0453308483333333, 229.794886687579, 0.000512459695882183, 0.90125,732.885559082031
0.0459982266666667, 229.805659047157, 0.000315833072246966, 0.91625,732.885559082031
0.0466647433333333, 229.816178630816, 0.00060696244912632, 0.9275,731.587707519531
0.0473308983333333, 229.826525604096, 0.000555849516437306, 0.94125,736.649658203125
0.047998285, 229.837283023526, 0.000243941683250187, 0.955,736.244384765625
0.0486643416666667, 229.848111180393, -2.37903688669774E-05, 0.9675,731.715698242188
0.0493308366666667, 229.858156958325, -0.000206167708269532, 0.98125,731.715698242188
0.0499978666666667, 229.868296098304, -0.000315611211023758, 0.99375,733.337646484375
0.05066482, 229.878387302441, -0.000187346653605576, 1.0075,740.364807128906
0.0513308283333333, 229.888314959806, 1.29622850985163E-05, 1.02,741.525817871094
0.0519975333333333, 229.897720478495, -7.85256195637193E-05, 1.03375,740.355895996094
0.0526641716666667, 229.908175130098, -0.000124901790137081, 1.0475,740.355895996094
0.05333104, 229.918537027302, -0.000222506387557253, 1.06,891.700622558594
0.05399815, 229.929427199871, -0.000454838717775711, 1.07375,735.865112304688
0.0546644666666667, 229.93982603578, -0.000818960428333868, 1.08625,743.318298339844
0.0553311416666667, 229.950480966534, -0.000896311543051177, 1.1,752.138305664063
0.055997615, 229.960266560583, -0.000736088090889224, 1.1125,752.138305664063
0.05666436, 229.970022983662, -0.000619272458375232, 1.12625,744.962890625
0.0573314, 229.978986686075, -0.000401618390938801, 1.14,741.080383300781
0.0579976816666667, 229.988809490241, -0.000302162886486197, 1.1525,744.41845703125
0.058664155, 229.998041517361, -0.000209020564952119, 1.16625,739.697448730469
0.059331135, 230.007467187363, -0.000104445817639778, 1.18,739.697448730469
0.0599983366666667, 230.016297154126, 0.000113563731965242, 1.1925,738.175170898438
0.0606642083333333, 230.026001205403, -1.61317535674429E-05, 1.21,736.977661132813
0.0613308066666667, 230.035681395791, -4.818514354862E-05, 1.22,739.043151855469
0.061998305, 230.045349926575, -2.27149228998088E-05, 1.2325,743.237976074219
0.062664245, 230.05454528406, -0.000197694633806488, 1.2475,743.237976074219
0.0633311566666667, 230.064059448431, -0.000694628673359905, 1.26,741.29638671875
0.0639984683333333, 230.072410766914, -0.000746613062233482, 1.27375,747.570373535156
0.0646648016666667, 230.079713023724, -0.000456178150437853, 1.28625,743.717407226563
0.0653314283333333, 230.086558771865, -0.000455234697818171, 1.3,735.956237792969
0.0659975166666667, 230.09377031055, -0.000341564407372926, 1.315,735.956237792969
0.066664145, 230.100761652829, -0.000185872227598362, 1.32625,743.82421875
0.067332485, 230.107670494469, -0.00019188392564807, 1.34,751.87890625
0.0679975133333333, 230.114878880556, -0.000210880471445954, 1.355,741.287719726563
0.0686641816666667, 230.122574976748, -0.000240440986686342, 1.3675,744.048034667969
0.0693307616666667, 230.1304424434, -9.18419506687767E-05, 1.38125,744.048034667969
0.0699979066666667, 230.138362415987, 7.66910841112496E-05, 1.39375,889.022705078125
0.0706648033333333, 230.146820131989, 0.000116112104015221, 1.4075,740.71142578125
0.071331045, 230.155023897154, -0.00041008096586726, 1.42125,741.522827148438
0.0719976933333333, 230.163298179818, -0.000492413330399207, 1.435,736.974426269531
0.0726641883333333, 230.170859032463, -0.000738373976041108, 1.4475,736.974426269531
0.0733309, 230.178839860998, -0.000834400652734004, 1.46125,740.848083496094
0.0739985633333333, 230.186419879472, -0.00100400913345994, 1.47375,744.103454589844
0.0746643666666667, 230.19393291229, -0.000602500300849954, 1.4875,738.233581542969
0.0753308133333333, 230.20135005533, -0.000551747350102739, 1.50125,740.85595703125
0.0759982366666667, 230.208629040986, -0.000295609715641896, 1.515,740.85595703125
0.0766649316666667, 230.215873695394, -0.000348275070322077, 1.5275,747.834777832031
0.0773329966666667, 230.223384837026, -0.000178554095223384, 1.54125,749.768737792969
0.0779993466666667, 230.230825973579, -0.000425651683775496, 1.55375,742.755981445313
0.078666315, 230.238813106934, -0.000604039223564, 1.56875,740.085815429688
0.0793323816666667, 230.246801399538, -0.000935281085603497, 1.58125,740.085815429688
0.0799997833333333, 230.255087576466, -0.000880890817583267, 1.595,746.731262207031
0.0806657616666667, 230.263175365715, -0.00118053976653966, 1.6075,741.136535644531
0.0813384283333333, 230.27155510699, -0.00136253912488632, 1.62125,741.290954589844
0.0820053233333333, 230.279450348965, -0.00111836488946375, 1.635,741.541870117188
0.0826718116666667, 230.28818548516, -0.0012822181592767, 1.6475,741.541870117188
0.0833382983333333, 230.296029473043, -0.0015930715454383, 1.66125,744.091430664063
0.08400534, 230.303888940504, -0.00160599789613474, 1.675,752.590148925781
0.0846732, 230.311771536083, -0.00159847277412835, 1.6875,742.37548828125
0.0853383316666667, 230.319208317654, -0.00142241761719074, 1.7,746.108581542969
0.0860056916666667, 230.326456666043, -0.00120615697971623, 1.71375,746.108581542969
0.0866718766666667, 230.333878431451, -0.000944625616208597, 1.72625,893.252319335938
0.0873384566666667, 230.34155743522, -0.00106103176925423, 1.74,742.765930175781
0.08800553, 230.348782480605, -0.000902323241037123, 1.75375,748.060180664063
0.088672065, 230.356412677239, -0.00119930232410938, 1.76625,734.90966796875
0.0893384183333333, 230.363843271101, -0.00129359208804574, 1.78,734.90966796875
0.0900049966666667, 230.371340770135, -0.00137035673221511, 1.7925,739.046691894531
0.0906721083333333, 230.378476944461, -0.00134904430271351, 1.80625,742.446533203125
0.09133848, 230.385977861618, -0.0011735546173822, 1.82,739.363403320313
0.092004985, 230.393419665338, -0.00141151166504806, 1.83375,742.67724609375
0.092671645, 230.400509866059, -0.00104212371901739, 1.84625,742.67724609375
0.09333842, 230.407964290319, -0.00130917330540355, 1.85875,735.960815429688
0.0940051533333333, 230.415072123742, -0.00085023685728287, 1.8725,736.824035644531
0.0946727716666667, 230.42219777049, -0.00111400460850084, 1.885,747.382751464844
0.0953384333333333, 230.429184230914, -0.000731181837273495, 1.9,740.361999511719
0.096005235, 230.436644087004, -0.00110859138037305, 1.9125,740.361999511719
0.0966717533333333, 230.443334795965, -0.000510535420099958, 1.925,741.381713867188
0.097338505, 230.450545375541, -0.000634222207452995, 1.93875,744.178649902344
0.098005205, 230.457775780357, -0.00077592758978672, 1.95125,737.67578125
0.0986718083333333, 230.464832982046, -0.000972908195623615, 1.965,736.353759765625
0.09933844, 230.471829241209, -0.000826385055341478, 1.97875,736.353759765625
0.100005005, 230.478953045766, -0.00138975375789242, 1.99125,724.273254394531
0.100671848333333, 230.486305605174, -0.00148241310370489, 2.005,733.584167480469
0.101338353333333, 230.492772516617, -0.00111149523448534, 2.01875,734.856567382813
0.102006165, 230.49995569011, -0.00130107971187829, 2.03125,728.286315917969
0.102672543333333, 230.506856108119, -0.0013369804086127, 2.045,728.286315917969
0.103339255, 230.514125329171, -0.0012408322380644, 2.05875,880.810974121094
0.104005015, 230.520691432233, -0.00107411561205553, 2.0725,736.026916503906
0.104672015, 230.528432652979, -0.00127813686427405, 2.085,734.61328125
0.105338535, 230.535290087565, -0.000904957108693071, 2.09875,735.60888671875
0.106005916666667, 230.54279474293, -0.000752138784627756, 2.11125,735.60888671875
0.106671698333333, 230.549682127018, -0.000540499415089839, 2.125,735.441467285156
0.107338418333333, 230.557163353188, -0.000684609176667069, 2.13875,727.295715332031
0.10800512, 230.563952293313, -0.000524507218403034, 2.1525,741.993225097656
0.108671996666667, 230.57142807031, -0.000595434155795977, 2.16625,736.075927734375
0.109338336666667, 230.577976768599, -0.000626866576946681, 2.17875,736.075927734375
0.110005171666667, 230.584952655235, -0.000804882135355652, 2.19125,740.787353515625
0.110671906666667, 230.591835999933, -0.000913580175532679, 2.205,730.826232910156
0.111338305, 230.599076700535, -0.000686106101327791, 2.21875,731.805725097656
0.112005521666667, 230.605630657415, -0.000455248197095292, 2.2325,733.323974609375
0.112671833333333, 230.612855597484, -0.000453314794220681, 2.24625,733.323974609375
0.113338583333333, 230.619865893104, -9.71681830961632E-05, 2.25875,730.611938476563
0.11400513, 230.627161050367, 0.000436521510229046, 2.2725,735.09228515625
0.11467175, 230.634741086656, 0.000180317879051952, 2.285,734.140563964844
0.11533842, 230.642551621255, 7.27157095612173E-06, 2.29875,732.371948242188
0.116005988333333, 230.650088406409, -2.67742928976117E-06, 2.3125,732.371948242188
0.116672031666667, 230.658431704745, -0.000220577484434598, 2.325,731.120361328125
0.117338326666667, 230.66624518973, -0.000478102549180994, 2.34,734.628356933594
0.118005341666667, 230.673998002729, -0.000152621897688336, 2.3525,736.429138183594
0.118673428333333, 230.681543155397, -4.18134634933512E-05, 2.36625,722.71044921875
0.11933852, 230.68916699809, 3.29202826939371E-05, 2.38,722.71044921875
0.120005418333333, 230.696741376981, -0.000112686403607777, 2.3925,878.308837890625
0.12067189, 230.70481631955, -0.000383185816695288, 2.405,722.197326660156
0.121338368333333, 230.712650518895, -0.000606907079426857, 2.42,724.974609375
0.122005761666667, 230.721157462066, -0.000835167114167831, 2.4325,724.954162597656
0.122671731666667, 230.729509227908, -0.000801678296256433, 2.445,724.954162597656
0.123338306666667, 230.737201247929, -0.000309014542265492, 2.45875,723.439575195313
0.124005173333333, 230.744839166687, 0.0001194779349925, 2.4725,724.037475585938
0.124672038333333, 230.752446597192, 0.000169447925052436, 2.485,719.436889648438
0.125338528333333, 230.760530709641, 0.000172759758687436, 2.49875,722.696411132813
0.126005726666667, 230.768573435044, 0.000179615914282449, 2.51125,722.696411132813
0.126672191666667, 230.776775577727, 2.06119008941395E-05, 2.525,719.427734375
0.12733827, 230.784778871831, 0.000126949059699119, 2.5375,723.423950195313
0.128004996666667, 230.792901918749, 0.000398415924218019, 2.55125,722.237915039063
0.12867185, 230.800576288541, 0.000927058371033593, 2.565,718.274719238281
0.12933866, 230.808769145365, 0.00082512049128977, 2.5775,718.274719238281
0.13000569, 230.817063094907, 0.000903325063162566, 2.59,722.560546875
0.130672131666667, 230.825567976863, 0.000734619537054911, 2.60375,721.617370605469
0.131338408333333, 230.833451142697, 0.00051480557807396, 2.6175,719.243957519531
0.132005115, 230.841747415116, 0.00020586009607212, 2.63125,719.265380859375
0.13267176, 230.849896695999, 0.000371859758088708, 2.64375,719.265380859375
0.133338341666667, 230.857302618492, 0.00037119079167733, 2.65625,720.78662109375
0.134005118333333, 230.864961677669, 0.00021607158317359, 2.67,721.710754394531
0.134671653333333, 230.873299564295, 0.000322290247929458, 2.6825,719.189025878906
0.135338505, 230.880788364901, 0.000320481338801572, 2.69625,866.973693847656
0.136005095, 230.888270956127, 0.000218501461131949, 2.71,866.973693847656
0.136671848333333, 230.896628454274, 7.14983449344989E-05, 2.7225,718.000305175781
0.13733851, 230.904664561116, -0.000110049536124276, 2.73625,725.280090332031
0.138004996666667, 230.912289571671, -6.94321503651988E-06, 2.74875,726.262084960938
0.138671775, 230.920240365428, -0.00022602221093235, 2.7625,716.887390136719
0.139338498333333, 230.928207020904, -0.000202948869883772, 2.775,716.887390136719
0.140005591666667, 230.936007882975, -5.61812418813957E-05, 2.78875,712.729431152344
0.140672725, 230.944303022883, 1.72985672922281E-05, 2.8025,715.370910644531
0.141338531666667, 230.953165000637, -3.51477984038227E-05, 2.81625,718.161743164063
0.14200514, 230.962546750342, 6.77845314319013E-05, 2.82875,717.591491699219
0.142671631666667, 230.972759520305, -0.000267631620944502, 2.84125,717.591491699219
0.143338375, 230.983390895742, -0.00047697760566601, 2.855,721.207275390625
0.144005318333333, 230.993378935001, -0.000353998782737581, 2.86875,713.037353515625
0.144672008333333, 231.003675862545, -0.000638038015729997, 2.8825,718.713317871094
0.145338525, 231.014193422397, -0.000348092079417355, 2.895,712.319885253906
0.146005225, 231.024527493177, 0.000112456787670621, 2.91,712.319885253906
0.146672221666667, 231.034770762715, 0.000252851235799596, 2.92125,716.298400878906
0.14733865, 231.045750862735, 0.000323712176518796, 2.935,713.140502929688
0.148005205, 231.056542473117, 0.000424015138429273, 2.94875,715.256958007813
0.148671628333333, 231.067698335582, 5.85974929741603E-05, 2.9625,712.081420898438
0.14933846, 231.077928814236, -6.5695263901555E-05, 2.97625,712.081420898438
0.150005686666667, 231.088746857626, -5.51807920068652E-05, 2.99,707.158935546875
0.150672245, 231.099501192242, 0.000137610524291599, 3.0025,712.292663574219
0.151338356666667, 231.110587440923, 0.000388148939998645, 3.01625,706.568115234375
0.152005023333333, 231.120939373447, 0.00059552252387482, 3.03,851.575256347656
0.152671785, 231.132155814506, 0.00041577005266681, 3.04375,851.575256347656
0.15333847, 231.142504324276, 0.000308673931986257, 3.05625,711.3232421875
0.154005066666667, 231.153227063963, 0.000206580060040733, 3.07,709.278747558594
0.154671653333333, 231.163777998344, -0.000401693387010185, 3.08375,713.223327636719
0.155338388333333, 231.174416374825, -0.000507540070429029, 3.09625,706.741760253906
0.156005595, 231.184869156933, -0.000470479931939613, 3.11,706.741760253906
0.1566722, 231.195721967644, -0.000410043467587146, 3.12375,705.753723144531
0.157338608333333, 231.206217130778, -0.000635728131702644, 3.13625,710.544189453125
0.158005001666667, 231.217001311621, -0.00028608819378718, 3.15,707.590148925781
0.15867185, 231.227688218026, -0.000137090177814585, 3.16375,709.674987792969
0.159338448333333, 231.238769912188, 0.00021092684166276, 3.17625,709.674987792969
0.16000502, 231.249820231569, -0.000124639303196478, 3.19,712.429565429688
0.16067254, 231.260664191628, -0.000134316817104117, 3.2025,707.526611328125
0.161338646666667, 231.271757641911, -0.00015720116765663, 3.21625,713.128845214844
