Time (min), Depth (µm), Load (N), Position (µm), Acoustic (aJ)
8.395E-06, 228.612584647254, 0.00079818617453921, 0,349.125549316406
0.00066494, 228.612325054235, 0.000462047058472912, 0.00625,337.885559082031
0.0013314, 228.613261034441, 0.0001666983935033, 0.01875,343.674255371094
0.00199777666666667, 228.613134951085, -5.20866171669829E-05, 0.035,345.650268554688
0.00266441666666667, 228.613553235366, -9.10411605177788E-05, 0.05,349.996520996094
0.00333153333333333, 228.613564494634, -0.000178734255738387, 0.0625,349.996520996094
0.00399791, 228.613429625883, 0.00023330854780479, 0.07625,352.893310546875
0.004664355, 228.613659422487, 0.000288384281426088, 0.09,357.399383544922
0.00533117833333333, 228.615287470275, 0.000464574431559991, 0.105,355.749237060547
0.00599762333333333, 228.619092260918, 0.000258121801479958, 0.1175,356.512359619141
0.00666431666666667, 228.624224098803, 0.000276152395770856, 0.13,356.512359619141
0.00733118333333333, 228.630952821208, 0.000133169077654268, 0.14375,369.171447753906
0.007997705, 228.639356946206, 4.58884616445559E-05, 0.15625,372.111938476563
0.00866469333333333, 228.648324242575, 0.000250827667789161, 0.17,364.924163818359
0.00933111333333333, 228.656812159706, 0.000154778492230217, 0.1825,372.544830322266
0.00999768666666667, 228.665397332241, 0.000412714536390631, 0.19625,372.544830322266
0.01066488, 228.674830608971, 0.000218433794904682, 0.21,372.677978515625
0.0113316433333333, 228.684414256857, 0.000286906855591322, 0.2225,375.4501953125
0.0119992483333333, 228.694308399333, 1.09372172486946E-05, 0.23625,378.422119140625
0.012664305, 228.704687402953, 0.000175672442759541, 0.25,377.917175292969
0.013331225, 228.716081961359, -0.000127861311060165, 0.2625,377.917175292969
0.0139982083333333, 228.727384420949, -0.000286433346156574, 0.27625,458.478057861328
0.0146643833333333, 228.738434033405, -0.000169641712496797, 0.28875,380.544189453125
0.0153310616666667, 228.749975889305, 2.01197559969881E-05, 0.3025,386.872924804688
0.015998505, 228.7618060404, -0.00012745033170991, 0.31625,386.053161621094
0.01666438, 228.773773408041, -3.74023547298511E-05, 0.32875,386.053161621094
0.01733155, 228.785986300104, -0.000113183048363154, 0.3425,384.751525878906
0.01799788, 228.798383082088, -0.000531840519651166, 0.35625,393.552001953125
0.0186644, 228.810929051938, -0.000656352265574773, 0.37,395.357116699219
0.0193310416666667, 228.823475158295, -0.000685408806088143, 0.3825,392.206146240234
0.0199984983333333, 228.835803405938, -0.000544843366534688, 0.39625,392.206146240234
0.0206652966666667, 228.848251814144, -0.000450283616163228, 0.40875,396.398712158203
0.0213315783333333, 228.860763032418, -0.000313595481872326, 0.4225,390.365814208984
0.02199766, 228.873171121998, -0.000468102721134521, 0.43625,391.101379394531
0.022664835, 228.88548444482, -0.000422431515158215, 0.44875,397.425659179688
0.0233325566666667, 228.897890786013, -0.000627324223603811, 0.4625,397.425659179688
0.0239982733333333, 228.910663627152, -0.000438285718842429, 0.47625,391.3583984375
0.0246657816666667, 228.923356095678, -0.000131785114042981, 0.49,396.244201660156
0.0253318533333333, 228.936057626902, 0.000155219470047283, 0.5025,393.578918457031
0.0259978816666667, 228.948870548276, 0.000425171410663843, 0.51625,393.466949462891
0.026664385, 228.96216151317, 0.000357083830655111, 0.53,393.466949462891
0.0273318166666667, 228.974894209797, 0.0003379402922232, 0.5425,394.479736328125
0.0279977833333333, 228.987642076944, 0.000128771298581277, 0.55625,398.149108886719
0.0286643716666667, 229.000342317456, -4.52919584299955E-05, 0.57,391.912963867188
0.029331535, 229.012825216779, -7.26685833141589E-05, 0.58375,389.674346923828
0.029997875, 229.024918781894, -0.00011882276503333, 0.59625,389.674346923828
0.0306646783333333, 229.037377750892, -0.00030097061591717, 0.61,468.758178710938
0.031332105, 229.050020616211, -0.000292332549769767, 0.62375,397.117126464844
0.0319983466666667, 229.062258119743, -0.000342815514060634, 0.63625,392.653045654297
0.0326648083333333, 229.075297150692, -0.000895450755817778, 0.65125,392.573425292969
0.0333310216666667, 229.087818772598, -0.000762011458358193, 0.6625,392.573425292969
0.033997915, 229.099702840761, -0.000622353473217488, 0.67625,398.257873535156
0.0346645266666667, 229.111708090847, -0.000599682111972746, 0.69,397.819610595703
0.0353315716666667, 229.124102763512, -0.000562851461917029, 0.70375,393.330780029297
0.0359977216666667, 229.13602033129, -0.00017336302551514, 0.7175,389.308197021484
0.0366643433333333, 229.148585338242, -0.000255458401948864, 0.73,389.308197021484
0.0373311033333333, 229.161329294437, -0.000166070391833763, 0.7425,395.176910400391
0.0379991533333333, 229.173602425152, 0.000176615895357969, 0.75625,396.760131835938
0.0386643516666667, 229.185957426108, 9.0350728381803E-05, 0.76875,389.46533203125
0.0393310416666667, 229.197980800831, 0.000322923046526037, 0.7825,390.622650146484
0.03999805, 229.210226715502, 0.000463803470246684, 0.79625,390.622650146484
0.040664895, 229.22218328035, 0.000580352116174387, 0.81,394.123931884766
0.0413316116666667, 229.23406647628, 0.000653011466571905, 0.8225,389.799041748047
0.04199921, 229.246029624787, 0.000821962980324202, 0.83625,388.862670898438
0.0426646866666667, 229.258241144688, 0.000618534198372489, 0.84875,382.645233154297
0.0433310416666667, 229.27030211045, 0.000526761308009872, 0.8625,382.645233154297
0.0439977166666667, 229.282681234526, 0.000620512598936689, 0.875,380.051086425781
0.0446647216666667, 229.294973076174, 0.000561426066802203, 0.88875,378.492095947266
0.0453317233333333, 229.307282573085, 0.000372993531520991, 0.90125,389.530822753906
0.0459983166666667, 229.319259806848, 0.000273722517769988, 0.915,456.6162109375
0.0466643816666667, 229.331055845362, 0.000277208342699529, 0.92875,456.6162109375
0.0473315433333333, 229.342527719349, 0.00024831229416107, 0.94125,378.699127197266
0.0479976733333333, 229.35402677593, -5.57164348179816E-05, 0.955,380.780426025391
0.0486644533333333, 229.36544144564, 9.28916007672579E-05, 0.9675,381.692962646484
0.0493318933333333, 229.376882697873, 0.000389404207265084, 0.98125,394.176055908203
0.04999768, 229.388213432293, 0.000488607724332924, 0.99375,394.176055908203
0.0506644983333333, 229.399781467192, 0.000126608407166697, 1.0075,388.471618652344
0.051331005, 229.410834839131, 0.000184902979067485, 1.02125,390.418060302734
0.051998135, 229.421738052487, -0.000135500427427474, 1.03375,385.091400146484
0.0526649183333333, 229.43289131207, -0.00051571182982241, 1.0475,390.880340576172
0.0533318616666667, 229.443451048559, -0.000542866465873637, 1.06,390.880340576172
0.0539982483333333, 229.454674827405, -0.000475321858541393, 1.07375,386.922332763672
0.05466438, 229.465730762124, -0.000429340168128596, 1.08625,390.361145019531
0.05533135, 229.476524606266, 3.96142768242776E-05, 1.1,393.877838134766
0.05599823, 229.487578106488, 0.000232441591329674, 1.11375,389.034759521484
0.0566647066666667, 229.498903632685, 0.00046065362846849, 1.12625,389.034759521484
0.0573310716666667, 229.509431855184, 0.000506555822824151, 1.14,394.885284423828
0.0579978433333333, 229.520475822217, 0.000658148708460718, 1.1525,383.585784912109
0.058664555, 229.531108417134, 0.00071823569034221, 1.16625,388.957977294922
0.05933107, 229.542356366828, 0.000296957850675372, 1.18,381.910858154297
0.0599977083333333, 229.553265080766, -1.65915010029094E-06, 1.1925,381.910858154297
0.0606644466666667, 229.5642591486, 3.51610004846035E-05, 1.20875,390.455261230469
0.0613311016666667, 229.577733935584, -0.000135452429782807, 1.22125,381.668426513672
0.06199782, 229.591897682779, -0.000557028754448402, 1.23375,385.582458496094
0.062664445, 229.604201833037, -0.000170961646205459, 1.2475,461.823394775391
0.0633311116666667, 229.616923948985, 5.0284740814398E-05, 1.26,461.823394775391
0.0639978933333333, 229.629394050635, -0.000222277068688912, 1.27375,386.715942382813
0.0646648383333333, 229.639401496557, -5.14986467158895E-05, 1.2875,390.943725585938
0.06533259, 229.648925413635, 0.000488766716298415, 1.3,388.68505859375
0.0659993233333333, 229.659678887828, 0.000276845360908924, 1.315,381.846649169922
0.0666643716666667, 229.670820051597, -0.000142502075689602, 1.3275,381.846649169922
0.067331115, 229.681765409225, 0.000224282001130673, 1.34125,386.154174804688
0.067997875, 229.692810038119, -8.3308149299407E-06, 1.35375,389.471862792969
0.0686647083333333, 229.70399501217, -0.000328944210883863, 1.3675,382.150726318359
0.0693314483333333, 229.714310647331, -0.000304195453936781, 1.38125,390.713531494141
0.0699977516666667, 229.724665288656, -0.000225693896989632, 1.39375,390.713531494141
0.0706649066666667, 229.735706842558, -0.000755416289588093, 1.4075,388.185241699219
0.0713313333333333, 229.746456928908, -0.000878015631557481, 1.42125,386.141326904297
0.07199768, 229.756931744374, -0.000723365899413214, 1.435,391.001007080078
0.0726644916666667, 229.767905343031, -0.000682195967336233, 1.4475,392.208801269531
0.073331385, 229.778536603123, -0.000649781095531363, 1.46125,392.208801269531
0.073998545, 229.789553256968, -0.000120420184777849, 1.475,392.265686035156
0.0746644633333333, 229.800191500813, 4.68064155706366E-05, 1.4875,393.924926757813
0.0753312233333333, 229.811568528925, 3.49540108956998E-05, 1.50125,389.720092773438
0.07599834, 229.822294778712, 0.000144337516652541, 1.515,394.791809082031
0.0766644016666667, 229.833316575416, 0.000536210833280691, 1.5275,394.791809082031
0.0773312266666667, 229.843667431197, 0.000163905533796844, 1.54125,387.680236816406
0.0779982083333333, 229.854439956702, 0.000362303568513629, 1.55375,392.992645263672
0.0786643683333333, 229.865121648861, 0.000330817150020645, 1.56875,388.091979980469
0.0793316866666667, 229.876817199895, 0.000181478651123495, 1.58125,463.486572265625
0.07999862, 229.887970733353, -0.000191630607968024, 1.595,463.486572265625
0.0806650116666667, 229.899608657511, -0.000355117896141565, 1.60875,393.617645263672
0.0813309966666667, 229.911313763412, -0.000592867954218517, 1.62125,391.483154296875
0.081999215, 229.922609790204, -0.000645990785905453, 1.635,398.706146240234
0.0826659133333333, 229.933675600585, -0.000397732255673932, 1.64875,398.822052001953
0.08333103, 229.945060375002, -3.94467519890489E-05, 1.66,398.822052001953
0.0839978016666667, 229.956306125726, -0.000113334540664121, 1.67375,395.009552001953
0.084665875, 229.967206449655, 6.8783311752908E-05, 1.6875,397.7744140625
0.0853313033333333, 229.978226845601, -0.000469773637111037, 1.7,389.694244384766
0.08599801, 229.988793604561, -0.000658047180299233, 1.71375,404.571716308594
0.08666584, 229.998645777279, -0.000788725116486084, 1.72625,404.571716308594
0.0873324916666667, 230.008689939097, -0.000435495858836001, 1.74,393.076354980469
0.087997685, 230.018617310171, -0.000538761171931756, 1.75375,391.392700195313
0.0886648016666667, 230.028321371691, 0.000104436520918273, 1.76625,392.752807617188
0.089331935, 230.037998679066, -7.97533274009806E-06, 1.78,395.549072265625
0.0899986266666667, 230.048722134373, -0.000167490820477443, 1.7925,395.549072265625
0.0906649033333333, 230.058472924043, -0.000314129454938631, 1.80625,389.275146484375
0.0913311333333333, 230.068800019794, -0.000394442920883727, 1.82,389.671295166016
0.0919993466666667, 230.079057481962, -0.000496376300896849, 1.8325,392.778930664063
0.0926647083333333, 230.090053731137, -0.000384136938587361, 1.84625,388.835388183594
0.0933316683333333, 230.100382831453, -0.000300646632224812, 1.85875,388.835388183594
0.0939978083333333, 230.111658448238, -0.000119095751359739, 1.8725,391.777465820313
0.09466493, 230.122404821078, -9.79078156261226E-05, 1.885,397.674285888672
0.0953315383333333, 230.133766051667, -0.000198063784860064, 1.89875,393.634765625
0.0959991216666667, 230.144531894423, -0.000148917253403787, 1.9125,467.829254150391
0.0966650033333333, 230.156040661205, 3.68169173658658E-05, 1.925,467.829254150391
0.0973318933333333, 230.166934689689, -7.3735029734908E-05, 1.9375,395.608642578125
0.0979977316666667, 230.177376763051, -2.16441461861916E-05, 1.95125,395.30078125
0.0986643833333333, 230.186804232874, -2.64949025352372E-05, 1.965,381.788757324219
0.0993317683333333, 230.196710955994, 4.60564532627372E-05, 1.97875,380.608947753906
0.0999978016666667, 230.206369236068, -0.000140960153041734, 1.99125,380.608947753906
0.100664741666667, 230.215946699239, 7.34189790147905E-06, 2.005,380.613494873047
0.10133182, 230.22670712168, -0.00019001068927244, 2.01875,380.697357177734
0.101998018333333, 230.238030763354, -0.000273337503875033, 2.03125,382.831665039063
0.102664358333333, 230.249004864763, -0.00047602532308652, 2.04625,376.659759521484
0.103331333333333, 230.259681819697, -0.000565086349660457, 2.0575,376.659759521484
0.10399774, 230.270885768428, -0.000782866410768016, 2.07125,375.2470703125
0.104664353333333, 230.281513441896, -0.000469464652662712, 2.085,379.566589355469
0.1053318, 230.292077294648, -0.000569532126378115, 2.09875,378.549926757813
0.10599768, 230.302755491088, -0.000482801982730669, 2.11125,380.813842773438
0.106664453333333, 230.313268377363, -0.000411857046244887, 2.125,380.813842773438
0.107331418333333, 230.324393475942, -0.000630243076981395, 2.13875,375.871673583984
0.107998221666667, 230.33488176725, -0.00058702424778699, 2.1525,384.848602294922
0.10866474, 230.345763386894, -0.000618465668505367, 2.16625,376.681640625
0.109331803333333, 230.35654896375, -0.000600561067821834, 2.17875,381.030456542969
0.10999775, 230.367236962075, -0.000426092831179174, 2.1925,381.030456542969
0.110664523333333, 230.377312368674, -0.00027176858271543, 2.20625,375.747619628906
0.111332456666667, 230.388277699715, -0.000233701994781396, 2.21875,383.713348388672
0.111997738333333, 230.398738857446, -0.000117313840807349, 2.2325,373.985565185547
0.112664308333333, 230.409312376885, -4.91887626460281E-05, 2.24625,455.679077148438
0.113331316666667, 230.420361879549, -0.000513836923829493, 2.25875,455.679077148438
0.113998856666667, 230.431228363051, -0.000595335330244449, 2.2725,373.787994384766
0.114664363333333, 230.441426761048, -0.000831261479906974, 2.285,378.077239990234
0.115331151666667, 230.451808265824, -0.000794960303271878, 2.29875,380.77734375
0.115997926666667, 230.462424063161, -0.000806854705808851, 2.3125,381.665985107422
0.116664366666667, 230.472912764048, -0.000300700629439567, 2.325,381.665985107422
0.11733164, 230.483362263328, -0.00022968969621628, 2.33875,373.596313476563
0.117997728333333, 230.494488771652, -0.000118770267572945, 2.3525,375.876586914063
0.118664713333333, 230.505750627506, -0.000329274194188817, 2.36625,369.156311035156
0.119331053333333, 230.516364402163, -0.000476602794066791, 2.38,371.032257080078
0.119997695, 230.527247869358, -0.000570259589756203, 2.3925,371.032257080078
0.120664496666667, 230.538519722235, -0.000339941658393894, 2.405,368.290679931641
0.121331078333333, 230.549276645742, -0.000290481642716082, 2.41875,369.373046875
0.121997691666667, 230.559502559869, 0.000284850458979406, 2.43125,370.669281005859
0.122664671666667, 230.570221460913, 0.000406998323597143, 2.445,369.242340087891
0.123331425, 230.580916454616, 0.000534031442867709, 2.45875,369.242340087891
0.123997866666667, 230.591644308401, 0.000211664634988821, 2.47125,364.911590576172
0.124664375, 230.602913795436, -0.000147498324642002, 2.48625,358.964172363281
0.12533178, 230.614439546154, -0.000522185504460796, 2.49875,365.508087158203
0.125997901666667, 230.625500923097, -0.000564540376986384, 2.51125,362.416320800781
0.126664366666667, 230.6360545777, -0.000745579783566184, 2.525,362.416320800781
0.127331551666667, 230.646819217355, -0.000611651510623613, 2.53875,366.174621582031
0.127997745, 230.656869473184, -7.57074305164788E-05, 2.55125,368.394927978516
0.128664316666667, 230.667082018549, 1.15170891154556E-06, 2.565,433.912322998047
0.129331131666667, 230.67682547876, 0.000193904027154271, 2.5775,357.000244140625
0.129997918333333, 230.686995648736, 0.000139699749781299, 2.59,357.000244140625
0.130664773333333, 230.696708110005, 0.000429717682465297, 2.60375,359.514862060547
0.131331596666667, 230.706950432663, 0.000215328950986111, 2.61625,360.200897216797
0.131997925, 230.717157375686, 0.000324056989693711, 2.63,359.080627441406
0.132664691666667, 230.728276525434, -2.33150621839617E-05, 2.64375,367.934265136719
0.133331035, 230.738850080788, -9.66853768761477E-05, 2.65625,367.934265136719
0.133998413333333, 230.749481140066, -7.8531788741674E-05, 2.67,358.947357177734
0.134664765, 230.759545876462, -0.000191504614254388, 2.68375,360.708221435547
0.135331776666667, 230.769516169592, -0.000205867892847968, 2.69625,367.556060791016
0.135997808333333, 230.778966309864, -8.83967932847368E-05, 2.71,368.125122070313
0.13666435, 230.788867683582, -4.35205473909365E-05, 2.7225,368.125122070313
0.137331795, 230.798488980895, -0.000341759567131962, 2.735,363.270446777344
0.137997698333333, 230.808269024037, -9.23475948430491E-05, 2.74875,372.634155273438
0.138664873333333, 230.817623291729, -0.000339526179312937, 2.7625,364.854766845703
0.139330995, 230.827581367199, -0.000450855087382123, 2.775,353.673522949219
0.139997916666667, 230.837065577406, -0.000433002984052704, 2.78875,353.673522949219
0.140664801666667, 230.846640047015, -0.000566844261358633, 2.8025,352.132446289063
0.141331701666667, 230.856518948222, -0.000747693177475456, 2.81625,357.968658447266
0.141997968333333, 230.866668638701, -0.000684022875556958, 2.82875,350.236206054688
0.142664905, 230.876759460251, -0.000474175915957238, 2.8425,362.253448486328
0.143332681666667, 230.887233169647, -0.000442723995768038, 2.855,362.253448486328
0.14399772, 230.897451241079, -0.000339662672433634, 2.86875,364.591888427734
0.144664543333333, 230.907913469285, -0.000192769050738875, 2.8825,357.127105712891
0.145331216666667, 230.919017278456, -0.000251281111763151, 2.89625,424.238311767578
0.145997788333333, 230.929735613638, -0.000461413057063253, 2.90875,355.923370361328
0.14666466, 230.940289494497, -0.000283580489410225, 2.92125,355.923370361328
0.147331211666667, 230.951387861847, -0.000282919022642118, 2.935,359.863037109375
0.147997843333333, 230.962391038723, -0.000553001456660507, 2.94875,350.376708984375
0.14866441, 230.973072729204, -0.000712434448513165, 2.9625,355.498077392578
0.149331266666667, 230.983165124727, -0.000401734054661955, 2.97625,353.641510009766
0.149997715, 230.993702100498, -0.000392635511680244, 2.98875,353.641510009766
0.150664663333333, 231.003911081266, -0.000341219594240519, 3.0025,350.319366455078
0.15133147, 231.014334597867, -0.000254777436121006, 3.01625,356.0830078125
0.1519982, 231.024607094895, 7.30739964020413E-06, 3.02875,349.428955078125
0.152664351666667, 231.035180798881, 5.82223422654796E-05, 3.04375,356.514678955078
0.153331096666667, 231.046165643529, -0.000401569062871327, 3.05625,356.514678955078
0.153997843333333, 231.057206861637, -0.000510084112228648, 3.07,357.046020507813
0.154664426666667, 231.067663381899, -0.000577211740470516, 3.0825,357.715454101563
0.155331023333333, 231.07873234694, -0.000779767566292009, 3.09625,343.013214111328
0.155997686666667, 231.089920259298, -0.00104049197038567, 3.10875,347.815399169922
0.15666454, 231.100377201697, -0.000666745243295241, 3.1225,347.815399169922
0.157331038333333, 231.111196441027, -0.000499839626832815, 3.13625,349.596038818359
0.157998525, 231.121860042708, -0.000259355206122388, 3.15,350.098571777344
0.158664741666667, 231.132361529302, -0.000221134125953564, 3.16375,354.762542724609
0.159331296666667, 231.142935042834, -0.000240124672096343, 3.17625,355.344573974609
