Time (min), Depth (µm), Load (N), Position (µm), Acoustic (aJ)
8.32E-06, 229.117866307457, -0.0009565659455377, 0,351.356994628906
0.000666255, 229.117524478508, -0.000651634261961617, 0.005,357.656890869141
0.00133326666666667, 229.117968707614, -0.000626711513805011, 0.01875,357.0849609375
0.00200060333333333, 229.119389359593, -0.000627104494062427, 0.035,358.501525878906
0.002666105, 229.121536726634, -0.000650813803164256, 0.05,365.072631835938
0.003332925, 229.124396264372, -0.000887668406223685, 0.0625,365.072631835938
0.00399999333333333, 229.127370569413, -0.000937200418272853, 0.075,362.553375244141
0.00466793833333333, 229.130618294686, -0.000875399022479626, 0.09,371.031402587891
0.00533276666666667, 229.134666237672, -0.000911307218857307, 0.10375,377.430267333984
0.00599944666666667, 229.138836426708, -0.00119971273255275, 0.1175,380.413330078125
0.00666647333333333, 229.144395251279, -0.0012026345858004, 0.13,380.413330078125
0.00733290333333333, 229.151819796811, -0.00132278305084853, 0.14375,386.838073730469
0.00800007333333333, 229.16035571968, -0.00112161615525825, 0.15625,387.565734863281
0.00866650666666667, 229.169151493093, -0.000812256694057345, 0.17,377.628448486328
0.00933278833333333, 229.179052702769, -0.00076339514830145, 0.1825,377.628448486328
0.010000095, 229.188761373708, -0.000431425822798847, 0.19625,389.821228027344
0.0106664533333333, 229.198974604927, -0.000735982525252862, 0.20875,391.778289794922
0.011334385, 229.20869492374, -0.000991424194663068, 0.2225,401.764251708984
0.01199958, 229.218348140998, -0.000798475386281007, 0.23625,399.667724609375
0.01266618, 229.228561520414, -0.000680806296696546, 0.25,414.268707275391
0.013333175, 229.23881206271, -0.000855696012160284, 0.26125,414.268707275391
0.0139999733333333, 229.248423023199, -0.00040375821251669, 0.275,495.032135009766
0.0146663883333333, 229.258591173799, -0.000121310399571179, 0.28875,412.604919433594
0.01533314, 229.268817632378, -0.000519670890327379, 0.3025,418.5
0.016000115, 229.279235573064, -0.00051083183430994, 0.31625,418.290679931641
0.01666637, 229.289659813166, -0.000594049154409841, 0.32875,418.290679931641
0.01733289, 229.300273677296, -0.00050194178086279, 0.3425,417.660522460938
0.0179995666666667, 229.310822068494, -0.000768545889637417, 0.355,425.746063232422
0.01866697, 229.321542259468, -0.000749940824172547, 0.36875,429.287567138672
0.019332845, 229.332544752145, -0.000885561012118296, 0.3825,431.249267578125
0.0199996916666667, 229.34374714925, -0.000686660502683912, 0.395,431.249267578125
0.0206667033333333, 229.354776935682, -0.000987146409584845, 0.40875,435.809051513672
0.0213334583333333, 229.366581188745, -0.0008604162751075, 0.4225,431.25439453125
0.021999525, 229.377945348881, -0.000814037104664078, 0.43625,424.54931640625
0.0226661516666667, 229.389590820114, -0.000900411766142935, 0.44875,427.069213867188
0.0233331766666667, 229.400623894038, -0.000804493084049583, 0.4625,427.069213867188
0.0239995316666667, 229.412712370964, -0.000576483536747715, 0.475,424.144256591797
0.024666445, 229.423699051873, -0.000622087246147128, 0.48875,428.626159667969
0.025334375, 229.435479396809, -0.000583665176065759, 0.50375,428.374176025391
0.0259995266666667, 229.447055117379, -0.000478416962568832, 0.51625,434.9443359375
0.0266662666666667, 229.45898182155, -0.000188778510780111, 0.53,434.9443359375
0.0273331516666667, 229.47058312478, -0.00051579208522544, 0.5425,429.166015625
0.0280002233333333, 229.482640486315, -0.000506441554837711, 0.55625,433.778228759766
0.0286661966666667, 229.494472541047, -0.000804184099537495, 0.57,432.867889404297
0.0293331733333333, 229.505913967382, -0.000631316282530669, 0.58375,437.561065673828
0.02999969, 229.517488341097, -0.00100095921577365, 0.59625,437.561065673828
0.03066692, 229.529401251818, -0.000993104110334782, 0.61,520.417602539063
0.0313333116666667, 229.540926698636, -0.00112118267712696, 0.62375,427.135681152344
0.0320000883333333, 229.552434374694, -0.00105177966316152, 0.63625,428.327819824219
0.0326662083333333, 229.564087123633, -0.00142564938405302, 0.65125,425.531707763672
0.033333465, 229.576006508927, -0.00140437595260716, 0.6625,425.531707763672
0.0339995, 229.587325936693, -0.0014014226009683, 0.67625,430.733520507813
0.0346662433333333, 229.599005725109, -0.000854566568914598, 0.69,428.796813964844
0.0353331933333333, 229.611177110266, -0.000674458615559254, 0.70375,428.514831542969
0.03599967, 229.622902819135, -0.000570693827530943, 0.71625,424.281829833984
0.0366670083333333, 229.634373782896, -0.00067984934473598, 0.73,424.281829833984
0.0373330083333333, 229.646274678604, -0.000494625148348452, 0.7425,430.264770507813
0.0379996433333333, 229.658138854707, -0.00102693341110697, 0.75625,425.819061279297
0.0386662, 229.669553514982, -0.000983363599559698, 0.77,428.394622802734
0.0393328666666667, 229.681527612827, -0.00100841234140869, 0.7825,416.992645263672
0.039999725, 229.693561869145, -0.000923987581994129, 0.79625,416.992645263672
0.040666155, 229.704968366989, -0.000837654918398563, 0.80875,421.206237792969
0.041332895, 229.716840798741, -0.000751617739952946, 0.8225,419.906341552734
0.04199962, 229.72873889183, -0.000930398259998866, 0.83625,416.993499755859
0.0426665016666667, 229.740508664698, -0.00081825189300238, 0.84875,413.212158203125
0.04333279, 229.752334433594, -0.00118501947065422, 0.86125,413.212158203125
0.0439997183333333, 229.764386390123, -0.00130333952757847, 0.875,413.021057128906
0.044666515, 229.77581681307, -0.00110532097384198, 0.88875,411.377014160156
0.0453334133333333, 229.786829571566, -0.00092882033927159, 0.90125,412.822021484375
0.0459997016666667, 229.797753230815, -0.00083019579308717, 0.915,416.470581054688
0.04666698, 229.808803587039, -0.000392418782178954, 0.9275,416.470581054688
0.04733327, 229.819684260403, -0.000673771650097545, 0.94125,503.152587890625
0.0479998583333333, 229.830886214131, -0.000795015060193847, 0.955,417.742401123047
0.0486669316666667, 229.842035941946, -0.00105102970085362, 0.9675,419.027008056641
0.0493328466666667, 229.852414015004, -0.00120866878282243, 0.98125,418.446228027344
0.0499997766666667, 229.862204530221, -0.00137205857590976, 0.99375,418.446228027344
0.0506661933333333, 229.871825701339, -0.00130025718244093, 1.0075,420.573486328125
0.0513330333333333, 229.880780809215, -0.00103202865526128, 1.02125,422.300445556641
0.0520001016666667, 229.890054251952, -0.000951704689866611, 1.035,420.650512695313
0.0526669966666667, 229.899331882821, -0.000877483917888999, 1.0475,426.329315185547
0.0533329183333333, 229.908510466975, -0.000582340742626396, 1.06,426.329315185547
0.05400017, 229.917714123573, -0.000655021091944305, 1.0725,423.471832275391
0.0546669616666667, 229.926959819899, -0.000965857978937465, 1.0875,425.161529541016
0.0553334166666667, 229.936255957604, -0.000934887534524218, 1.1,425.801300048828
0.056000295, 229.945477438084, -0.000662729204770401, 1.1125,432.558715820313
0.0566669633333333, 229.954553989935, -0.000673303673619967, 1.12625,432.558715820313
0.05733283, 229.96353669488, -0.000488130474683403, 1.14,425.238647460938
0.058000625, 229.972402566009, -0.00034638759426085, 1.1525,420.135528564453
0.0586667916666667, 229.980545318418, -0.000355978112531846, 1.16625,419.299163818359
0.05933354, 229.989134747498, -0.000782442691656568, 1.18,417.419250488281
0.059999505, 229.997217796459, -0.00110910078395456, 1.1925,417.419250488281
0.0606670833333333, 230.005397078531, -0.00124142563741249, 1.20875,424.338073730469
0.0613331466666667, 230.015021650078, -0.00135581289182877, 1.22,417.295349121094
0.061999965, 230.02428873346, -0.00119139415045202, 1.2325,413.606018066406
0.0626663833333333, 230.032915955201, -0.000705196571647487, 1.2475,417.254608154297
0.0633329383333333, 230.041544485072, -0.000403068247248683, 1.26,417.254608154297
0.0640001133333333, 230.049976621273, -0.000275960131779208, 1.27375,499.888000488281
0.0646661616666667, 230.056255909543, -0.000238856495503352, 1.2875,411.468841552734
0.065333535, 230.063158109334, -0.000329315451833666, 1.30125,420.372528076172
0.0659999366666667, 230.07007032325, -0.000585321092968276, 1.315,414.701141357422
0.0666664366666667, 230.076874843834, -0.00054864193534105, 1.3275,414.701141357422
0.0673328266666667, 230.083330229108, -0.000411548821397506, 1.34,415.544860839844
0.06799951, 230.090031750248, -0.000345309148529891, 1.35375,420.399169921875
0.0686668633333333, 230.096527581192, -2.0345971083882E-05, 1.3675,410.687744140625
0.0693334233333333, 230.103633727401, -8.69966232804975E-05, 1.38125,423.798370361328
0.0700003933333333, 230.111097813038, -0.000254466211446073, 1.39375,423.798370361328
0.0706665216666667, 230.119074421517, -0.000428403474764963, 1.40625,422.752868652344
0.0713328216666667, 230.126495016509, -0.000268204021414716, 1.42125,418.659149169922
0.071999875, 230.13432305885, -0.000306561594767999, 1.43375,409.354614257813
0.0726661783333333, 230.141975655184, -0.000228447018359399, 1.4475,415.837585449219
0.07333294, 230.149747870648, -0.00016658712549319, 1.46125,415.837585449219
0.0739995133333333, 230.156971677324, -0.000171634371981571, 1.475,412.415130615234
0.0746661616666667, 230.165360261642, -0.000320038417784205, 1.4875,412.008666992188
0.0753329416666667, 230.172955141013, -0.000406885555513851, 1.50125,413.0234375
0.0759997433333333, 230.180722173728, -0.000628970400423908, 1.515,420.333282470703
0.07666638, 230.188307537603, -0.00074997532247633, 1.5275,420.333282470703
0.07733304, 230.196235159416, -0.0008766499597295, 1.54125,417.561004638672
0.0780003216666667, 230.203770819073, -0.000897260424461592, 1.555,419.151519775391
0.0786661616666667, 230.211504125385, -0.00110532397364828, 1.56875,423.081604003906
0.0793332283333333, 230.218993475165, -0.00105411354589431, 1.5825,421.429473876953
0.0799995483333333, 230.226937784299, -0.000966712935911084, 1.595,421.429473876953
0.0806668916666667, 230.235220312716, -0.000900275273022239, 1.6075,514.540161132813
0.0813328566666667, 230.243204234607, -0.000809720321530117, 1.62125,424.990234375
0.0819994933333333, 230.251959698718, -0.000758686884834476, 1.635,425.902770996094
0.0826675966666667, 230.260383487815, -0.000856222485732098, 1.64875,424.309051513672
0.0833330816666667, 230.268125046328, -0.000769336349946713, 1.66,424.309051513672
0.08400027, 230.275318695951, -0.000611007302624886, 1.67375,426.350891113281
0.0846663116666667, 230.283015502815, -0.00114556545228585, 1.6875,424.980987548828
0.08533291, 230.290405198986, -0.00101326909737033, 1.70125,422.774627685547
0.0859995766666667, 230.297144411049, -0.00103501500510948, 1.71375,425.050231933594
0.086666285, 230.304609037009, -0.00118484697924157, 1.72625,425.050231933594
0.0873328866666667, 230.311950397919, -0.00127637988163591, 1.74,431.605072021484
0.0879999583333333, 230.319156568386, -0.000960920226866759, 1.75375,425.690856933594
0.0886677416666667, 230.325739329638, -0.000912660150945349, 1.76625,421.926452636719
0.0893329033333333, 230.333319164734, -0.000845166541064069, 1.78,424.244781494141
0.0900007733333333, 230.340195264, -0.000664086636504128, 1.7925,424.244781494141
0.0906664116666667, 230.347441807643, -0.000636891502515267, 1.80625,418.155151367188
0.0913329633333333, 230.354023971245, -0.000442385772368829, 1.82,415.381103515625
0.091999845, 230.360960883429, -0.000604022153531193, 1.8325,421.543212890625
0.0926664833333333, 230.367787511157, -0.000472736747854752, 1.84625,423.057952880859
0.0933333883333333, 230.374677458176, -0.000380125399623189, 1.85875,423.057952880859
0.09399969, 230.381712738835, -0.000537274006184603, 1.8725,414.157348632813
0.0946661466666667, 230.388780875706, -0.000586408538181892, 1.885,417.929809570313
0.09533286, 230.395592368836, -0.000574511135796111, 1.9,421.531494140625
0.09599986, 230.402872304781, -0.000685780046889167, 1.9125,503.352813720703
0.09666678, 230.410210054967, -0.000876384473046362, 1.925,503.352813720703
0.097332875, 230.416844464895, -0.000905280521648583, 1.9375,423.504547119141
0.0980002483333333, 230.423179287008, -0.000885297025402069, 1.95125,420.748352050781
0.0986661683333333, 230.429236235538, -0.000903561607984892, 1.965,407.069488525391
0.0993329133333333, 230.435047593151, -0.000795726024467262, 1.97875,402.081726074219
0.0999996583333333, 230.440650900156, -0.000483026231046445, 1.99125,402.081726074219
0.100667023333333, 230.447053449272, -0.000430593364670023, 2.00625,408.114776611328
0.10133341, 230.454140887458, -0.000519687389602085, 2.01875,406.047271728516
0.101999688333333, 230.461464823404, -0.000359153453067404, 2.0325,409.106506347656
0.102667138333333, 230.468667236426, -0.000736579495356646, 2.045,406.840759277344
0.103333045, 230.475699693612, -0.000840461277467156, 2.05875,406.840759277344
0.103999525, 230.48207208018, -0.000747690937227594, 2.0725,408.376403808594
0.104666295, 230.488191055779, -0.00061109579822844, 2.085,407.665954589844
0.105332888333333, 230.494547893544, -0.000916784943734439, 2.09875,402.955139160156
0.1059995, 230.500695829054, -0.000478811442708142, 2.1125,404.452941894531
0.106666953333333, 230.507365828011, -0.00065558356361678, 2.125,404.452941894531
0.107332903333333, 230.514676005851, -0.000829244840824217, 2.13875,405.045989990234
0.108000258333333, 230.522412830631, -0.000953284110454528, 2.1525,399.601013183594
0.108667, 230.530039880739, -0.000668634408144969, 2.16625,402.953552246094
0.109332936666667, 230.538128980647, -0.000905192026087536, 2.17875,405.551696777344
0.11000065, 230.545865292186, -0.000887926393369824, 2.19125,405.551696777344
0.110666191666667, 230.553317017722, -0.000814286092178781, 2.20625,408.369873046875
0.111332971666667, 230.560496693854, -0.000632433726423637, 2.21875,410.933380126953
0.111999488333333, 230.567990998814, -0.000927113424939362, 2.2325,412.385437011719
0.112666393333333, 230.574923322342, -0.000885454517421903, 2.24625,490.4228515625
0.113332966666667, 230.582505915621, -0.00115670839261178, 2.25875,490.4228515625
0.11399969, 230.589591009782, -0.00101975927147471, 2.2725,400.442260742188
0.114666945, 230.596382635429, -0.00103512149984838, 2.285,409.762023925781
0.115332928333333, 230.603039316385, -0.000638448424343406, 2.29875,412.002014160156
0.115999691666667, 230.610091904935, -0.000362526783624191, 2.3125,406.133056640625
0.116666853333333, 230.617298552332, -0.00011518470735184, 2.325,406.133056640625
0.117333005, 230.624738471065, -0.000274565201829129, 2.34,403.555999755859
0.11799966, 230.632650139962, -0.000401818810029482, 2.3525,401.356750488281
0.118666981666667, 230.640527422578, -0.000821403234726231, 2.36625,400.603698730469
0.119332841666667, 230.64851292543, -0.00112198363690708, 2.38,393.171447753906
0.119999816666667, 230.655986103547, -0.00151621033528526, 2.3925,393.171447753906
0.120666291666667, 230.663277165064, -0.00141982667656314, 2.405,396.991424560547
0.121332903333333, 230.67030793342, -0.00139801627207464, 2.42,396.641662597656
0.122000288333333, 230.677505018032, -0.00113721987160963, 2.4325,398.212738037109
0.122666908333333, 230.684683208989, -0.0013032840303543, 2.445,389.727752685547
0.123332988333333, 230.691960438879, -0.00105311009631975, 2.45875,389.727752685547
0.124000138333333, 230.699146758972, -0.00104172566814365, 2.47125,391.682220458984
0.124667326666667, 230.706876998251, -0.000979799778624951, 2.485,392.170318603516
0.125334146666667, 230.714343786452, -0.00105620444089503, 2.49875,387.501281738281
0.125999648333333, 230.721950294943, -0.000736246512054106, 2.51125,381.383056640625
0.126667536666667, 230.729361005236, -0.0003060036226987, 2.525,381.383056640625
0.127332876666667, 230.737760711171, -0.000256732597559461, 2.5375,385.210876464844
0.128001138333333, 230.746166663011, -0.000426672561663538, 2.55125,388.102569580078
0.12866675, 230.754689447769, -0.000202886802203884, 2.565,379.049896240234
0.129334396666667, 230.763282869469, -0.000357212550570777, 2.5775,469.034301757813
0.130002098333333, 230.772146273534, -0.0002825762994697, 2.59,469.034301757813
0.13066678, 230.78073082304, 6.1644410705376E-05, 2.60375,380.495574951172
0.131332831666667, 230.789065152422, 0.000690538822001717, 2.6175,381.340454101563
0.131999508333333, 230.797459745254, 0.000851474738382742, 2.63,382.727630615234
0.132666191666667, 230.806132838803, 0.00114508199080136, 2.64375,383.730743408203
0.13333302, 230.814992136849, 0.00107781936938445, 2.65625,383.730743408203
0.13399989, 230.824548365035, 0.000772493205562788, 2.67,380.857116699219
0.134666815, 230.834188564522, 0.000168028067209365, 2.6825,382.845092773438
0.135333536666667, 230.843728629351, -0.000288920980758185, 2.69625,387.976531982422
0.135999516666667, 230.853114174312, -0.000633918651901674, 2.71,386.617370605469
0.13666701, 230.862350536069, -0.000792523685334954, 2.7225,386.617370605469
0.13733296, 230.871351293469, -0.000738644891599997, 2.73625,395.057586669922
0.138000213333333, 230.88013391148, -0.000601169296891114, 2.7475,398.336791992188
0.138667061666667, 230.888967159305, -0.000367928012356757, 2.7625,385.057525634766
0.139332831666667, 230.89794910831, -0.000563426692649438, 2.775,376.039581298828
0.139999868333333, 230.906912105186, -0.000672922692779031, 2.78875,376.039581298828
0.140666646666667, 230.915688697532, -0.000779772825793687, 2.8025,381.981689453125
0.14133335, 230.924715577615, -0.00105206014908869, 2.815,376.857360839844
0.142000058333333, 230.934209588964, -0.000901203726440397, 2.82875,376.301696777344
0.142666731666667, 230.943442198749, -0.000502010777470356, 2.84125,387.577911376953
0.143332846666667, 230.953448145322, -0.000369622927187487, 2.855,387.577911376953
0.143999693333333, 230.96378468487, -0.000663138684217507, 2.86875,378.133056640625
0.144666356666667, 230.974597133188, -0.000619763862885162, 2.8825,382.411041259766
0.145332871666667, 230.985392427622, -0.000734568096391811, 2.89625,380.709503173828
0.145999786666667, 230.996708868172, -0.000771505241101414, 2.91,450.175567626953
0.146666178333333, 231.007449842786, -0.00081883536376528, 2.9225,450.175567626953
0.147333153333333, 231.018255343807, -0.00085180970750009, 2.935,372.952758789063
0.148000141666667, 231.029154164712, -0.000882261177963539, 2.94875,380.7958984375
0.148666201666667, 231.039675869449, -0.000883458117828625, 2.9625,381.485595703125
0.149332853333333, 231.049932911141, -0.00106332608325819, 2.97625,373.215698242188
0.149999723333333, 231.06032236202, -0.00102665292530733, 2.98875,373.215698242188
0.15066624, 231.070773538011, -0.000848163390616894, 3.0025,376.019958496094
0.151332841666667, 231.080963366027, -0.000473236222829815, 3.01625,368.962371826172
0.152000783333333, 231.091457176178, -0.000717500453695329, 3.03,371.543792724609
0.152666936666667, 231.102109600025, -0.000690405814641486, 3.04375,370.990417480469
0.153333015, 231.112747851574, -0.000979838776723198, 3.05625,370.990417480469
0.153999593333333, 231.122831440271, -0.000774424094521506, 3.07,372.494995117188
0.154666415, 231.133515314627, -0.00136303502921197, 3.0825,378.434967041016
0.155333248333333, 231.14400934628, -0.0012242080023607, 3.09625,375.722778320313
0.155999493333333, 231.154215830289, -0.00115668889378582, 3.10875,379.685028076172
0.156666278333333, 231.164666538224, -0.000928271366961251, 3.1225,379.685028076172
0.157333165, 231.175277223105, -0.00118300657185, 3.13625,369.203033447266
0.157999671666667, 231.184931650308, -0.000582906214253949, 3.15,367.585968017578
0.158666801666667, 231.194712614373, -0.000638613416134034, 3.16375,365.798278808594
0.159334115, 231.20463531349, -0.000523611192563647, 3.17625,373.872924804688
0.160000611666667, 231.21459098438, -0.000486498556677609, 3.19,373.872924804688
