Time (min), Depth (µm), Load (N), Position (µm), Acoustic (aJ)
9.545E-06, 236.618203960663, -0.00018886091125506, 0,179.715072631836
0.000662951666666667, 236.61831005385, 5.04655675822567E-05, 0.00125,179.005432128906
0.001329415, 236.617978924746, 3.67337573324805E-05, 0.00875,178.221206665039
0.00199648333333333, 236.619064328216, -0.000283041180688734, 0.015,174.072891235352
0.00266287333333333, 236.619832182387, -5.32362235998631E-05, 0.0225,178.886322021484
0.003329295, 236.622330770201, 7.48072667977596E-06, 0.03,178.886322021484
0.00399631, 236.624091515754, -4.62810729092188E-05, 0.03625,180.532760620117
0.00466303333333333, 236.627663829048, -0.000202898706168117, 0.04375,178.205871582031
0.00532962666666667, 236.631121716951, -0.000161131804093623, 0.05,214.9384765625
0.00599610333333333, 236.635402771546, -0.000268635904233116, 0.05625,175.495315551758
0.00666287333333333, 236.638858033319, -0.000153167204130808, 0.0625,175.495315551758
0.00732928, 236.64325247142, -0.000232015243700126, 0.07,180.725814819336
0.00799651166666667, 236.647356997122, -2.7947493803846E-05, 0.07625,179.676742553711
0.00866304166666667, 236.652174947002, -0.000146923017798594, 0.08375,181.095718383789
0.009329235, 236.656760867133, 9.69461541779593E-06, 0.09,187.098220825195
0.009995945, 236.661352165502, -0.000132438245370858, 0.0975,187.098220825195
0.0106626516666667, 236.666685213937, -0.000424662567234623, 0.10375,180.314239501953
0.0113292683333333, 236.672302847049, -0.000653863054746473, 0.11,181.667053222656
0.0119963233333333, 236.67738960434, -0.00071615792571088, 0.11625,173.602203369141
0.0126630616666667, 236.682897706965, -0.00103840473957375, 0.12375,182.869766235352
0.01332957, 236.68878050933, -0.00102484092087839, 0.13,182.869766235352
0.0139960783333333, 236.693933283061, -0.000551788681775682, 0.13625,173.773468017578
0.0146625966666667, 236.699152088015, -0.000295220568947343, 0.1425,183.994659423828
0.0153297133333333, 236.704858710245, -0.0001230952146264, 0.15,181.483505249023
0.0159961516666667, 236.71043520233, -0.000294151122677787, 0.15625,182.608963012695
0.01666264, 236.715649348491, -0.000457866399403132, 0.1625,182.608963012695
0.017329205, 236.721552498098, -0.000816691875979458, 0.16875,181.65087890625
0.017996425, 236.727219839055, -0.00101743879265181, 0.17625,177.778289794922
0.0186628233333333, 236.732767047416, -0.00109814373892992, 0.1825,175.356079101563
0.0193292766666667, 236.738131314957, -0.000706727899329778, 0.18875,181.936508178711
0.0199964566666667, 236.744020395763, -0.000547380403210614, 0.19625,181.936508178711
0.0206628966666667, 236.750083833485, -0.000798296799931044, 0.2025,182.245574951172
0.0213292966666667, 236.755708991225, -0.000588244350666823, 0.20875,180.672348022461
0.0219962816666667, 236.761262975777, -0.00060033074361243, 0.215,222.305999755859
0.0226627983333333, 236.767133178757, -0.000765694437554512, 0.22125,188.154190063477
0.02332953, 236.771417481166, -0.000460215281464969, 0.22875,188.154190063477
0.0239961516666667, 236.776373318612, -9.5619594710367E-05, 0.235,183.524322509766
0.02466266, 236.783445044067, 0.00020387036221677, 0.24375,188.183959960938
0.0254961983333333, 236.787568694804, 0.000146810228269897, 0.25,183.924652099609
0.02616281, 236.792858901996, 0.000196901712206497, 0.25625,191.209167480469
0.0268292816666667, 236.797763800222, -0.00011564508888268, 0.26375,197.892654418945
0.027496075, 236.802684860307, -0.000114619140420819, 0.27,197.892654418945
0.02816285, 236.807649426365, -0.000199402381831517, 0.27625,196.334503173828
0.0288293866666667, 236.813198598463, 8.95446046797771E-05, 0.2825,194.864456176758
0.0294966033333333, 236.818096458094, 3.68477515871281E-05, 0.29,196.819412231445
0.0301627633333333, 236.823945334835, -0.000302904682982987, 0.29625,192.590255737305
0.030829565, 236.829770262567, -0.000458502367520146, 0.30125,192.590255737305
0.0314961166666667, 236.834355180792, -0.00030630051249084, 0.31,192.013427734375
0.0321626316666667, 236.839446846798, -0.000320380305287188, 0.31625,198.824340820313
0.0328307716666667, 236.844564249076, -0.000272561207182844, 0.3225,192.399078369141
0.03349606, 236.849478687496, 0.000130846530019229, 0.32875,195.828750610352
0.0341628466666667, 236.854305690878, 9.80686764237535E-05, 0.33625,195.828750610352
0.0348292383333333, 236.860146462219, 0.000105389808732555, 0.3425,197.464080810547
0.035496315, 236.865571320167, 0.000152232455880346, 0.34875,196.598709106445
0.036162805, 236.871391170339, -0.000363521138348862, 0.355,191.7666015625
0.0368293116666667, 236.876474186603, -0.000706606405516877, 0.36375,198.896881103516
0.037496145, 236.882341214002, -0.00067550696760495, 0.36875,198.896881103516
0.0381633933333333, 236.887707014864, -0.000747092371959702, 0.375,204.115219116211
0.0388294233333333, 236.89264654749, -0.000901995591370628, 0.3825,240.539947509766
0.0394962033333333, 236.897232219615, -0.000120999819958745, 0.38875,194.799224853516
0.04016306, 236.902801593503, 2.13475301045912E-05, 0.395,195.903030395508
0.0408295083333333, 236.907411113079, -1.05363684190178E-05, 0.4025,195.903030395508
0.0414961883333333, 236.912802666847, -0.000400528779462909, 0.40875,192.964492797852
0.042162685, 236.918353268058, -0.000636405431641381, 0.415,195.278182983398
0.04282928, 236.923585089394, -0.00122416590908893, 0.42125,189.27197265625
0.0434961433333333, 236.929001840501, -0.000839622724294743, 0.42875,188.305221557617
0.0441633916666667, 236.933774493952, -0.000422822159758031, 0.435,188.305221557617
0.044829615, 236.938852674674, -0.000130381848716434, 0.44125,196.771575927734
0.0454961883333333, 236.943952908812, 6.49683390603238E-05, 0.44875,194.144027709961
0.04616346, 236.949123901816, 0.000406585180003754, 0.455,186.089584350586
0.0468292616666667, 236.953909383191, 0.000370828475990802, 0.46125,197.138275146484
0.0474960783333333, 236.959867317194, 0.000205244293118933, 0.4675,197.138275146484
0.048163345, 236.964626112446, 0.000253291379775081, 0.475,190.263488769531
0.0488292666666667, 236.970239428179, 0.000158173657440593, 0.4825,192.042419433594
0.0494963516666667, 236.975767853196, -6.35242068671528E-05, 0.4875,184.680084228516
0.0501632216666667, 236.981124569994, -0.000493735597788836, 0.495,190.401718139648
0.0508292583333333, 236.986549584804, -0.000965311910981178, 0.50125,190.401718139648
0.0514962166666667, 236.992223724073, -0.00133057806405031, 0.50875,194.514755249023
0.0521634283333333, 236.997649790057, -0.00144494281962179, 0.51375,182.003570556641
0.0528294766666667, 237.003039633817, -0.00158420332473186, 0.52125,188.712051391602
0.053496405, 237.008566902773, -0.00146654773446703, 0.5275,193.2490234375
0.054162835, 237.013802702955, -0.00117273049258945, 0.53375,193.2490234375
0.054829595, 237.019224609541, -0.00108576786061699, 0.54125,188.476135253906
0.0554963216666667, 237.02441484493, -0.000802255101132626, 0.54875,227.991653442383
0.0561632116666667, 237.029514796962, -0.000690246727202494, 0.55375,188.61360168457
0.0568293583333333, 237.035481839089, -0.000889628712455341, 0.56,198.703750610352
0.0574961283333333, 237.040882154648, -0.000902096086284392, 0.5675,198.703750610352
0.058162815, 237.04606910399, -0.000625878960372719, 0.575,193.541030883789
0.058829365, 237.051647844189, -0.000500990733360132, 0.58125,191.796401977539
0.05949611, 237.057626951519, -0.000629655770636491, 0.58625,189.82145690918
0.060162995, 237.062568596487, -0.000474445066722898, 0.595,193.491989135742
0.06082937, 237.06842569495, -0.000297626448115251, 0.6,193.491989135742
0.0614961483333333, 237.073859481495, -0.00052237365930868, 0.60625,195.857940673828
0.062162855, 237.07899813018, -0.000587629381597725, 0.61375,202.094131469727
0.0628296283333333, 237.083987891852, -7.11543235817713E-05, 0.62,194.147933959961
0.0634963383333333, 237.08883628479, -7.43896610722049E-05, 0.62625,196.194473266602
0.0641628816666667, 237.094244847124, -0.000371922216313025, 0.63375,196.194473266602
0.0648295883333333, 237.099110998447, -0.000238970394348262, 0.64125,192.029708862305
0.065496265, 237.105036566518, -0.000103764185622827, 0.6475,190.897109985352
0.066162815, 237.110428270803, -0.000319801334340006, 0.6525,187.401458740234
0.0668293583333333, 237.11591039171, -6.1134826846427E-05, 0.66,194.192001342773
0.0674962933333333, 237.12096260209, 8.10025337579451E-05, 0.6675,194.192001342773
0.0681628616666667, 237.126964873544, 3.24529723416893E-05, 0.67375,194.498748779297
0.0688296316666667, 237.131762346926, -7.83119640668553E-05, 0.68,192.691986083984
0.06949611, 237.137516820293, -8.62045676158062E-05, 0.68875,185.618942260742
0.0701629133333333, 237.142625617959, -0.00025849641358802, 0.6925,187.329681396484
0.0708293216666667, 237.147934551273, -0.000181994256252987, 0.7,187.329681396484
0.0714959516666667, 237.153048973493, -9.05048516450939E-05, 0.70625,230.52555847168
0.0721628683333333, 237.157869962088, -3.17243041313804E-05, 0.71375,194.239105224609
0.07282924, 237.162967752715, 2.18560045835661E-05, 0.72,191.1689453125
0.0734964283333333, 237.168894220696, 0.000105244316086693, 0.725,191.1689453125
0.0741626616666667, 237.174288091681, 0.000126268760081609, 0.7325,199.591842651367
0.0748292733333333, 237.1797913373, -2.63410744703995E-05, 0.74,197.447402954102
0.0754967616666667, 237.185729809458, -0.000173957659855053, 0.745,192.488204956055
0.076162715, 237.19088929405, -0.000120884325673424, 0.75125,195.933944702148
0.076829485, 237.196202363293, -0.000159993361259009, 0.75875,192.458068847656
0.0774962183333333, 237.201594906033, 0.000100579550427414, 0.76625,192.458068847656
0.0781627783333333, 237.206860743555, 0.000280149030836972, 0.7725,200.109069824219
0.078829415, 237.212169874815, 0.000720799897433182, 0.77875,194.11198425293
0.0794961733333333, 237.217832012884, 0.000819470941295357, 0.78625,199.792816162109
0.0801635616666667, 237.223863753743, 0.000704741704008871, 0.7925,193.883911132813
0.08082928, 237.228846743394, 0.000426147197492952, 0.7975,193.883911132813
0.08149615, 237.234120707549, 0.000507039634342722, 0.80625,193.353607177734
0.0821633183333333, 237.239048855683, 0.000317677145803966, 0.8125,201.383987426758
0.0828295966666667, 237.244203987353, 0.000420315490392889, 0.81875,197.154708862305
0.0834964033333333, 237.248764252871, 0.000743150274749356, 0.825,194.936721801758
0.084163325, 237.253924462918, 0.00115099028939197, 0.8325,194.936721801758
0.0848293116666667, 237.25901956016, 0.000971149322601655, 0.8375,194.235916137695
0.0854962883333333, 237.264264583172, 0.000908681960267111, 0.845,197.920349121094
0.086163395, 237.269726349643, 0.000727117580061155, 0.8525,195.89030456543
0.08682941, 237.274847501351, 0.000524392262739586, 0.8575,199.143493652344
0.0874964633333333, 237.280329928006, 0.000269610560173084, 0.865,199.143493652344
0.0881629433333333, 237.285854082449, 0.000533676796432317, 0.87,231.664031982422
0.0888297033333333, 237.290947614065, 0.00068380875548757, 0.8775,194.680618286133
0.0894963433333333, 237.295847869377, 0.000683745758641379, 0.885,188.146286010742
0.0901633633333333, 237.300898230649, 0.000870583873941862, 0.89125,195.838317871094
0.0908299683333333, 237.306222698871, 0.000984714641285178, 0.8975,195.838317871094
0.0914961933333333, 237.311419413249, 0.0008841386930908, 0.90375,195.508560180664
0.09216335, 237.31720587844, 0.00063809255169415, 0.91,191.446350097656
0.092829295, 237.322823217784, 0.000756310613673967, 0.9175,192.313095092773
0.0934961066666667, 237.329151431351, 0.000456190688433698, 0.92375,193.69140625
0.0941628816666667, 237.334270238013, 0.000489214529631308, 0.93125,193.69140625
0.094829405, 237.339763435965, 0.000603312298637752, 0.93625,204.738021850586
0.0954960066666667, 237.34488484334, 0.00086747453003754, 0.94375,196.141403198242
0.0961625866666667, 237.349716210368, 0.00114859940942558, 0.95,193.598571777344
0.0968292683333333, 237.354561711161, 0.00153013824512994, 0.95625,196.000915527344
0.097496225, 237.359799761632, 0.00138484954284423, 0.9625,196.000915527344
0.0981628566666667, 237.364668879385, 0.00129796190707068, 0.97,195.274017333984
0.098829625, 237.369613723058, 0.00110072781392462, 0.97625,194.015426635742
0.0994959983333333, 237.374879093317, 0.000766714091099053, 0.9825,190.574020385742
0.100163375, 237.380089161462, 0.000497963590163298, 0.99,198.44563293457
0.100829261666667, 237.385587796387, 0.000427578125564947, 0.99625,198.44563293457
0.101495926666667, 237.390647144786, 0.000344293308888153, 1.0025,203.093185424805
0.102164116666667, 237.396036276217, 0.000574353253210594, 1.00875,196.662612915039
0.102829306666667, 237.401099355511, 0.000458260584407752, 1.01625,197.143951416016
0.103496763333333, 237.405514927899, 0.000732214323969826, 1.0225,194.665618896484
0.10416271, 237.409742325862, 0.000816813074678923, 1.03,194.665618896484
0.104829405, 237.414752473129, 0.000861062352065891, 1.035,233.37678527832
0.105495991666667, 237.41926444573, 0.000637617075509539, 1.0425,193.081512451172
0.106162605, 237.423817800644, 0.000854140199797135, 1.04875,195.638168334961
0.106829293333333, 237.429123083779, 0.000812325300099228, 1.055,190.997329711914
0.10749627, 237.434346908133, 0.000824728177115177, 1.0625,190.997329711914
0.108163276666667, 237.439537213023, 0.000519600003378505, 1.06875,198.313003540039
0.108829313333333, 237.444668384756, 0.000338809584249646, 1.075,200.705871582031
0.109496716666667, 237.449809733265, 0.000388259100456635, 1.08125,199.106964111328
0.11016267, 237.454417756034, 0.000288176627497199, 1.08875,197.461181640625
0.110829348333333, 237.459173038732, 0.000463316830400044, 1.095,197.461181640625
0.111496695, 237.463713697488, 0.000697657559713276, 1.10125,193.053009033203
0.112162943333333, 237.468733293742, 0.00113103979139731, 1.1075,194.303588867188
0.112829595, 237.473498058617, 0.000971413309296629, 1.115,194.535049438477
0.1134961, 237.478586741919, 0.00109938388148926, 1.12125,190.403854370117
0.114162751666667, 237.483368349576, 0.00103326120274636, 1.1275,190.403854370117
0.114829578333333, 237.488002379953, 0.000978909932760611, 1.135,193.429428100586
0.11549595, 237.493140250861, 0.000643894260242386, 1.14125,198.031646728516
0.116163006666667, 237.497814779162, 0.000657701066733579, 1.1475,189.910888671875
0.116829446666667, 237.50193367571, 0.000534639747984225, 1.155,189.910888671875
0.117496205, 237.50641095837, 0.000336757687389686, 1.16,201.621200561523
0.118163171666667, 237.510744387312, 0.000403010859598184, 1.1675,194.233581542969
0.118829376666667, 237.514465208985, 0.00059145389430771, 1.17375,191.550796508789
0.119496183333333, 237.518851678075, 0.00057594167349371, 1.18125,195.948196411133
0.120162641666667, 237.523435604686, 0.000351590442427757, 1.1875,196.585922241211
0.120829833333333, 237.527817667251, 0.000469879000918288, 1.19375,196.585922241211
0.121496138333333, 237.532180902273, 0.000573255308419885, 1.2,230.246795654297
0.12216289, 237.536441841602, 0.000525232220532935, 1.20875,198.069305419922
0.122829678333333, 237.540931498284, 0.00046828908071077, 1.215,194.917114257813
0.123496156666667, 237.545211451898, 0.000644075751116434, 1.22,194.097351074219
0.124162791666667, 237.549768227987, 0.000595919170000102, 1.2275,194.097351074219
0.124830463333333, 237.554347274881, 0.000375133259878316, 1.23375,195.907348632813
0.12549633, 237.558472915385, 0.000373393347294234, 1.24,193.937973022461
0.12616282, 237.562274567432, 0.000546558149396668, 1.24625,193.290863037109
0.126829261666667, 237.566257255388, 0.00031400683019408, 1.25375,200.973480224609
0.127496106666667, 237.570216522989, 0.000240666513989959, 1.26,200.973480224609
0.12816333, 237.574087626236, 0.000141263506870215, 1.26625,195.809646606445
0.128829451666667, 237.577974399895, -0.000120789830457273, 1.27375,191.707397460938
0.129496186666667, 237.581903149524, -0.00035673997891025, 1.28125,195.391021728516
0.130163343333333, 237.58618310174, -0.000319180365488279, 1.28625,198.918258666992
0.130829291666667, 237.590138550677, -8.18277874844605E-05, 1.2925,198.918258666992
0.1314962, 237.593444649051, 6.29059426870328E-05, 1.3,192.973693847656
0.13216294, 237.59690468757, 0.000215110797586399, 1.3075,201.566345214844
0.132829548333333, 237.600844221261, 0.000259282078925652, 1.3125,198.630599975586
0.133496261666667, 237.604095675921, 0.000530327464623474, 1.32,200.805389404297
0.134162951666667, 237.607779496843, 0.000207380185958017, 1.3275,200.805389404297
0.134829606666667, 237.611991723091, 1.65267723073731E-05, 1.3325,195.736145019531
0.135496146666667, 237.616033765435, 0.000115248813599259, 1.33875,202.272232055664
0.136162868333333, 237.619666191089, 0.000160453543001135, 1.34625,195.327865600586
0.136829603333333, 237.623501001118, -9.86689415960509E-05, 1.35375,198.519882202148
0.137495988333333, 237.627086537773, 0.000179441089231345, 1.36,198.519882202148
0.138162798333333, 237.630791126348, 0.000381381945941231, 1.36625,236.376480102539
0.138829365, 237.634022634346, 0.000519749995861339, 1.3725,197.966659545898
0.139496466666667, 237.638173409728, 0.00023982505618719, 1.37875,196.568267822266
0.140163315, 237.642202957284, 0.000313879336534786, 1.38625,195.277755737305
0.140829378333333, 237.645328692347, 0.000141046017746726, 1.3925,195.277755737305
0.141496161666667, 237.649591672084, 0.000261570963905089, 1.4,190.75553894043
0.142162583333333, 237.653728112958, 3.96640308030342E-06, 1.40625,201.325592041016
0.142829843333333, 237.657621429496, 0.000193625876693413, 1.41125,202.088119506836
0.143496188333333, 237.660834310141, 0.000126121767362565, 1.42,195.324722290039
0.144162773333333, 237.664742683447, 0.000278859095531358, 1.42625,195.324722290039
0.144829603333333, 237.667751472191, -8.41181725158254E-05, 1.43125,191.849258422852
0.145496148333333, 237.671732939316, -6.08978388119664E-05, 1.43875,196.207824707031
0.146163291666667, 237.674218396369, -7.50451282489697E-05, 1.44625,194.421997070313
0.146829993333333, 237.678889415221, -0.000103696689130952, 1.4525,200.078186035156
0.147496113333333, 237.682594983077, -2.63050764335001E-05, 1.4575,200.078186035156
0.148162721666667, 237.686223239234, 0.000207216694028029, 1.46625,197.936401367188
0.148829305, 237.689974851111, 0.00032112097272269, 1.4725,201.569061279297
0.149496313333333, 237.694023813956, 0.000650732416680797, 1.47875,194.621047973633
0.15016278, 237.697450834634, 0.000726586606588606, 1.485,204.842071533203
0.150829276666667, 237.701529946915, 0.000309619550400624, 1.49125,204.842071533203
0.151496265, 237.70553959679, 0.000290309520296189, 1.49875,199.811920166016
0.152162915, 237.709320901302, 0.000129618091677911, 1.505,204.539978027344
0.152829286666667, 237.713559724978, -0.00027294218813005, 1.51125,199.936080932617
0.153495993333333, 237.717014007863, -0.000607323392540681, 1.51875,239.810699462891
0.15416339, 237.720912302908, -0.000251844247860629, 1.525,239.810699462891
0.154829255, 237.724757862623, -0.000263866143993133, 1.53125,201.812515258789
0.15549663, 237.729146010754, -0.000429825308072087, 1.53875,200.303985595703
0.156162801666667, 237.732959729148, -0.000491977686196931, 1.545,201.704177856445
0.156829536666667, 237.737174045304, -0.000344965570431807, 1.55125,201.675918579102
0.15749621, 237.74112965799, -0.000610845215570882, 1.5575,201.675918579102
0.158162956666667, 237.745443051066, -0.00085991070525888, 1.56375,197.864410400391
0.158829466666667, 237.749029157149, -0.000973240512822078, 1.57125,196.928359985352
0.159496081666667, 237.753305005917, -0.000972300060072456, 1.5775,198.110748291016
0.16016302, 237.757398595263, -0.00102981467119853, 1.58375,195.840026855469
0.160829283333333, 237.761474146029, -0.00101160258596982, 1.59125,195.840026855469
