Time (min), Depth (µm), Load (N), Position (µm), Acoustic (aJ)
7.43E-06, 236.680302309167, -0.000685513807363893, 0,201.383117675781
0.000666866666666667, 236.680974702708, -0.000987387144592889, 0.0025,203.27864074707
0.00133288833333333, 236.680931279147, -0.00107627567981794, 0.00875,205.104339599609
0.00199967666666667, 236.681350897767, -0.000912632399442701, 0.015,205.104339599609
0.00266646166666667, 236.682394181922, -0.00117279583163951, 0.02125,208.3984375
0.00333282666666667, 236.684359953444, -0.00115531720959277, 0.03,200.057693481445
0.003999745, 236.687103364608, -0.00087291889415257, 0.0375,207.295333862305
0.00483293, 236.690732435931, -0.000697195220550588, 0.045,201.328308105469
0.00549963166666667, 236.69554742788, -0.000750874524318658, 0.05125,239.600067138672
0.00616613333333333, 236.699874238408, -0.000800243044629125, 0.05875,239.600067138672
0.00683282333333333, 236.704099548803, -0.000885381768165903, 0.065,198.380081176758
0.00749950833333333, 236.707856617822, -0.000921238967092619, 0.07375,194.709106445313
0.00833320166666667, 236.713593215323, -0.00123691011124513, 0.08,204.090484619141
0.00900036333333333, 236.717179773801, -0.0013465546038694, 0.08875,201.531860351563
0.00966725833333333, 236.720186571595, -0.00150656656662673, 0.09375,202.643661499023
0.0103328133333333, 236.724091458131, -0.00160269823804911, 0.1,202.643661499023
0.0110004383333333, 236.727176870172, -0.0015556905991957, 0.10625,205.263778686523
0.0116663633333333, 236.730571422722, -0.00145857797706482, 0.11375,202.950881958008
0.0123328966666667, 236.733391133932, -0.00101602220617891, 0.12,203.789962768555
0.0130003683333333, 236.736988066423, -0.000669868093129224, 0.12625,203.473892211914
0.0136662433333333, 236.740738414767, -0.00055898166286527, 0.1325,203.473892211914
0.0143331633333333, 236.745304501581, -0.000686482758655922, 0.14,198.022232055664
0.0149997416666667, 236.749706058405, -0.00076875512616923, 0.14625,199.096954345703
0.01566628, 236.755319736457, -0.000728735636300835, 0.1525,199.639892578125
0.01633311, 236.760475465464, -0.000711862983819284, 0.16,205.940185546875
0.0169998366666667, 236.766032958818, -0.000962455396826102, 0.16625,205.940185546875
0.0176666983333333, 236.771681099556, -0.000804529829211259, 0.1725,208.740982055664
0.0183328433333333, 236.77746865861, -0.00072407687029666, 0.17875,199.41162109375
0.0189996516666667, 236.782982492598, -0.000753455894620492, 0.18625,200.448745727539
0.019666335, 236.788374300489, -0.000746676235148792, 0.1925,199.119018554688
0.0203328033333333, 236.793819664133, -0.000634174385962463, 0.19875,199.119018554688
0.0209997633333333, 236.799268656742, -0.000878060635814594, 0.205,207.243438720703
0.021666545, 236.804945840235, -0.000916001230098754, 0.2125,207.209991455078
0.0223327866666667, 236.810169472996, -0.000918861586445865, 0.2175,252.247344970703
0.0229997183333333, 236.815570255817, -0.00113234736328551, 0.225,206.388031005859
0.02366684, 236.820395013816, -0.000843926850346032, 0.2325,206.388031005859
0.0243328683333333, 236.824735361898, -0.00043315898277942, 0.23875,202.661743164063
0.02499997, 236.829568965634, -0.000309428697618688, 0.245,206.303741455078
0.0256664433333333, 236.834778414737, -0.000341039609858396, 0.25125,207.148727416992
0.0263331566666667, 236.839822473966, -0.000122521585774401, 0.2575,207.246520996094
0.0269996366666667, 236.845346822155, -0.000319119710867211, 0.265,207.246520996094
0.0276661483333333, 236.85093949539, -0.000722363956351836, 0.27125,211.93977355957
0.0283328716666667, 236.855935745514, -0.000578561679404799, 0.2775,206.646545410156
0.0290003866666667, 236.861117103606, -0.000459679150723052, 0.285,210.584381103516
0.0296663883333333, 236.866713858634, -0.000681230022439279, 0.29125,214.811370849609
0.0303328, 236.872080844747, -0.000364489431953445, 0.2975,214.811370849609
0.0309997483333333, 236.877514485871, 5.05337218678491E-05, 0.305,213.709335327148
0.0316664716666667, 236.883463110007, -0.000236883341475819, 0.31125,213.27507019043
0.0323328, 236.889487883569, -2.80278320554303E-05, 0.3175,220.16162109375
0.0329997383333333, 236.895133320485, 0.000210305696678151, 0.325,213.813339233398
0.033666315, 236.900820272507, 0.000138244816223804, 0.33125,213.813339233398
0.0343330183333333, 236.906952762751, 0.000223529032491461, 0.3375,205.48860168457
0.0349997066666667, 236.912798808875, 0.000512588513332999, 0.34375,211.991058349609
0.0356663816666667, 236.918636165016, 0.000348624249071698, 0.35125,212.570526123047
0.03633314, 236.924588967692, 0.000566801790252391, 0.3575,210.822494506836
0.0369996, 236.930499253845, 0.000601430550859044, 0.36375,210.822494506836
0.0376662266666667, 236.936497066894, 0.000576038326300456, 0.37,207.412872314453
0.03833352, 236.942020388798, 0.000511402072874973, 0.3775,252.73176574707
0.0389996866666667, 236.948378588426, 0.000450734620121895, 0.38375,219.003646850586
0.0396664266666667, 236.954241019915, 0.000303908495025284, 0.39,213.88932800293
0.0403333, 236.960400318318, 0.000302804550494453, 0.3975,213.88932800293
0.041000305, 236.965994689567, 0.000518850698736797, 0.40375,216.168563842773
0.0416670416666667, 236.973051462338, 0.000290365675292826, 0.41,211.318405151367
0.0423336083333333, 236.978777109097, 0.000132281115712492, 0.41625,208.249328613281
0.042999775, 236.985380417387, -0.000226748350603932, 0.42375,207.085037231445
0.0436665266666667, 236.99156210497, -0.000313319502243378, 0.43,207.085037231445
0.04433288, 236.998313728066, -0.000466961284997369, 0.43625,215.099746704102
0.0450002383333333, 237.003570707991, -0.000335026411948047, 0.44375,214.093338012695
0.045667035, 237.009439904668, -0.000119371744038716, 0.45,213.187576293945
0.046333715, 237.014945590259, -7.52694592432667E-05, 0.45625,209.328857421875
0.0469996016666667, 237.021073819633, -0.0001187522751539, 0.4625,209.328857421875
0.0476664583333333, 237.026421167521, -0.000117585333798132, 0.47,206.123519897461
0.0483331466666667, 237.032394927068, -4.22081199355758E-05, 0.47625,207.992141723633
0.0489995633333333, 237.038131680473, -0.000159260740505282, 0.4825,204.790435791016
0.049666335, 237.04400012628, 0.000380413652209123, 0.49,207.850387573242
0.05033297, 237.048967544435, 0.000175159461939834, 0.49625,207.850387573242
0.05099976, 237.054920614578, 0.000243140547337188, 0.50375,209.501373291016
0.051666285, 237.059926130716, 0.00029546691903847, 0.51,206.421783447266
0.0523328433333333, 237.065524704662, 0.000368900230534339, 0.51625,208.627700805664
0.05299972, 237.07060792152, 0.000382294557772128, 0.5225,214.585494995117
0.0536663516666667, 237.076156829515, 0.000794572849446616, 0.52875,214.585494995117
0.054333145, 237.081365047923, 0.000766272270960013, 0.53625,203.81787109375
0.055000285, 237.086901326207, 0.000769531607262153, 0.5425,248.466903686523
0.05566674, 237.091958906627, 0.000687688218170685, 0.55,210.911346435547
0.0563332033333333, 237.097713050804, 0.000544077931547264, 0.555,212.749114990234
0.0569997783333333, 237.103462127595, 0.000342791042004723, 0.56375,212.749114990234
0.0576669383333333, 237.108304528719, 0.000524188930580664, 0.56875,208.553802490234
0.0583328616666667, 237.114275545517, 0.000346816839783198, 0.575,206.326171875
0.05899975, 237.119695570464, 0.000296354874433977, 0.5825,206.15446472168
0.059666605, 237.124880620969, 0.00031538441861124, 0.59,203.204315185547
0.0603328166666667, 237.129330410723, 0.000376759835746418, 0.59625,203.204315185547
0.0609996916666667, 237.134988918289, -4.60269281251473E-05, 0.60125,214.450134277344
0.0616662983333333, 237.139732407073, 7.02397319297273E-05, 0.61,201.761291503906
0.0623335716666667, 237.144956614829, 0.000145867433210136, 0.61625,207.787704467773
0.06299962, 237.150420597188, -0.000110702179563861, 0.62125,208.185195922852
0.063666205, 237.156944277482, -0.000288911228305869, 0.6275,208.185195922852
0.064333185, 237.162234132911, -0.000445144880853771, 0.635,208.701019287109
0.0650002283333333, 237.167132884695, -0.000319752679177927, 0.6425,210.961791992188
0.0656666966666667, 237.172625908192, -0.000361198597387616, 0.64875,211.501968383789
0.0663331433333333, 237.177483176307, -0.000222811048492774, 0.65625,207.772659301758
0.06700028, 237.181847305235, -7.15841444531098E-05, 0.66125,207.772659301758
0.0676664016666667, 237.186894731228, 0.000286339877386826, 0.6675,203.43994140625
0.0683331266666667, 237.192498767917, 6.90592911693142E-05, 0.675,208.16291809082
0.0690001833333333, 237.197209884478, 0.000269407227886637, 0.6825,206.647354125977
0.06966645, 237.202148724854, 0.000196756877078048, 0.68875,212.151931762695
0.0703327783333333, 237.206727308334, 0.000311511613079389, 0.695,212.151931762695
0.0710003166666667, 237.211054296942, 0.000386824330192606, 0.70125,212.392684936523
0.07166679, 237.216017610411, 0.000658033207650382, 0.70875,255.858581542969
0.07233335, 237.22071202685, 0.000428133755281598, 0.715,211.373992919922
0.0729997466666667, 237.225321818846, 0.000649236149516234, 0.72125,213.900970458984
0.07366633, 237.229866524612, 0.000678781665491336, 0.72875,213.900970458984
0.0743331066666667, 237.234464334492, 0.000698022699030713, 0.73375,210.776168823242
0.07499965, 237.238459999868, 0.00110659617683404, 0.74,216.130722045898
0.0756664966666667, 237.242981541707, 0.00133095490752201, 0.7475,218.505386352539
0.07633315, 237.247617963123, 0.00119899303585468, 0.755,212.718902587891
0.0769996583333333, 237.252503797644, 0.000964209828736219, 0.76,212.718902587891
0.0776663883333333, 237.257136226847, 0.000831550492051344, 0.7675,213.309768676758
0.0783327816666667, 237.261662384121, 0.000240176696121236, 0.77375,213.818099975586
0.0789997566666667, 237.266151188257, 6.72533818902344E-05, 0.78,214.557815551758
0.0796665183333333, 237.27005551275, 1.65649279348673E-05, 0.7875,208.654586791992
0.0803329683333333, 237.274356624021, 7.97507541435884E-05, 0.79375,208.654586791992
0.0810000616666667, 237.278666286089, -5.24901035265066E-05, 0.80125,206.505294799805
0.0816663433333333, 237.283439925171, -0.00014477146832559, 0.80625,214.229385375977
0.0823328016666667, 237.287871171574, -0.000288204763826918, 0.8125,218.672958374023
0.0829998566666667, 237.293127882519, -0.000428440219947894, 0.82125,211.183807373047
0.0836664166666667, 237.298283045558, -0.000534381398625397, 0.8275,211.183807373047
0.084332795, 237.303050197898, -0.000256821840117759, 0.83375,210.986618041992
0.0850004083333333, 237.307265813877, 0.000102302121478578, 0.84,213.844284057617
0.0856663433333333, 237.312149124021, 0.000271166639572978, 0.84625,209.743347167969
0.08633293, 237.31622583874, 0.000416314348943533, 0.8525,212.461868286133
0.08699968, 237.320656699276, 0.000395276405650242, 0.85875,212.461868286133
0.0876663633333333, 237.325037755824, -6.57689365214825E-05, 0.8675,213.562652587891
0.0883331883333333, 237.329326709862, -0.00046193203766559, 0.87375,255.412139892578
0.0889995916666667, 237.333253569507, -0.000555873819076637, 0.87875,205.736221313477
0.0896664266666667, 237.337275678882, -0.000476902785727506, 0.885,219.578628540039
0.0903328083333333, 237.340699256795, -0.000249956684976327, 0.89375,219.578628540039
0.0910002783333333, 237.344653401913, -0.000157469830470235, 0.9,208.863662719727
0.09166645, 237.349122395112, 0.000123031080238527, 0.905,212.43537902832
0.0923328616666667, 237.353350870337, 0.000217185850936092, 0.91125,214.975646972656
0.0929999433333333, 237.357345554945, 0.000293187033477928, 0.91875,214.784942626953
0.093666235, 237.361129880092, 0.000215079956712598, 0.925,214.784942626953
0.0943328233333333, 237.365466867053, 0.000203608532899851, 0.93125,213.073059082031
0.0949996266666667, 237.369295111, 2.32275932818599E-05, 0.93875,217.141418457031
0.0956663866666667, 237.372756102377, 0.000318618256113509, 0.945,209.187042236328
0.0963329616666667, 237.37659516793, -6.03077108127863E-05, 0.95125,215.875534057617
0.0969996416666667, 237.380441475651, -0.000154065001458471, 0.9575,215.875534057617
0.097667115, 237.383867376163, -0.00023354150943777, 0.96625,214.277542114258
0.098333375, 237.387086307353, -0.000183229536550129, 0.97125,209.069244384766
0.0989996266666667, 237.391093264256, -0.000535093862801961, 0.9775,217.995544433594
0.09966631, 237.394407956988, -0.000372806514321059, 0.985,215.279876708984
0.100332968333333, 237.397795425773, -0.000115066960342489, 0.99125,215.279876708984
0.1010003, 237.40096615929, 0.00020244459139289, 0.9975,212.781784057617
0.101666345, 237.404573209973, 0.000125042479203362, 1.00375,210.645965576172
0.102333173333333, 237.407648212756, 0.000157034372284005, 1.0125,217.640029907227
0.103000275, 237.41144839099, 0.000213688026611325, 1.0175,212.115921020508
0.103666521666667, 237.41445283189, 1.87098201715916E-05, 1.02375,212.115921020508
0.104333163333333, 237.418172853971, 0.000197389845239985, 1.03,213.395111083984
0.104999701666667, 237.421059877762, 0.000406465843611414, 1.0375,252.091369628906
0.105666875, 237.424440110091, 0.00042138109447041, 1.04375,212.403106689453
0.106332825, 237.42771072843, 0.000336132876409686, 1.05,212.001174926758
0.106999918333333, 237.431653533725, 0.00041741079391611, 1.0575,212.001174926758
0.107666388333333, 237.434712966649, 0.000228994757845842, 1.06375,209.635971069336
0.108333141666667, 237.438397476608, 0.000169521245130299, 1.07,215.198135375977
0.108999638333333, 237.441623909222, 0.000198940767434273, 1.07625,213.856002807617
0.109666366666667, 237.445089045439, 0.000255805911144961, 1.08375,208.296691894531
0.110333351666667, 237.448139690144, 0.00015736135593144, 1.09,208.296691894531
0.110999491666667, 237.451885502391, -0.000197912299062858, 1.09625,217.197509765625
0.111666365, 237.455129254901, -0.000517151763987092, 1.10375,212.819686889648
0.112333135, 237.458325224793, -0.000540510090757305, 1.11,210.855941772461
0.113000268333333, 237.461563786335, -0.000368303740476078, 1.115,210.793670654297
0.113666208333333, 237.465053987193, -0.000326290850756941, 1.1225,210.793670654297
0.11433321, 237.468070115427, -6.40965205142927E-05, 1.13,216.095718383789
0.115000391666667, 237.471738893136, 0.000173496045479063, 1.135,203.137313842773
0.115666378333333, 237.475482018179, 0.000121474158474151, 1.1425,207.259948730469
0.11633315, 237.479442086568, -0.000241410114260031, 1.15,206.547302246094
0.11700029, 237.482834717725, -8.31950612566139E-05, 1.15625,206.547302246094
0.117666438333333, 237.486386053133, -7.09736751359675E-05, 1.1625,216.306350708008
0.118332801666667, 237.489108773201, -1.65534086276721E-05, 1.16875,216.448425292969
0.118999461666667, 237.492510500031, -7.08566810325135E-05, 1.17625,215.349945068359
0.119666331666667, 237.494590616286, 0.000206693877907451, 1.1825,209.713104248047
0.120332786666667, 237.497507632121, 0.000213944513726791, 1.18875,209.713104248047
0.120999856666667, 237.500678776023, 9.07017040821344E-05, 1.19625,256.413238525391
0.12166681, 237.504110794382, 5.15761693281131E-05, 1.20375,211.869552612305
0.122332761666667, 237.506479589977, 0.000146305411178395, 1.20875,212.541809082031
0.123000175, 237.510200782259, -4.64319078202974E-05, 1.215,213.185333251953
0.123667916666667, 237.513369533292, -0.000185189938127761, 1.2225,213.185333251953
0.124332958333333, 237.515601708173, -1.95014206580791E-06, 1.22875,212.709686279297
0.125000186666667, 237.518217404983, 0.00033539191356319, 1.235,216.704940795898
0.125667076666667, 237.521338135376, 0.000553843940930933, 1.2425,213.88459777832
0.126333675, 237.524664138691, 0.000722009494147145, 1.24875,212.215744018555
0.126999583333333, 237.527894819249, 0.000941535467578908, 1.255,212.215744018555
0.127666145, 237.531454060945, 0.000958717104572546, 1.26125,205.614944458008
0.128332801666667, 237.535363385222, 0.000769261620742042, 1.27,209.701950073242
0.129000345, 237.538690135904, 0.000625387347402394, 1.27625,211.302124023438
0.129666368333333, 237.541067831694, 0.000747220227852939, 1.28125,205.118713378906
0.130332878333333, 237.544869196891, 0.000286584365149574, 1.2875,205.118713378906
0.131000218333333, 237.547880161082, 0.000349543702773403, 1.295,212.054794311523
0.131667385, 237.550468427465, 0.000560482607508728, 1.3025,209.736328125
0.132333663333333, 237.553547607063, 0.000374242962172669, 1.30875,215.024841308594
0.132999705, 237.556554327715, 0.000192662082798277, 1.315,210.09455871582
0.133666923333333, 237.558481295636, 0.000271538620910003, 1.32125,210.09455871582
0.13433292, 237.561398608741, 0.000265835907351128, 1.33,208.020919799805
0.134999838333333, 237.564165857056, 0.000130173721522087, 1.33375,214.139175415039
0.135666363333333, 237.56691128522, 0.00038067313915214, 1.34125,213.580474853516
0.136332945, 237.570578970033, 0.000276780857528299, 1.34875,211.632400512695
0.136999705, 237.574059590984, 0.000305087435712515, 1.355,211.632400512695
0.137666968333333, 237.5780504193, 0.000181822127180555, 1.36125,258.577545166016
0.13833312, 237.581753769727, -0.000211656108792876, 1.36875,210.499206542969
0.139, 237.585466015862, -0.000307387300272059, 1.375,220.991516113281
0.139667021666667, 237.588848416554, -0.00015809829890147, 1.38,215.311996459961
0.14033337, 237.592918315076, -0.000169040249293597, 1.38875,215.311996459961
0.141001088333333, 237.595861601498, -0.000363767968336733, 1.39375,213.849990844727
0.14166803, 237.599608547487, -0.000247585304069694, 1.40125,211.338928222656
0.142333526666667, 237.602598142924, -0.000280142668735383, 1.4075,212.471527099609
0.142999863333333, 237.606080527577, -0.000674669352057979, 1.41375,212.471527099609
0.14366628, 237.609011796034, -0.000620507072589552, 1.42125,215.121231079102
0.144332821666667, 237.611989556851, -0.000586734768923429, 1.4275,220.873001098633
0.14500004, 237.615009151312, -0.000741323004103401, 1.435,217.351470947266
0.145666281666667, 237.618954674089, -0.000920877485268926, 1.4425,211.637176513672
0.146332835, 237.622062766287, -0.000848344128542536, 1.44625,221.965560913086
0.147001148333333, 237.624893976702, -0.000797076703639987, 1.45375,221.965560913086
0.147666158333333, 237.629228574392, -0.000551410043223632, 1.46,214.20524597168
0.148333173333333, 237.631038527241, -0.000251512106795046, 1.46625,216.940521240234
0.14900017, 237.634669794552, -0.000276851834020774, 1.47375,220.157943725586
0.149666385, 237.637074547839, -0.00024742331217038, 1.48,222.612548828125
0.150332918333333, 237.640698680771, -0.000467117277177816, 1.4875,222.612548828125
0.150999658333333, 237.643292864406, -0.000783647878183432, 1.49375,216.543487548828
0.151666895, 237.647367937419, -0.000902917387361218, 1.5,223.887908935547
0.152333198333333, 237.650821120909, -0.000664853845062731, 1.50625,220.490509033203
0.152999725, 237.654532727823, -0.000344408440748244, 1.51375,216.149871826172
0.153666353333333, 237.658254238569, -0.000215794400880342, 1.51875,216.149871826172
0.15433314, 237.662238096218, -1.61109307586781E-05, 1.52875,259.93505859375
0.154999658333333, 237.667148355439, 7.74678688617645E-05, 1.53375,222.616394042969
0.155666856666667, 237.670940567829, 0.000170214210310874, 1.54,213.087966918945
0.156332843333333, 237.676192904312, -0.000214528464450197, 1.545,217.027740478516
0.156999666666667, 237.681171664963, -0.000105999915709484, 1.5525,217.027740478516
0.157667093333333, 237.685668642792, 7.47920032800165E-05, 1.55875,219.008865356445
0.158332816666667, 237.690122550553, 8.93547717979762E-05, 1.56625,213.31559753418
0.159000088333333, 237.694799835881, -8.53969505781537E-05, 1.5725,217.133209228516
0.159666296666667, 237.700611029805, 0.000368822234465369, 1.57875,215.946151733398
0.160333418333333, 237.705029588734, -3.59405946682764E-06, 1.585,215.946151733398
