Time (min), Depth (µm), Load (N), Position (µm), Acoustic (aJ)
7.82333333333333E-06, 239.358518124155, 0.000608182080185974, 0,465.636749267578
0.00066684, 239.35834115928, 0.000601982891564605, 0.00125000000000819,465.636749267578
0.001334505, 239.357697535957, 0.000428045628266968, 0.0162499999999954,467.012542724609
0.00199964666666667, 239.358402838649, 0.000371292978907779, 0.0387500000000318,483.257568359375
0.00266645333333333, 239.360408828547, 0.000249680587365767, 0.0612500000000127,491.199249267578
0.003333095, 239.364400943253, 0.000142471972333716, 0.0787500000000163,491.361938476563
0.00399989833333333, 239.370555367806, 0.000326641721674467, 0.0962500000000199,491.361938476563
0.00466616166666667, 239.38008658567, 0.000828282524770455, 0.113750000000024,488.617370605469
0.00533361, 239.390891228484, 0.000627789095343508, 0.128750000000011,390.349884033203
0.00600038166666667, 239.403058627284, 0.000626064181982204, 0.146250000000014,490.383575439453
0.00666621833333333, 239.416547223105, 0.000741666375398911, 0.163750000000018,492.230987548828
0.00733287833333333, 239.430725330851, 0.000633859290423689, 0.181250000000022,492.230987548828
0.00800048166666667, 239.44517940451, 0.000456524697778813, 0.197500000000017,490.774505615234
0.008666495, 239.459677259663, 0.000608786549826758, 0.212500000000004,494.305419921875
0.00933296833333333, 239.47444898869, 0.000481196958496313, 0.230000000000008,493.966064453125
0.0100000566666667, 239.489465826224, 0.00047945704591223, 0.246250000000003,589.39501953125
0.0106666933333333, 239.503894210931, 0.000474382800784591, 0.265000000000015,589.39501953125
0.0113342483333333, 239.518388922922, 0.000745699672799402, 0.281250000000011,489.584686279297
0.0119995116666667, 239.53323761712, 0.0008714773551319, 0.297500000000006,488.860534667969
0.01266669, 239.547632712829, 0.00117380066978814, 0.313750000000002,495.410766601563
0.0133331033333333, 239.561935157702, 0.000932650282515146, 0.329999999999997,486.190063476563
0.0140004466666667, 239.575878858769, 0.00122368366419018, 0.346250000000048,486.190063476563
0.0146671516666667, 239.589952521781, 0.000914006218994537, 0.363749999999996,485.161407470703
0.0153336116666667, 239.603986385342, 0.000837130580398077, 0.380000000000047,487.573638916016
0.0160016366666667, 239.618548469744, 0.000491186456807354, 0.395000000000034,486.597991943359
0.0166667016666667, 239.632068895905, 0.000753421285030144, 0.412500000000038,490.206451416016
0.017332905, 239.646675479329, 0.000737513084067413, 0.428750000000033,490.206451416016
0.0180000533333333, 239.660981167331, 0.000834613706803074, 0.443750000000021,490.958435058594
0.0186664283333333, 239.675435044406, 0.000899896427688869, 0.461250000000024,490.259643554688
0.019333655, 239.69014597435, 0.000846206624492485, 0.478750000000028,488.459503173828
0.0199994883333333, 239.705516488906, 0.000739213998595757, 0.496250000000031,489.196166992188
0.020667145, 239.72078126247, 0.000692117864202561, 0.512500000000027,489.196166992188
0.0213334016666667, 239.735868183434, 0.000631621402852709, 0.528750000000022,492.723236083984
0.0220001533333333, 239.751200101729, 0.00056451927334695, 0.54375000000001,487.874694824219
0.022666275, 239.765729037698, 0.000752462833145176, 0.561250000000013,491.700897216797
0.0233330983333333, 239.780567207061, 0.000878808986932779, 0.577500000000009,493.968933105469
0.023999525, 239.795341014575, 0.000673872780658234, 0.593750000000004,493.968933105469
0.0246673616666667, 239.810668389476, 0.000532398386788881, 0.609999999999999,487.952453613281
0.0253329783333333, 239.825718180258, 0.000596193182432849, 0.626249999999995,487.9931640625
0.0259996133333333, 239.841212614403, 0.000609789999465078, 0.643749999999998,489.283020019531
0.02666616, 239.856192030513, 0.000456950676394355, 0.660000000000049,588.152404785156
0.0273334516666667, 239.872003141392, 0.000508914066305032, 0.673750000000028,588.152404785156
0.0279997033333333, 239.887236135453, 0.000506475188821507, 0.69250000000004,529.708435058594
0.028666765, 239.9026510085, 0.000366460221609064, 0.710000000000044,593.713134765625
0.0293336633333333, 239.918526767398, 0.000320405034900508, 0.726250000000039,598.817504882813
0.029999605, 239.934613862192, 0.000368620113111075, 0.742500000000035,607.110168457031
0.030667035, 239.950193739896, 0.000268443144935488, 0.760000000000038,607.110168457031
0.0313346233333333, 239.966367719804, 0.000428564602195512, 0.777500000000042,601.441772460938
0.032000075, 239.982400207129, 0.000361541968683126, 0.793750000000037,595.59765625
0.0326667433333333, 239.998207386584, 0.000107169745542476, 0.808750000000025,591.527709960938
0.0333333216666667, 240.013937431311, 0.000114892857612605, 0.826250000000028,610.162475585938
0.034000055, 240.029198553258, 2.64752987139361E-05, 0.843750000000032,610.162475585938
0.0346667616666667, 240.044743834545, 0.000149595114536271, 0.860000000000027,601.075622558594
0.035333485, 240.059773994312, 0.000123208439907036, 0.876250000000023,599.192626953125
0.0360002283333333, 240.074192067994, 0.000323460381483805, 0.892500000000018,594.345886230469
0.0366666566666667, 240.088914350378, 0.000324990304630177, 0.910000000000022,601.146240234375
0.0373334066666667, 240.103542514147, 0.000488450594228222, 0.927500000000026,601.146240234375
0.038001175, 240.118094158346, 0.000296281746642126, 0.943750000000021,597.082336425781
0.0386672316666667, 240.133018777045, 0.000323773865747848, 0.960000000000016,595.804138183594
0.0393331, 240.148393802862, 0.000121363532593472, 0.97750000000002,602.862182617188
0.039999695, 240.163599755706, -9.59305529436695E-05, 0.995000000000024,599.581970214844
0.0406676916666667, 240.178961427293, -9.22857360486382E-05, 1.01000000000001,599.581970214844
0.041333405, 240.193355557367, -0.000145471564581766, 1.02625000000001,598.126708984375
0.0419996866666667, 240.208025877329, -0.000228499894164348, 1.0425,594.240356445313
0.0426664466666667, 240.222488773192, -0.000349671307825532, 1.06000000000001,593.46826171875
0.0433342433333333, 240.236468914744, -0.000328321380213855, 1.07625,716.028747558594
0.0440000433333333, 240.250046354187, -0.000164114128199226, 1.0925,716.028747558594
0.04466714, 240.264191964918, -6.31736983536022E-05, 1.11125000000001,597.374938964844
0.045332965, 240.278474180158, 5.14085462988564E-05, 1.1275,610.77880859375
0.0460000066666667, 240.292489701361, 7.09870628927284E-05, 1.14500000000001,593.079223632813
0.0466696066666667, 240.306896901848, -0.000135107085254926, 1.15999999999999,594.827270507813
0.0473358183333333, 240.320926571, -0.000531162191799491, 1.1775,594.827270507813
0.04800251, 240.333807694703, -0.000638616794412423, 1.19375000000005,597.76708984375
0.0486667433333333, 240.346491866153, -0.000832116075156749, 1.21000000000004,598.606262207031
0.0493333216666667, 240.359499452609, -0.000792000590105291, 1.22625000000004,597.361450195313
0.0499996116666667, 240.371661067138, -0.000318037896719775, 1.24250000000004,586.848876953125
0.050666195, 240.384387808335, -0.000228186409857797, 1.26000000000004,586.848876953125
0.05133332, 240.397559756245, -0.000282434185080972, 1.27625000000003,593.362731933594
0.05200021, 240.410755269305, -0.000289969806536931, 1.29125000000002,584.76953125
0.052666755, 240.423201020594, -0.000218865878021896, 1.30875000000003,578.417541503906
0.0533328133333333, 240.436027919325, -0.000354696055447864, 1.32500000000002,586.317749023438
0.05399954, 240.448914396967, -0.000791997590277738, 1.34125000000002,586.317749023438
0.0546676683333333, 240.461423641711, -0.000874560943189041, 1.35875000000002,583.202514648438
0.0553365066666667, 240.472895234034, -0.000958081248060908, 1.37500000000002,581.395263671875
0.0560002066666667, 240.484542521254, -0.000678444293935947, 1.39125000000001,577.798767089844
0.056666145, 240.495631451396, -0.000694353994801828, 1.40750000000001,568.408996582031
0.0573344283333333, 240.506125035846, -2.00868625704458E-05, 1.42375,568.408996582031
0.0580010133333333, 240.516692036619, -3.42911490922646E-05, 1.44,582.921325683594
0.0586667633333333, 240.527267528593, -4.79614624415073E-05, 1.45625000000005,592.807678222656
0.0593334966666667, 240.538067713214, -0.000481624180031456, 1.47250000000004,708.212585449219
0.0599996, 240.548817077254, -0.000294297089290494, 1.49000000000005,593.761962890625
0.0606661466666667, 240.559592364443, -0.000601994633976283, 1.50625000000004,593.761962890625
0.0613343766666667, 240.570358367317, -0.000569722254968468, 1.52250000000004,593.650634765625
0.0620023966666667, 240.580860877865, -0.000197091471825351, 1.53875000000003,593.755798339844
0.062666925, 240.591305008462, -3.3094209227178E-05, 1.55625000000004,601.065185546875
0.0633331183333333, 240.601517809311, -0.00016332216802929, 1.57125000000002,590.774841308594
0.0640010133333333, 240.611514260635, 7.7067413828397E-06, 1.58750000000002,590.774841308594
0.0646668883333333, 240.6211219033, -6.06958228355925E-05, 1.60500000000002,600.770874023438
0.0653343366666667, 240.631383140752, -0.000243932619069993, 1.62500000000004,599.590942382813
0.066043425, 240.641034268111, -0.000116716509000976, 1.64250000000005,579.271850585938
0.0666663783333333, 240.651287706211, -0.00020255119758839, 1.65500000000002,441.895660400391
0.067333385, 240.660921489328, -4.31215494336692E-06, 1.67250000000002,441.895660400391
0.0680001966666667, 240.671333631424, 0.000156277278794235, 1.68875000000002,437.016265869141
0.06866708, 240.681188270905, 0.00031771566989286, 1.70625000000002,438.259094238281
0.0693334666666667, 240.691763650734, 2.83127062992137E-05, 1.72250000000002,441.301971435547
0.0699995633333333, 240.701616351744, 3.74187489029411E-05, 1.74125000000003,440.380767822266
0.0706668516666667, 240.712286913918, -6.71844969943154E-05, 1.75750000000002,440.380767822266
0.0713343966666667, 240.722845957184, -0.000240284802304901, 1.77375000000002,434.529357910156
0.0719996466666667, 240.73334677186, -0.000179747843017415, 1.79125000000002,440.667175292969
0.072667135, 240.743278108537, -5.79708037889546E-06, 1.80625000000001,439.826416015625
0.0733345516666667, 240.753953072705, 1.58498322858805E-05, 1.82375000000001,437.678314208984
0.0740009383333333, 240.764207547382, 5.55963358703751E-05, 1.84125000000002,437.678314208984
0.0746663583333333, 240.774564451891, 0.000346823207835941, 1.85625,439.033966064453
0.0753338083333333, 240.785438148091, 0.000402459913269073, 1.87500000000002,442.034240722656
0.0759996033333333, 240.79673345825, 0.000401019985586897, 1.89,525.009948730469
0.0766662983333333, 240.807117410916, 0.000565201738950433, 1.90625,433.674377441406
0.0773344533333333, 240.818082439413, 0.000575093742068992, 1.92250000000005,433.674377441406
0.0779994733333333, 240.828481086458, 0.000525273744470636, 1.94125000000001,435.506256103516
0.0786662116666667, 240.838875886689, 0.000606053686968907, 1.95625000000005,443.753509521484
0.0793331983333333, 240.848815626845, 0.000672387855073927, 1.97250000000004,443.783721923828
0.0799996366666667, 240.859457865289, 0.00060793009269494, 1.99000000000005,436.663482666016
0.08066635, 240.870372704341, 0.000393601358191883, 2.0075,436.663482666016
0.081333625, 240.881354980495, 0.000316328239522289, 2.02375000000005,435.590759277344
0.0820000133333333, 240.89175893112, 9.78357142169122E-05, 2.03875000000003,433.914337158203
0.082666465, 240.902990407159, 0.000115087847657503, 2.05625000000004,434.127471923828
0.0833334616666667, 240.91401930497, -0.000116854502088583, 2.07250000000003,433.454650878906
0.0839995583333333, 240.924698559198, -0.000153124180311212, 2.09000000000004,433.454650878906
0.0846663766666667, 240.935559604012, -0.000215702537051597, 2.10625000000003,439.805084228516
0.08533302, 240.946948110425, -0.000272956161310253, 2.12250000000003,442.321563720703
0.0859995366666667, 240.957986552982, -0.000463485591226031, 2.13875000000002,440.617919921875
0.0866747366666667, 240.969099482099, -0.000461666182606068, 2.15500000000002,438.661224365234
0.0873333583333333, 240.980329187258, -0.000665328952807197, 2.17125000000001,438.661224365234
0.0880000533333333, 240.991646784737, -0.0010956363389332, 2.18875000000002,441.585083007813
0.0886666766666667, 241.002573236038, -0.00127834516162887, 2.20500000000001,435.222808837891
0.0893343116666667, 241.01373113383, -0.00133791466950622, 2.22125000000001,434.850769042969
0.0900000433333333, 241.024914003519, -0.001472483410254, 2.23625,432.591522216797
0.09066673, 241.03489677251, -0.0012148023533059, 2.25000000000003,432.591522216797
0.0913343566666667, 241.04395169778, -0.000867937275961549, 2.26999999999999,419.295928955078
0.0920002416666667, 241.053920939484, -0.000973513972945299, 2.28625000000005,349.789245605469
0.09266767, 241.06371159114, -0.0010819435266754, 2.30250000000004,426.966278076172
0.0933330416666667, 241.073415930561, -0.000785036440017006, 2.32000000000004,351.221862792969
0.094000345, 241.083475884078, -0.000934406437305371, 2.33625000000004,351.221862792969
0.0946667016666667, 241.095256755969, -0.000976486823686417, 2.35375000000004,351.062438964844
0.095332825, 241.106013589128, -0.000734634471707677, 2.37000000000004,353.692321777344
0.0959999183333333, 241.116764650565, -0.000506707420247989, 2.38625000000003,357.206207275391
0.0966661866666667, 241.127531288838, -0.000559522767389749, 2.40250000000003,353.897857666016
0.0973335733333333, 241.13896096231, -0.000414097571940829, 2.42000000000003,353.897857666016
0.097999635, 241.149768446335, -0.000277689923513337, 2.43625000000003,354.582763671875
0.0986662116666667, 241.161064116523, -0.000190553300246337, 2.45250000000002,347.67724609375
0.099332805, 241.171458607848, -0.000214207112145246, 2.46875000000002,348.448486328125
0.0999995366666667, 241.182389371301, -0.00025514005610275, 2.48625000000002,343.622161865234
0.100667346666667, 241.193020277325, -0.000355458017236006, 2.50250000000002,343.622161865234
0.101333415, 241.20298700819, -0.000148481913432965, 2.51875000000001,361.535614013672
0.102000028333333, 241.212792573826, -3.32607008784479E-05, 2.53500000000001,351.901214599609
0.102667061666667, 241.223793444997, 2.40889185207626E-05, 2.55125,352.662414550781
0.103332841666667, 241.233930194799, 0.000188183676183893, 2.5675,347.525726318359
0.104000966666667, 241.244229136533, 0.000466254708976804, 2.585,347.525726318359
0.104666381666667, 241.254791842832, 0.000497819123517503, 2.60250000000001,352.171539306641
0.105334461666667, 241.266240565669, 0.000309589078094493, 2.62000000000001,356.135711669922
0.10599949, 241.276808449829, 0.000233461901881529, 2.63625000000001,345.137115478516
0.106667766666667, 241.287500338552, 0.000152056490800829, 2.6525,354.861511230469
0.107332973333333, 241.298389531737, -3.44219864069869E-06, 2.67000000000001,354.861511230469
0.107999545, 241.309084763284, 5.27059811202154E-05, 2.68750000000001,345.196868896484
0.108666153333333, 241.319095000015, 8.41819001211219E-05, 2.70375,351.031158447266
0.109332906666667, 241.329332986241, 3.41879112494795E-05, 2.72,419.170043945313
0.109999488333333, 241.339693407901, -3.13662960383217E-05, 2.73625,357.780792236328
0.110666315, 241.350199384543, 8.08865656120496E-05, 2.75250000000005,357.780792236328
0.111333743333333, 241.361032536556, 6.3325447680625E-05, 2.76999999999999,349.456970214844
0.1120011, 241.372315191983, 0.000169803599422019, 2.7875,349.573638916016
0.112666925, 241.383724421393, 0.000226721240486821, 2.80375000000005,350.047119140625
0.113332833333333, 241.394609387867, 0.000412747896578871, 2.82000000000004,351.617340087891
0.11399963, 241.405444048299, 0.000609737502004694, 2.83625000000004,351.617340087891
0.114667263333333, 241.416401051125, 0.000703190307975263, 2.85250000000004,351.832672119141
0.115333163333333, 241.427012550166, 0.000572129890980564, 2.86875000000003,349.660583496094
0.115999556666667, 241.438245053922, 0.000761130897695627, 2.88625000000003,359.808197021484
0.116666925, 241.450256705291, 0.000733571281970504, 2.90125000000002,354.928070068359
0.117333073333333, 241.463176509679, 0.00012047707707986, 2.91875000000003,354.928070068359
0.117999621666667, 241.476233230704, -4.86124296962834E-05, 2.93375000000001,355.187744140625
0.11866624, 241.489722092129, -0.000126133035934923, 2.95000000000001,348.204772949219
0.119333158333333, 241.503252204859, -0.000263491636561606, 2.96750000000001,362.006378173828
0.119999826666667, 241.517561870218, -0.000535667965408263, 2.98500000000002,356.451354980469
0.120666176666667, 241.530982237667, -0.000154381117088666, 3.00125000000001,356.451354980469
0.121333018333333, 241.545464470173, -0.000476480938402521, 3.01875000000001,359.434326171875
0.121999523333333, 241.559546709531, -0.000327257933748183, 3.03375,348.305206298828
0.122666186666667, 241.573736613865, -0.000431642190597548, 3.05125000000001,352.730102539063
0.123332868333333, 241.58722329905, -0.000301141245532789, 3.06625000000005,354.735534667969
0.123999853333333, 241.601262098756, -0.00063811581964048, 3.08375,354.735534667969
0.124666356666667, 241.614603435675, -0.000610098726908601, 3.10000000000005,355.239105224609
0.125332968333333, 241.628188574929, -0.000434837030150347, 3.11500000000003,355.140960693359
0.125999998333333, 241.641637955516, -0.000563838050578053, 3.13250000000004,422.108795166016
0.126666435, 241.655528037573, -0.000521291187665086, 3.14875000000003,352.326690673828
0.12733294, 241.669202991553, -0.000285935009382069, 3.16625000000004,352.326690673828
0.1279997, 241.683365375372, -0.000319642816256343, 3.18250000000003,348.635833740234
0.12866617, 241.697381539902, -0.000604532506512931, 3.19875000000003,351.760070800781
0.12933312, 241.711307658388, -0.000339245331598159, 3.21625000000003,353.568206787109
0.12999999, 241.725725438573, -0.000361565710426268, 3.23125000000002,353.322052001953
0.130667078333333, 241.740352998249, -0.000458115860799663, 3.24875000000002,353.322052001953
0.131333533333333, 241.753987551109, -0.000345338025501881, 3.26625000000003,373.250122070313
0.132000215, 241.768187642535, -0.000366297972683694, 3.28250000000002,377.489044189453
0.132667068333333, 241.782376526297, -0.00092171407470956, 3.29875000000002,384.992126464844
0.133333498333333, 241.79609465255, -0.000938799716562644, 3.31500000000001,373.976959228516
0.13399956, 241.809183954267, -0.000771126138635717, 3.33125000000001,373.976959228516
0.134667905, 241.822885211642, -0.000647929826668816, 3.34875000000001,379.696258544922
0.13533341, 241.836308742159, -0.000431900177637416, 3.36625000000002,374.278717041016
0.136000038333333, 241.849734087673, 8.21465023233272E-05, 3.38250000000001,373.810302734375
0.136666728333333, 241.862669588102, 0.000141147538766828, 3.3975,379.030853271484
0.137334446666667, 241.875962448816, 0.000322669921089493, 3.41625000000001,379.030853271484
0.137999516666667, 241.888802878319, 0.000347534172194372, 3.43250000000001,380.2958984375
0.138667581666667, 241.901817358928, 0.000209749592973401, 3.45000000000001,380.142669677734
0.139334323333333, 241.914935276838, 0.000208159672829645, 3.46625,376.871795654297
0.140000235, 241.928256426603, 0.000245263309169263, 3.48375000000001,371.698181152344
0.140666876666667, 241.941565990211, 0.000281379995081505, 3.5,371.698181152344
0.141333183333333, 241.955126265351, 0.00015779820245795, 3.51750000000001,380.70458984375
0.142000171666667, 241.968422752516, 0.000338905105657151, 3.53249999999999,452.92138671875
0.142666895, 241.981776551805, 0.000192999934314172, 3.55,382.85986328125
0.143333083333333, 241.994987281007, 0.000241591493592465, 3.5675,376.41943359375
0.143999458333333, 242.008390521552, 2.21851705613899E-06, 3.58375,376.41943359375
