Time (min), Depth (µm), Load (N), Position (µm), Acoustic (aJ)
7.01E-06, 239.274432417102, -0.00133230994508555, 0,397.885894775391
0.000666783333333333, 239.273576329972, -0.00114717574418347, 0.00125000000000819,397.643188476563
0.00133297166666667, 239.271376896094, -0.000917019804677965, 0.0125000000000264,397.643188476563
0.00200014, 239.273806695487, -0.00068325954619381, 0.0450000000000172,431.303253173828
0.00283296166666667, 239.279988469101, -0.000390580747129587, 0.0674999999999981,435.800476074219
0.003500015, 239.289309944125, -0.000417393400353109, 0.0850000000000017,350.444671630859
0.00416623, 239.302707068871, -0.000461765671583653, 0.101249999999997,443.842681884766
0.00483293666666667, 239.317829404351, -0.000293439626413784, 0.117500000000048,441.728302001953
0.005505425, 239.332005381501, -0.000147327465503156, 0.134999999999996,441.728302001953
0.00616632833333333, 239.34531185388, -0.000169599846792869, 0.151250000000047,445.331939697266
0.006832985, 239.358342079815, -0.00028806089661103, 0.167500000000043,438.711303710938
0.00749973833333333, 239.37172015354, -0.000117085984498672, 0.185000000000046,451.427368164063
0.00816633666666667, 239.385209492156, -0.000329931293511857, 0.201250000000042,445.945007324219
0.00883300333333333, 239.398737471487, -0.000472932610678776, 0.217500000000037,445.945007324219
0.009499755, 239.413192880089, -0.000378506353642968, 0.235000000000041,436.532318115234
0.0101662983333333, 239.426967661269, -0.000330724753691213, 0.252500000000044,442.751312255859
0.0108330383333333, 239.440424761981, -0.00034406208375917, 0.26875000000004,439.8125
0.0114996883333333, 239.45420012309, -0.000220876271284346, 0.285000000000035,450.129241943359
0.01216633, 239.467882295223, -0.000282145193808146, 0.301250000000031,450.129241943359
0.012833015, 239.481093245517, -0.000294641066158351, 0.317500000000026,525.082763671875
0.0134998983333333, 239.49449351538, -0.000215430044840937, 0.333750000000022,440.894500732422
0.014166255, 239.507688838814, -5.39811542077267E-05, 0.351250000000025,445.563934326172
0.0148331116666667, 239.521167199788, -9.45736153044375E-05, 0.368750000000029,447.355834960938
0.0154996283333333, 239.534477304018, -7.33046836317907E-05, 0.383750000000016,447.355834960938
0.0161667783333333, 239.547628067393, -0.000263750117759732, 0.40125000000002,437.310760498047
0.0168330166666667, 239.560865513333, -0.000167937930320265, 0.417500000000015,443.619445800781
0.0175015033333333, 239.574259181389, -0.000203454646386187, 0.433750000000011,440.825134277344
0.0181679116666667, 239.587555470835, -0.00012316367930714, 0.450000000000006,443.211700439453
0.0188329816666667, 239.60082736608, -2.54315883126911E-05, 0.466250000000001,443.211700439453
0.01950139, 239.614224275399, -0.000210016816798161, 0.482499999999997,438.759643554688
0.0201662766666667, 239.628113752109, -0.00030329563147419, 0.5,436.072814941406
0.0208330483333333, 239.641515676147, -0.000429937270347981, 0.516249999999996,443.655853271484
0.0214997716666667, 239.654883106236, -0.000331821198642536, 0.532500000000047,447.936431884766
0.0221663, 239.668599151952, -0.000307150437785677, 0.548750000000042,447.936431884766
0.0228330033333333, 239.682352645748, -9.38071538068481E-05, 0.566250000000046,440.158721923828
0.0234996633333333, 239.695896199517, -9.45691155312277E-05, 0.581250000000033,443.5791015625
0.0241662716666667, 239.709235032144, -0.000128021935193185, 0.598750000000037,439.308776855469
0.0248329633333333, 239.723064995118, -0.00033393309249988, 0.61625000000004,446.527709960938
0.0254997016666667, 239.736484579833, -0.000450433740804171, 0.631250000000028,446.527709960938
0.0261671366666667, 239.749951494461, -0.000423390099158785, 0.647500000000023,445.075714111328
0.026834015, 239.7635194104, -0.000483088600556071, 0.66250000000001,440.987701416016
0.0274996616666667, 239.777376303248, -0.000330996240029457, 0.678750000000006,452.596893310547
0.028166265, 239.790830658589, -0.000343828095509754, 0.696250000000009,545.384765625
0.0288329016666667, 239.804863036869, -0.000419707784153672, 0.713750000000013,545.384765625
0.029499895, 239.818201448209, -0.000865531890866883, 0.731250000000017,653.605834960938
0.0301663633333333, 239.83105783499, -0.000969772154994788, 0.747500000000012,544.167907714844
0.0308330383333333, 239.844445593765, -0.00130615575880258, 0.766250000000024,551.734497070313
0.03150035, 239.857124421885, -0.00138095250181481, 0.782500000000019,556.1494140625
0.0321666983333333, 239.87048634485, -0.00145509527770219, 0.798750000000015,556.1494140625
0.032833455, 239.883166354487, -0.0010667377845129, 0.813750000000002,544.045104980469
0.0335008116666667, 239.896260433223, -0.000851374102022819, 0.831250000000006,560.069702148438
0.0341662833333333, 239.909332395842, -0.000955561868775357, 0.847500000000001,544.505310058594
0.0348329983333333, 239.922360832408, -0.000965765856233556, 0.865000000000005,543.652954101563
0.035499855, 239.934894158398, -0.000957211785916498, 0.88125,543.652954101563
0.0361663833333333, 239.948374872062, -0.00138957556869692, 0.897499999999996,552.77685546875
0.0368329316666667, 239.961434127421, -0.00142521827841272, 0.914999999999999,555.751770019531
0.037499735, 239.974043920529, -0.000875596385355579, 0.932500000000003,558.073974609375
0.038166905, 239.987221171966, -0.00082200857703987, 0.948749999999998,553.02099609375
0.0388330566666667, 240.000036752776, -0.000710388683593944, 0.965000000000049,553.02099609375
0.0394996616666667, 240.012890749746, -0.00031884535044078, 0.981250000000045,546.899536132813
0.040166675, 240.025536846041, -0.000263741118255821, 0.99750000000004,553.844604492188
0.0408329333333333, 240.039197074322, -0.000903307493487939, 1.01500000000004,550.408325195313
0.0414996716666667, 240.052535438486, -0.000964301929760927, 1.03125000000004,548.394104003906
0.0421663566666667, 240.06545494508, -0.000819164719839941, 1.04750000000003,548.394104003906
0.0428329883333333, 240.078779902432, -0.000662784074679265, 1.06375000000003,557.733337402344
0.043499875, 240.092522241184, -0.000615497449844347, 1.08125000000003,548.531066894531
0.04416626, 240.105352156134, 9.54728388684748E-05, 1.09750000000003,553.073669433594
0.0448329733333333, 240.118175115656, 0.000406755203515673, 1.11625000000004,542.144714355469
0.0454996266666667, 240.131412201534, 0.000262981425132297, 1.13125000000003,542.144714355469
0.0461663966666667, 240.144126111694, -0.000144002132527273, 1.14875000000003,659.254821777344
0.0468330733333333, 240.156546902763, -0.000173418654939933, 1.16500000000003,559.165954589844
0.0475005083333333, 240.168837628535, -0.000359700298223045, 1.18250000000003,543.895874023438
0.04816656, 240.181060793916, -0.000342032685680243, 1.19875000000003,549.206848144531
0.04883294, 240.192269699477, -0.000257109951278788, 1.21375000000001,549.206848144531
0.0494997183333333, 240.203907043242, -0.000105886047109185, 1.23125000000002,543.260864257813
0.05016644, 240.215443756711, 8.41034099364034E-05, 1.24750000000001,538.182800292969
0.0508330366666667, 240.226807777341, -0.000135649052144014, 1.26375000000001,545.2275390625
0.0514996, 240.23833016349, -0.000476712420876371, 1.28125000000001,550.117431640625
0.0521666066666667, 240.250781272573, -0.000770298674310835, 1.29625,550.117431640625
0.052832925, 240.263281094907, -0.000477714370484018, 1.31249999999999,538.418640136719
0.0535000016666667, 240.276345815038, -0.000769434717684526, 1.33,530.536682128906
0.0541664733333333, 240.290081156831, -0.000860129162188659, 1.34625000000005,533.420166015625
0.0548329533333333, 240.304250561459, -0.00072790030391379, 1.36250000000004,531.53173828125
0.0554996183333333, 240.317555787776, -0.000622473599412875, 1.37875000000004,531.53173828125
0.0561665083333333, 240.330893005326, -0.000655491440976634, 1.39500000000004,544.194641113281
0.0568333116666667, 240.344582062724, -0.000753423022001732, 1.41125000000003,532.915100097656
0.0574999266666667, 240.357333705715, -0.000991114582984449, 1.42750000000003,537.721374511719
0.0581664316666667, 240.370588875574, -0.00119016208505286, 1.44500000000003,537.256591796875
0.058833075, 240.384518782909, -0.00125700022779988, 1.46125000000003,537.256591796875
0.0594996916666667, 240.398218905972, -0.001425465765918, 1.47625000000001,536.719848632813
0.06016752, 240.411733540345, -0.00115692525441996, 1.49500000000002,544.602844238281
0.060832945, 240.425405587052, -0.000693355539031212, 1.51000000000001,543.1123046875
0.0615009633333333, 240.438602699802, -0.000714442979808556, 1.52625000000001,548.008605957031
0.0621665683333333, 240.452197859469, -0.000363046630098065, 1.54375000000001,548.008605957031
0.0628329366666667, 240.465279966807, -0.000386076473338948, 1.56000000000001,654.628295898438
0.06349992, 240.478675150329, -0.000584224020595372, 1.57625,551.1484375
0.06416653, 240.492180743966, -0.00055674390090613, 1.5925,554.909973144531
0.06483315, 240.505131744231, -0.000195539543822408, 1.61,554.786743164063
0.0655001383333333, 240.518020310363, -0.000152368712251415, 1.63125000000003,554.786743164063
0.0661665, 240.531843834243, -0.000146253519375374, 1.64500000000001,555.308044433594
0.0668329716666667, 240.544900547427, -8.67292993700932E-06, 1.65999999999999,396.279724121094
0.0675005616666667, 240.558181602807, -8.12107864366085E-05, 1.6775,387.254058837891
0.0681663933333333, 240.571225322387, -4.3045203470705E-05, 1.69375000000005,397.750244140625
0.0688341066666667, 240.584414765732, -8.44641230411354E-05, 1.71000000000004,397.750244140625
0.0694996433333333, 240.596952285738, -0.000297903402224281, 1.72750000000005,388.439270019531
0.07016627, 240.609152946592, -0.000183165165370122, 1.745,394.5712890625
0.070833045, 240.621410766127, -0.000318392373037201, 1.76125000000005,383.062896728516
0.071500225, 240.633449997985, -0.000375392509965436, 1.77875,391.280883789063
0.072166285, 240.645248425481, -4.40861511340905E-05, 1.79500000000005,391.280883789063
0.0728330016666667, 240.656979894182, 0.000159005147805635, 1.81125000000004,384.938293457031
0.0735004616666667, 240.668059797106, 0.000169458122757283, 1.82750000000004,388.362548828125
0.074166425, 240.678814326891, 0.00028974008111981, 1.84625000000005,391.366241455078
0.0748329516666667, 240.690079430318, 0.00027425035912935, 1.86250000000004,397.914184570313
0.0754997716666667, 240.700483114021, -0.000193372152677127, 1.87875000000004,397.914184570313
0.0761663233333333, 240.71110994569, -0.000264104099876392, 1.89375000000003,385.668914794922
0.076833855, 240.721904714529, -0.000470898712784131, 1.91125000000003,391.930938720703
0.0774997766666667, 240.732719376887, -0.000521819655085765, 1.92875000000003,394.276397705078
0.07816627, 240.742592249342, -0.000458992310809423, 1.94500000000003,468.606719970703
0.0788329483333333, 240.752892599212, -0.000432196156754336, 1.96125000000003,468.606719970703
0.0794995766666667, 240.762857529521, -0.000354734047588678, 1.97750000000002,392.426483154297
0.0801667283333333, 240.772492833565, -0.00035143871310086, 1.99500000000002,396.643524169922
0.0808331766666667, 240.781297547951, -0.000287865906311082, 2.01125000000002,394.764770507813
0.0814998366666667, 240.791209576571, -0.00031406959012061, 2.02875000000002,399.446441650391
0.0821665633333333, 240.800445289599, -0.000373321113981963, 2.04375000000001,399.446441650391
0.0828329966666667, 240.809612528473, -0.000380360260417936, 2.06125000000001,402.986053466797
0.08350047, 240.818883353451, -0.000117840446516019, 2.07750000000001,394.436157226563
0.0841667583333333, 240.828885178039, -9.33601761221362E-05, 2.09375000000001,397.058563232422
0.0848329883333333, 240.838003706893, -7.25862195875809E-05, 2.11125000000001,390.566833496094
0.0854997066666667, 240.848034831566, -3.94828823753447E-05, 2.1275,390.566833496094
0.0861663016666667, 240.858235934778, -0.000319880298300282, 2.14250000000005,397.501678466797
0.0868329166666667, 240.868579506854, -0.000274626071371844, 2.16,389.839630126953
0.08750017, 240.87909783887, -0.000632596590889536, 2.17625000000005,394.947784423828
0.088166335, 240.889891594285, -0.000511554170727032, 2.19250000000004,391.856689453125
0.0888330883333333, 240.900122840747, -0.00061608092041596, 2.20875000000004,391.856689453125
0.0894996716666667, 240.910282977896, -0.0002183968956719, 2.22500000000003,390.269653320313
0.0901663666666667, 240.920751705803, -0.000483883560574814, 2.24125000000003,382.681304931641
0.0908330033333333, 240.928919102774, -0.000228927866735026, 2.25625000000002,388.901977539063
0.0915005833333333, 240.937523077953, -0.000444282549678689, 2.27500000000003,312.702545166016
0.0921668883333333, 240.946933029733, -0.000403238611272836, 2.29125000000002,312.702545166016
0.092833115, 240.956390903304, -0.000530732207420218, 2.30750000000002,313.489318847656
0.0934995816666667, 240.96605143438, -0.000355293519518617, 2.32500000000002,308.961181640625
0.094166335, 240.977452206823, -0.000387406906497179, 2.34125000000002,305.862640380859
0.09483311, 240.988694737066, -0.000354548056983928, 2.35750000000001,366.049041748047
0.095499625, 240.999381372905, -0.000267955906445344, 2.37375000000001,366.049041748047
0.096166305, 241.010023608909, -0.000331126733431286, 2.39125000000001,308.376831054688
0.0968330683333333, 241.021004032358, -0.000561563158863961, 2.40750000000001,306.056854248047
0.097499625, 241.031901333744, -0.000820495152998171, 2.42249999999999,303.775451660156
0.09816635, 241.042352776754, -0.000723448527541028, 2.44125000000001,313.112701416016
0.0988338116666667, 241.053281062236, -0.000664095008820253, 2.4575,313.112701416016
0.0995006833333333, 241.063979516176, -0.000545857447780687, 2.47375,305.998168945313
0.100166348333333, 241.074134948756, -0.000578579804151987, 2.49000000000005,312.072784423828
0.100832991666667, 241.0844687098, -0.000261593226042765, 2.5075,311.030151367188
0.101499726666667, 241.095118586557, -0.000494393532738802, 2.52375000000005,309.427581787109
0.102167406666667, 241.105028512223, -0.000408636840177849, 2.54124999999999,309.427581787109
0.102832955, 241.115498261241, -0.000589604250365039, 2.55500000000003,303.696166992188
0.1034996, 241.125859971228, -0.000444705528487933, 2.57250000000003,312.597106933594
0.104166305, 241.136838820784, -0.000526577416143063, 2.59125000000004,301.442443847656
0.104833005, 241.147102845464, -0.000311638212280356, 2.60750000000004,304.624237060547
0.105499663333333, 241.157986095875, -0.000341171728838978, 2.62500000000004,304.624237060547
0.10616632, 241.168491714648, -0.000666526386596746, 2.64125000000004,306.948577880859
0.106832998333333, 241.179032621866, -0.000470768219318539, 2.65750000000003,303.531341552734
0.107500178333333, 241.189177292776, -0.000462484135436576, 2.67500000000004,305.149841308594
0.108166361666667, 241.199996162799, -0.000487828362435513, 2.69250000000004,305.978363037109
0.108833143333333, 241.210451721533, -0.000363048130043723, 2.70875000000004,305.978363037109
0.109499598333333, 241.221345285704, 0.000334313342262899, 2.72500000000003,313.670562744141
0.110166328333333, 241.232129341233, 0.00016811719012823, 2.74125000000003,308.769500732422
0.110832983333333, 241.243492474817, 0.000164691362217328, 2.75750000000002,305.022491455078
0.111499741666667, 241.254313870828, 0.000120860563802632, 2.77375000000002,367.984375
0.112166245, 241.264882248478, 2.14425574813637E-05, 2.79125000000002,367.984375
0.112832978333333, 241.275802058472, -0.00039364809300184, 2.80750000000002,310.458709716797
0.113499605, 241.286947412022, -0.000682451086706659, 2.82375000000001,303.666961669922
0.114166341666667, 241.298142274249, -0.000680967661195533, 2.84125000000002,311.976684570313
0.114833088333333, 241.309901187682, -0.000972772004205132, 2.85625,304.176879882813
0.11549962, 241.321796990937, -0.00141150596705266, 2.87375000000001,304.176879882813
0.116166296666667, 241.333679251146, -0.00149734065566133, 2.89,310.185180664063
0.116833221666667, 241.345804947358, -0.00125580178792538, 2.90750000000001,306.787780761719
0.117499806666667, 241.357432267278, -0.00149555124557194, 2.92249999999999,311.168365478516
0.118166435, 241.368912283788, -0.00110990561608631, 2.93875000000005,317.115173339844
0.118833803333333, 241.380676606308, -0.000972208032480728, 2.95500000000004,317.115173339844
0.119499633333333, 241.392772137279, -0.00112751623150179, 2.97250000000004,313.160919189453
0.120166475, 241.404651504149, -0.00127813266620305, 2.99000000000005,313.307525634766
0.120832948333333, 241.416350044745, -0.00112150453347333, 3.00625000000004,321.560028076172
0.121499625, 241.428492735787, -0.00133949608400677, 3.02250000000004,312.273193359375
0.12216643, 241.440685874521, -0.00134301490725193, 3.03750000000003,312.273193359375
0.122833701666667, 241.452018400066, -0.00111125554828304, 3.05500000000003,320.077880859375
0.12349975, 241.463762515311, -0.00066483747142112, 3.07125000000003,311.168121337891
0.124166428333333, 241.476354397245, -0.000621990623563739, 3.08750000000002,310.013244628906
0.124832951666667, 241.488787776711, -0.000564636504412573, 3.10500000000002,308.133850097656
0.125500636666667, 241.501223176799, -0.000532887599149019, 3.12125000000002,308.133850097656
0.126166745, 241.513996524276, -0.000393214614743028, 3.13625000000001,311.547149658203
0.126832953333333, 241.527013107822, -0.000827753288290749, 3.1525,308.35546875
0.127500578333333, 241.539408525118, -0.000840480149062818, 3.17000000000001,311.585754394531
0.128166358333333, 241.551324731609, -0.000823700491873015, 3.18625,370.072479248047
0.128833771666667, 241.563816042805, -0.000764324474264938, 3.2025,370.072479248047
0.129499693333333, 241.576138520959, -0.0010610605695201, 3.22,307.388214111328
0.130166296666667, 241.589238251893, -0.00120397639101729, 3.23625,305.809875488281
0.130832951666667, 241.602497232108, -0.00145842961011823, 3.25250000000005,338.565643310547
0.131499605, 241.615722228641, -0.00184499319346617, 3.27125,326.902008056641
0.13216632, 241.628931418165, -0.0019886799762129, 3.2875,326.902008056641
0.13283303, 241.641716272707, -0.00193080538323005, 3.30374999999999,328.53173828125
0.133499763333333, 241.653478229215, -0.00162109343973062, 3.32000000000005,341.10546875
0.134166605, 241.6653232288, -0.00114377091515045, 3.33750000000005,337.247253417969
0.134833058333333, 241.677805930335, -0.00110111755756234, 3.355,329.361968994141
0.13549969, 241.690212065299, -0.00104431391073093, 3.37125000000005,329.361968994141
0.136166445, 241.703057501088, -0.000983598460375699, 3.38750000000004,330.847198486328
0.136832995, 241.715599881545, -0.00106933265404935, 3.40375000000004,327.487823486328
0.137499656666667, 241.72815616234, -0.00129345889643356, 3.42125000000004,336.329681396484
0.138166505, 241.740655929673, -0.00105341845341026, 3.43875000000005,329.323791503906
0.138832945, 241.752243344772, -0.00086294902051312, 3.45250000000003,329.323791503906
0.139499795, 241.764412998395, -0.000975648859720679, 3.47125000000004,336.770782470703
0.140166508333333, 241.776780089267, -0.00119433787518664, 3.48750000000003,336.861846923828
0.140832955, 241.789420204501, -0.00131298791556463, 3.50500000000004,338.946105957031
0.141499788333333, 241.801864912884, -0.00142347686581922, 3.52250000000004,337.487274169922
0.142166405, 241.814801989572, -0.0016730343307965, 3.53875000000003,337.487274169922
0.142832991666667, 241.827492537692, -0.001466146722512, 3.55500000000003,334.183471679688
0.14349985, 241.840097900221, -0.0014108190015697, 3.57125000000003,332.246276855469
0.144166286666667, 241.85274854254, -0.00141204294007404, 3.58875000000003,336.744476318359
0.144834013333333, 241.865865928503, -0.00143182694637492, 3.60500000000002,388.246795654297
