Time (min), Depth (µm), Load (N), Position (µm), Acoustic (aJ)
8.52E-06, 239.271279899798, -0.000429502507213938, 0,314.069458007813
0.000665446666666667, 239.270939337777, -0.000791141842438366, 0.00125000000000819,311.994598388672
0.00133163, 239.269477942071, -0.000646309117235004, 0.0125000000000264,308.325408935547
0.001998225, 239.271514478575, -0.00102572105975297, 0.0375000000000236,314.299896240234
0.00266546333333333, 239.276001794372, -0.000711110362323591, 0.0612500000000127,314.299896240234
0.00333245166666667, 239.283999104994, -0.000511867870061502, 0.0800000000000245,317.671051025391
0.00399852666666667, 239.295108190581, -0.000537996557629614, 0.101249999999997,312.347778320313
0.00483176833333333, 239.309513152963, -0.000579686963538288, 0.117500000000048,308.275360107422
0.00549828166666667, 239.322607853129, -0.000324794266544691, 0.132500000000035,311.136901855469
0.00616494, 239.335536672009, -0.000275748230044686, 0.150000000000039,320.512847900391
0.00683159166666667, 239.347485270758, -0.000231054974928083, 0.167500000000043,320.512847900391
0.007498895, 239.359508172555, 0.000196837532441081, 0.183750000000038,304.708068847656
0.00816497333333333, 239.37215408307, 0.000118292477664984, 0.201250000000042,313.810150146484
0.00883195666666667, 239.384836637157, 0.00033898239266747, 0.218750000000045,312.549224853516
0.00949821166666667, 239.397570878341, 7.23872834605159E-05, 0.233750000000033,364.183074951172
0.0101649066666667, 239.410816114295, 0.000341103286092488, 0.250000000000028,364.183074951172
0.01083182, 239.423446487344, 0.000565967491453134, 0.267500000000032,313.86376953125
0.0114982966666667, 239.435932761946, 0.000774352024525883, 0.283750000000027,314.669219970703
0.012164955, 239.448701143551, 0.000342987191504299, 0.301250000000031,308.840209960938
0.0128308833333333, 239.461277905406, 0.000474473587072031, 0.318750000000034,308.005065917969
0.013498625, 239.474008402138, 0.000330827302262932, 0.333750000000022,308.005065917969
0.014166775, 239.48641147476, -6.81406580253656E-05, 0.354999999999994,308.68359375
0.0149973433333333, 239.505322813836, -0.000240625994266853, 0.371250000000045,315.851959228516
0.01566494, 239.517919181148, -0.000238053623490184, 0.387500000000041,313.205657958984
0.0163316066666667, 239.530814081442, -0.000356406678730056, 0.403750000000036,314.645599365234
0.0169982616666667, 239.543247592097, -0.000337344136215921, 0.42125000000004,320.041046142578
0.017665055, 239.556499238963, -0.000319837015563014, 0.437500000000035,320.041046142578
0.0183316116666667, 239.569496908092, -0.000706594089180234, 0.452500000000022,309.748626708984
0.0189987783333333, 239.582813542632, -0.000571500374785044, 0.470000000000026,323.325439453125
0.0196648916666667, 239.59614320117, -0.000634323219288177, 0.48750000000003,314.519470214844
0.0203315883333333, 239.610052229645, -0.000730255400701159, 0.503750000000025,321.783294677734
0.0209986883333333, 239.623409880627, -0.000463127818267286, 0.52000000000002,321.783294677734
0.0216640433333333, 239.637349412433, -0.000145544270139297, 0.536250000000016,319.878753662109
0.0223305283333333, 239.650783101519, -0.000224299314353105, 0.551250000000003,314.691162109375
0.023001655, 239.664535228144, -0.000320247994977031, 0.570000000000015,311.228820800781
0.02366508, 239.678149247349, -0.000434504755948966, 0.58625000000001,319.098754882813
0.0243315716666667, 239.69195449246, -0.000483196810204786, 0.601249999999998,319.098754882813
0.0249986533333333, 239.70568765007, -0.000114152346968735, 0.617500000000049,315.681030273438
0.0256649116666667, 239.71942752453, 5.37117213999132E-05, 0.634999999999997,311.353942871094
0.0263316, 239.732859606144, 0.000757878351829328, 0.651250000000048,374.713500976563
0.0269983516666667, 239.746562402496, 0.000853213563244797, 0.665000000000027,312.122009277344
0.0276649666666667, 239.76054789755, 0.000690183752056758, 0.68250000000003,312.122009277344
0.0283318633333333, 239.773932261773, 0.000778146833776223, 0.700000000000034,284.285095214844
0.0289983766666667, 239.787806357113, 0.000721169195735291, 0.718750000000046,285.060241699219
0.0296651066666667, 239.801595293435, 0.000188364457935529, 0.735000000000041,287.990264892578
0.030332235, 239.815791900515, 0.000162373763412517, 0.752500000000045,292.300018310547
0.0309984316666667, 239.829448345172, -1.41658691711082E-05, 0.76875000000004,292.300018310547
0.0316649416666667, 239.84352351286, -0.000302254898753706, 0.785000000000036,294.200653076172
0.032332205, 239.857541668872, -0.00029002451308664, 0.801250000000031,293.142791748047
0.0329984733333333, 239.871694888405, -0.000155133288507144, 0.818750000000035,283.688934326172
0.033664965, 239.885576646134, -0.000165401772757191, 0.83500000000003,296.298706054688
0.0343319416666667, 239.899383321791, 5.35797279886642E-05, 0.851250000000026,296.298706054688
0.0349982966666667, 239.913506286491, 9.89374497434349E-05, 0.867500000000021,292.137054443359
0.0356649233333333, 239.927172370985, -0.000188620606515393, 0.886250000000033,289.946838378906
0.0363318933333333, 239.941007073116, -0.000185983738989384, 0.902500000000028,288.698516845703
0.03699826, 239.954492093441, -1.14285067100807E-05, 0.918750000000024,281.95263671875
0.0376654033333333, 239.968589399978, -0.000320543480169489, 0.936250000000027,281.95263671875
0.0383301166666667, 239.982556791601, -0.000339876009097465, 0.951250000000015,288.443176269531
0.03899733, 239.996851237246, -0.000213697846906789, 0.968750000000018,292.008697509766
0.0396650833333333, 240.010853259709, -0.00023563424506641, 0.985000000000014,283.481262207031
0.0403315933333333, 240.025455066692, -0.000264314304512053, 1.00125000000001,286.348602294922
0.04099821, 240.039926920718, -7.04880402053084E-05, 1.0175,286.348602294922
0.0416649883333333, 240.054234260615, -8.15349853481712E-05, 1.03500000000001,286.626922607422
0.0423315583333333, 240.068669276992, 0.000156644051193129, 1.05125,289.860290527344
0.0429986583333333, 240.082613747155, 0.000354821596937618, 1.0675,347.509063720703
0.0436648983333333, 240.097104840621, 0.000253252698639505, 1.08374999999999,289.679748535156
0.04433156, 240.111127524195, 0.000292231240759499, 1.10125,289.679748535156
0.0449982316666667, 240.125238013079, 0.000360819795667697, 1.11875,291.072418212891
0.0456641283333333, 240.139782202981, 0.000108722958208109, 1.13625000000001,288.311798095703
0.0463314166666667, 240.154697243459, -4.67772311578218E-05, 1.1525,296.407592773438
0.0469970366666667, 240.168472057868, -0.000107228694733068, 1.16875,293.159545898438
0.04766524, 240.182411268762, -0.000242395905424017, 1.18625,293.159545898438
0.0483307666666667, 240.196200205528, -0.000238880081985158, 1.20125000000004,294.131164550781
0.0489982116666667, 240.209850102642, -0.000383124836716173, 1.21750000000004,298.100738525391
0.049665095, 240.223822688198, -0.000522001361072748, 1.23500000000004,299.499664306641
0.0503322433333333, 240.237628659926, -0.000545613175067111, 1.25000000000003,300.738830566406
0.0509981916666667, 240.251303001366, -0.000398865046081977, 1.26750000000003,300.738830566406
0.0516648666666667, 240.265271982334, -0.000547888560790681, 1.28375000000003,303.523651123047
0.052332035, 240.279125934933, -0.000614372721378535, 1.30125000000003,302.277954101563
0.05299841, 240.292642611601, -0.000532926812338947, 1.31625000000002,305.696228027344
0.053663475, 240.306437765008, -0.000565277187436985, 1.33375000000002,307.237701416016
0.054330185, 240.320838963175, -0.000669980928248006, 1.35000000000002,307.237701416016
0.0549967966666667, 240.334716137741, -0.000717729529905397, 1.36625000000001,303.447998046875
0.0556649266666667, 240.348248968941, -0.000421140427263005, 1.38125,297.140899658203
0.05633154, 240.361555740281, -0.000375230733242819, 1.40000000000001,302.188110351563
0.05699831, 240.37479579295, -6.11030115563045E-05, 1.415,302.188110351563
0.0576651683333333, 240.387657431232, 5.09863582916036E-05, 1.43125,302.879699707031
0.0583315983333333, 240.400607779056, 0.000308433427011539, 1.44750000000005,302.436553955078
0.0589986016666667, 240.413612952994, 0.000216975520816114, 1.46499999999999,364.789611816406
0.0596648683333333, 240.427280612102, 0.000273602176546684, 1.48125000000005,301.603546142578
0.060331745, 240.440382122332, 0.00019468964024928, 1.49750000000004,298.469848632813
0.0609974966666667, 240.453309670919, 0.000304596619729128, 1.51375000000004,298.469848632813
0.0616656366666667, 240.466538950156, 0.000479199849589336, 1.53125000000004,291.323272705078
0.0623317866666667, 240.47982133486, 0.000558344874211753, 1.54625000000003,293.699768066406
0.0629976366666667, 240.49244755476, 0.000349631857609674, 1.56375000000003,289.022003173828
0.0636634216666667, 240.505578061008, 0.00039045230721568, 1.58125000000003,294.894165039063
0.064331995, 240.518033756662, 0.000753543569538766, 1.59625000000002,294.894165039063
0.0649973183333333, 240.53020916927, 0.000648457347919898, 1.61375000000002,294.442626953125
0.0656648983333333, 240.542530846235, 0.000899138256509016, 1.635,290.443420410156
0.0663308216666667, 240.555395640364, 0.0011807821098256, 1.64750000000002,334.707366943359
0.066996805, 240.567710555993, 0.00115042663454522, 1.66375000000002,354.701629638672
0.0676637783333333, 240.580101705226, 0.000683651580154103, 1.68125000000002,354.701629638672
0.0683300966666667, 240.592635222319, 0.000495421534731094, 1.69750000000002,354.134338378906
0.0689972766666667, 240.604952835107, 0.000191305810115399, 1.71500000000002,351.830505371094
0.0696638, 240.615884857899, -6.15289902356085E-05, 1.73250000000003,348.664337158203
0.07033159, 240.627314699616, -0.000133163892074414, 1.74875000000002,349.344451904297
0.0709978116666667, 240.63860916436, 2.83577680912248E-06, 1.76500000000002,349.344451904297
0.0716639866666667, 240.649759583929, 5.18053171433069E-05, 1.78125000000001,352.326690673828
0.0723306016666667, 240.660631458264, 4.94789340112803E-05, 1.79875000000002,351.886749267578
0.0729988983333333, 240.672164293039, -6.71672070026349E-05, 1.81500000000001,356.429473876953
0.07366793, 240.683406987783, 0.000100428374855322, 1.83125000000001,350.990386962891
0.07433165, 240.695125518497, 3.58161203053081E-05, 1.84875000000001,350.990386962891
0.074999815, 240.706020971208, 6.84034834590613E-05, 1.86500000000001,355.650634765625
0.0756634533333333, 240.717363771539, -4.86626364302743E-05, 1.88125,424.684478759766
0.0763304216666667, 240.727988187761, -2.74672010533871E-05, 1.89875,352.963653564453
0.076997075, 240.738265169555, -0.000207267669884809, 1.915,359.388031005859
0.0776649983333333, 240.748396796556, -5.57077825638599E-05, 1.93125,359.388031005859
0.078330105, 240.758722955564, -0.000152599915786214, 1.94875,360.795501708984
0.0789967883333333, 240.768826470017, 3.9697925256054E-05, 1.96625,351.649841308594
0.0796635716666667, 240.778511640802, 0.000460528787365705, 1.98125000000005,356.655212402344
0.0803306783333333, 240.788598916963, 0.000391617748710806, 1.99750000000004,362.320251464844
0.0809978416666667, 240.798200930718, 7.42771883999075E-05, 2.01625,362.320251464844
0.0816640233333333, 240.807971534078, -0.000170660508607686, 2.03125000000004,368.721252441406
0.08233164, 240.817059727746, -0.000322022405822388, 2.04750000000004,368.464874267578
0.082997515, 240.826978938109, -0.000535905662671407, 2.06500000000004,369.738006591797
0.0836649, 240.836478323846, -0.000686112617925568, 2.08125000000003,365.904876708984
0.0843301016666667, 240.846130687679, -0.000345710715961318, 2.09750000000003,365.904876708984
0.0849983583333333, 240.855435778908, 9.58281060091455E-05, 2.11375000000003,366.312347412109
0.0856649566666667, 240.864701237423, 0.000300584321312791, 2.13000000000002,369.302185058594
0.0863300933333333, 240.873867093642, 0.000587839392757144, 2.14625000000002,369.144714355469
0.0869983666666667, 240.88332156426, 0.000726031951479563, 2.16375000000002,362.520721435547
0.08766371, 240.892489239426, 0.000451311750398645, 2.18000000000002,362.520721435547
0.0883311183333333, 240.902250318486, 2.67970733169696E-05, 2.19625000000001,363.772857666016
0.08899831, 240.911684222691, -2.16114951628718E-05, 2.21250000000001,367.039703369141
0.0896649416666667, 240.921594038151, -0.000707186559447046, 2.22875,365.559875488281
0.0903308966666667, 240.930482892562, -0.000877795489941246, 2.24250000000004,361.607055664063
0.0909975466666667, 240.937979351624, -0.000906576044321908, 2.26000000000004,361.607055664063
0.0916646333333333, 240.946080891529, -0.00052310530566734, 2.27875,541.33447265625
0.0923316683333333, 240.95488207783, -0.000609415470396858, 2.29625,735.198974609375
0.0929967866666667, 240.963615767256, -0.000140221037539463, 2.31125000000004,610.546203613281
0.093665015, 240.972606860415, 0.000407149468627066, 2.32750000000004,609.227844238281
0.0943309816666667, 240.983186822143, 0.000506196993556967, 2.34500000000004,609.227844238281
0.0949989166666667, 240.993224896124, 0.000318808405915472, 2.36125000000004,615.613220214844
0.0956635866666667, 241.002617762015, 0.000505028552276796, 2.37750000000003,604.413452148438
0.09633029, 241.011338809699, 0.000474562082569315, 2.39500000000004,611.997192382813
0.0969987233333333, 241.020645201463, 0.000579702301487954, 2.41125000000003,611.093505859375
0.0976667333333333, 241.03032539136, 0.000608704844722807, 2.42750000000003,611.093505859375
0.0983315766666667, 241.039777490116, 0.000717893360264716, 2.44375000000002,606.283996582031
0.0989974833333333, 241.049763167257, 0.00054134772794097, 2.46125000000003,616.864929199219
0.0996648733333333, 241.059781767431, 0.000741566671180867, 2.47875000000003,623.044311523438
0.100330098333333, 241.070525051373, 0.000314230635786565, 2.49375000000002,616.148498535156
0.100996793333333, 241.080899913002, 0.000159651400153013, 2.51000000000001,616.148498535156
0.101663548333333, 241.091153766538, 0.000349826847867114, 2.52750000000002,612.719665527344
0.102331341666667, 241.102107911064, 0.000161227820998395, 2.54500000000002,614.570007324219
0.102998013333333, 241.112932138971, -3.92266103940678E-05, 2.56125000000001,613.185424804688
0.103664876666667, 241.123770436755, -0.00025757214312918, 2.57625,609.937683105469
0.104330463333333, 241.135170039576, -0.000442583350208938, 2.59375000000001,609.937683105469
0.104996781666667, 241.146877639035, -0.00104891289491442, 2.61125000000001,614.187683105469
0.105665006666667, 241.157935820742, -0.000765260642460554, 2.6275,618.152770996094
0.106330715, 241.169919351108, -0.000931944270090044, 2.64500000000001,618.89697265625
0.106997296666667, 241.181479090921, -0.000621036886628677, 2.66125,621.41650390625
0.107663428333333, 241.193557625075, -0.000345200741621702, 2.6775,621.41650390625
0.108330406666667, 241.205204250447, -0.000158088140134169, 2.695,617.945678710938
0.108997001666667, 241.217603576096, -0.000124452329631251, 2.71250000000001,737.3349609375
0.109663473333333, 241.230033633462, 0.000190215364925452, 2.73000000000001,613.230102539063
0.110331705, 241.242939588685, 0.000126170081821123, 2.745,609.925964355469
0.110997501666667, 241.255467412962, -5.63107523227483E-05, 2.76000000000004,609.925964355469
0.111663813333333, 241.268921624745, 0.000334661109590266, 2.77875,608.364929199219
0.112330721666667, 241.282665649689, 6.31927451682174E-05, 2.79625,612.317260742188
0.112997603333333, 241.296534784737, -0.000150390526757641, 2.81125000000004,619.254150390625
0.113664953333333, 241.310023949745, -0.000146726210781605, 2.82750000000004,614.47021484375
0.114331726666667, 241.324193108765, 3.4425690149693E-05, 2.84500000000004,614.47021484375
0.114997185, 241.338558739278, -0.000412325370014763, 2.86000000000003,610.680114746094
0.11566382, 241.351801438829, -0.000225784239809888, 2.87750000000003,612.040588378906
0.11633119, 241.365775836805, -0.000344660768751513, 2.89375000000003,612.985107421875
0.116997465, 241.379480958074, -0.000457573597266842, 2.91000000000002,612.476501464844
0.117664876666667, 241.393217833526, -0.000287194155248848, 2.92625000000002,612.476501464844
0.118331551666667, 241.406315151623, -0.000107470182625755, 2.94125000000001,613.248962402344
0.11899873, 241.420211899898, -0.000463775785715764, 2.96000000000002,619.18359375
0.119666353333333, 241.433294397391, -0.000181542462044936, 2.97625000000001,610.777404785156
0.120331583333333, 241.446918112857, 0.000160300867525895, 2.99250000000001,611.357360839844
0.120997428333333, 241.460366601467, -8.56027809674293E-05, 3.01000000000001,611.357360839844
0.12166499, 241.474767431362, 5.98449133262853E-05, 3.02625000000001,609.063171386719
0.122330768333333, 241.488292513298, 0.000281707769382152, 3.0425,609.888122558594
0.122998473333333, 241.50219111079, 0.000127208029763227, 3.06000000000001,616.043090820313
0.123666395, 241.515997135396, -0.000164576814165367, 3.07499999999999,618.118957519531
0.124333085, 241.529262548177, 2.42607007259786E-05, 3.09125000000005,618.118957519531
0.124998286666667, 241.542581315286, -0.000161708958196239, 3.10750000000004,622.395568847656
0.125664963333333, 241.556599319321, -0.000671521350865201, 3.12500000000004,743.137023925781
0.126331715, 241.570133665518, -0.000540210446495158, 3.14000000000003,620.935729980469
0.12699845, 241.583806789538, -0.000284725279277258, 3.15750000000004,602.592712402344
0.127664953333333, 241.597312414394, -0.000406397667816654, 3.17250000000002,602.592712402344
0.128331996666667, 241.610795591284, -0.000342124396181776, 3.19000000000003,616.938598632813
0.128998381666667, 241.624392432114, -0.000248929577229821, 3.20625000000002,614.322082519531
0.129663551666667, 241.638124636648, -0.000229954030331076, 3.22500000000003,618.919921875
0.130330668333333, 241.652270969469, -0.000805533619553101, 3.24000000000002,719.215881347656
0.130998345, 241.666604739497, -0.000822824751028176, 3.25750000000002,719.215881347656
0.131664165, 241.679986503066, -0.00106108628343291, 3.27375000000002,755.766296386719
0.132331611666667, 241.694135044744, -0.000941249802724421, 3.29000000000002,759.729919433594
0.132998226666667, 241.707495822487, -0.0015136075537969, 3.30750000000002,753.676208496094
0.133664955, 241.720684746498, -0.00128505503373352, 3.32375000000001,754.029968261719
0.134330128333333, 241.733808445058, -0.001420733718731, 3.34125000000002,754.029968261719
0.13499676, 241.747516979027, -0.00127611998255428, 3.35750000000001,759.13818359375
0.135663721666667, 241.76062046407, -0.00113356264303198, 3.37500000000002,753.170288085938
0.13633025, 241.774446577956, -0.00100019384201934, 3.39125000000001,747.500061035156
0.136998103333333, 241.788072334631, -0.00113486307774465, 3.40750000000001,758.888549804688
0.1376642, 241.801874872496, -0.00104730047592587, 3.42500000000001,758.888549804688
0.138330268333333, 241.814923747071, -0.0010483159248744, 3.44125000000001,755.862976074219
0.138996911666667, 241.828210193385, -0.00120964932128605, 3.45875000000001,760.501281738281
0.139664106666667, 241.841616028847, -0.00112170273875628, 3.47500000000001,762.689514160156
0.140330263333333, 241.854547631177, -0.00075982341554231, 3.49125,756.491027832031
0.14099879, 241.868129039195, -0.00109343665850969, 3.5075,756.491027832031
0.141664001666667, 241.881638653499, -0.00101367516485127, 3.525,910.031005859375
0.142331766666667, 241.895131140272, -0.000789458926981608, 3.5425,750.827941894531
0.142997531666667, 241.908330586918, -0.000619664455587155, 3.55750000000005,753.583435058594
0.14366418, 241.921443706263, -0.000845281623061999, 3.57499999999999,753.001525878906
0.14433086, 241.93408260343, -0.000645925136524007, 3.59125000000005,753.001525878906
0.144999913333333, 241.947508690688, -0.000930705332320412, 3.60875000000005,753.855773925781
