Time (min), Depth (µm), Load (N), Position (µm), Acoustic (aJ)
7.45666666666667E-06, 239.40283347888, -0.00031815587803453, 0,419.292205810547
0.000663343333333333, 239.402077364092, 0.000102276004098839, 0.00125000000000819,413.634979248047
0.00133001, 239.401043602586, 9.46323880645909E-05, 0.0162499999999954,417.096893310547
0.00199664333333333, 239.402282909185, 0.000310897525291065, 0.04000000000004,527.892150878906
0.00266311666666667, 239.407517019031, 0.0002766737443158, 0.0612500000000127,527.892150878906
0.00332982666666667, 239.415375625549, 0.000501051974021011, 0.0812500000000327,428.046173095703
0.00399661833333333, 239.425651982264, 0.000577497134271229, 0.0962500000000199,437.812805175781
0.00466312666666667, 239.439890637169, 0.000752992819278899, 0.112500000000015,431.282958984375
0.00532981833333333, 239.454628781939, 0.000776780124470952, 0.130000000000019,433.19677734375
0.00599646333333333, 239.468287517416, 0.0006907939434763, 0.147500000000023,433.19677734375
0.00682998833333333, 239.488886773053, 0.000716432155658276, 0.167500000000043,434.858520507813
0.00749658333333333, 239.503074732861, 0.000495236766046876, 0.185000000000046,428.61376953125
0.00816315333333333, 239.517035241934, 0.000541050464883999, 0.201250000000042,432.342895507813
0.00882991166666667, 239.530489566824, 0.000940900380806429, 0.218750000000045,432.446533203125
0.00949721, 239.544124899678, 0.00107474015818795, 0.235000000000041,436.125823974609
0.0101632233333333, 239.557979496807, 0.00116250524986494, 0.251250000000036,436.125823974609
0.0108303966666667, 239.571116241861, 0.00115336020922672, 0.267500000000032,433.959808349609
0.0114983983333333, 239.584802962954, 0.00100092136607794, 0.285000000000035,431.806030273438
0.0121631366666667, 239.598611943487, 0.00064489624885134, 0.301250000000031,437.786926269531
0.0128298133333333, 239.611992376919, 0.000330170057264164, 0.317500000000026,437.786926269531
0.013496865, 239.625158345679, 0.000250740046920111, 0.332500000000013,424.504547119141
0.0141631566666667, 239.638803857523, -6.81394360623253E-05, 0.351250000000025,440.010009765625
0.01483057, 239.651899359338, -0.000138467903512098, 0.368750000000029,437.155242919922
0.015496595, 239.66520153175, -1.21952460415083E-05, 0.383750000000016,436.482421875
0.016163405, 239.678327294682, 4.51918714465295E-05, 0.40125000000002,445.076568603516
0.0168307216666667, 239.692451243119, -0.000320548257797791, 0.416250000000007,445.076568603516
0.0174972583333333, 239.706085286749, -0.000248074898068786, 0.433750000000011,441.632965087891
0.0181631966666667, 239.720248742194, -0.000361415205102807, 0.450000000000006,446.293853759766
0.0188307183333333, 239.734730479473, -5.47196100884267E-05, 0.466250000000001,541.041137695313
0.0194983083333333, 239.749359370309, -0.000139036374945949, 0.482499999999997,439.906951904297
0.020163675, 239.763449655423, 0.00023642476603496, 0.5,439.906951904297
0.02083076, 239.777124877356, 0.000221448018339193, 0.516249999999996,442.343444824219
0.02149718, 239.791112035358, 0.000347341194829487, 0.532500000000047,440.660125732422
0.0221631783333333, 239.804346357222, 0.000119330147581962, 0.547500000000034,447.443542480469
0.0228305316666667, 239.817601795365, 0.000212602962581632, 0.566250000000046,442.180694580078
0.0234981816666667, 239.83078193297, 0.000239697601656729, 0.581250000000033,442.180694580078
0.0241634766666667, 239.844356859295, 0.000474954784907876, 0.597500000000029,443.366546630859
0.024830035, 239.857684261921, 0.000496660194688142, 0.615000000000032,442.050506591797
0.0254966383333333, 239.871576157917, 3.72917682968165E-05, 0.631250000000028,443.607543945313
0.0261631983333333, 239.885302052526, -0.000104761596519719, 0.647500000000023,442.122589111328
0.02682985, 239.899174064101, -0.000150126817896506, 0.66250000000001,442.122589111328
0.0274970183333333, 239.913868605932, -0.000506657409732021, 0.678750000000006,437.465454101563
0.0281632, 239.928014365724, -0.00091182005882597, 0.696250000000009,426.182525634766
0.0288315633333333, 239.941749509011, -0.000568290813928321, 0.712500000000005,422.444091796875
0.0294972966666667, 239.955450629493, -0.000397039915704509, 0.730000000000008,426.497894287109
0.0301635383333333, 239.969624025244, -0.000233140148213802, 0.747500000000012,426.497894287109
0.0308303116666667, 239.982954200056, -9.53180708614964E-05, 0.765000000000016,422.126800537109
0.0314971716666667, 239.996784809468, 0.000120774575016095, 0.782500000000019,431.20947265625
0.0321637, 240.01077628197, 0.000185997298925759, 0.798750000000015,422.906036376953
0.032830935, 240.024790062146, 0.000114156907422454, 0.813750000000002,426.373229980469
0.0334978566666667, 240.037842154414, 5.94936530970683E-05, 0.831250000000006,426.373229980469
0.0341647433333333, 240.051279576325, 0.000166456280484477, 0.847500000000001,428.910675048828
0.0348300233333333, 240.064441482361, 0.000269708094239349, 0.865000000000005,434.810333251953
0.0354964633333333, 240.077576095195, 0.000258158674357633, 0.88125,511.368835449219
0.0361636116666667, 240.090729008969, 0.000184056396429132, 0.897499999999996,425.665893554688
0.0368314466666667, 240.104735771317, -0.000133942630801067, 0.914999999999999,425.665893554688
0.0374977716666667, 240.118335881266, -0.000312103681962171, 0.932500000000003,431.091400146484
0.0381637166666667, 240.131793984678, -0.000172829677532462, 0.947500000000046,422.898223876953
0.0388305883333333, 240.144973577217, -0.000141571247633791, 0.963750000000041,430.842498779297
0.0394966516666667, 240.158235152478, -4.70594948432349E-05, 0.981250000000045,425.717193603516
0.0401634166666667, 240.170155658808, 0.000368895112181261, 0.99750000000004,425.717193603516
0.0408303783333333, 240.182972331601, 0.000501609946047802, 1.01375000000004,437.403778076172
0.0414967933333333, 240.19524507959, 0.00055007401170931, 1.03125000000004,428.014343261719
0.0421631416666667, 240.208082211896, 0.000373277892031474, 1.04750000000003,425.996734619141
0.0428304183333333, 240.220748384518, 0.000588710571044107, 1.06375000000003,424.829345703125
0.0434974616666667, 240.233965174893, 0.00039824413797452, 1.08000000000003,424.829345703125
0.0441638883333333, 240.247125772773, 0.000651320426218215, 1.09625000000002,428.350494384766
0.0448310016666667, 240.261176005849, 0.000465374766107703, 1.11500000000003,433.927978515625
0.0454979233333333, 240.274901383167, 0.00065445976854684, 1.13125000000003,429.490234375
0.046163355, 240.289341892902, 0.00017226848852479, 1.14750000000002,428.517028808594
0.0468306316666667, 240.303560342868, -5.98313533048932E-05, 1.16500000000003,428.517028808594
0.0474968916666667, 240.317192240509, -0.000336184972358516, 1.18125000000002,426.872192382813
0.0481647066666667, 240.330226059829, -0.000373935076200955, 1.19875000000003,438.682769775391
0.0488316833333333, 240.342732186944, -0.00049759036512027, 1.21500000000002,442.37548828125
0.04949686, 240.355873970736, -0.00054830881760621, 1.23125000000002,437.3173828125
0.0501634, 240.368858779602, -0.000631442141918275, 1.24750000000001,437.3173828125
0.050830405, 240.381862317946, -0.000852058560582493, 1.26375000000001,440.079803466797
0.0514969316666667, 240.395050217294, -0.00130495181221974, 1.28125000000001,434.605743408203
0.0521636466666667, 240.408344289364, -0.00139977854915624, 1.29625,519.229125976563
0.0528305066666667, 240.420812703665, -0.00127384337474014, 1.31249999999999,427.010498046875
0.0534981516666667, 240.433852838435, -0.00103767423726053, 1.33,427.010498046875
0.0541829166666667, 240.446682947509, -0.000837749279309938, 1.34625000000005,429.123016357422
0.0548305383333333, 240.459457093144, -0.000652816068320404, 1.36250000000004,423.337860107422
0.05549822, 240.472454014965, -0.000753620005045331, 1.37875000000004,432.110687255859
0.0561636733333333, 240.48443769346, -0.000675124447795795, 1.39500000000004,425.633392333984
0.0568303233333333, 240.496625311959, -0.000772094577087119, 1.41125000000003,425.633392333984
0.057496655, 240.509196963249, -0.00043377907032912, 1.42750000000003,431.043670654297
0.0581634483333333, 240.521006365536, -0.000225936010072217, 1.44375000000002,438.716491699219
0.0588300366666667, 240.532822353681, 2.92896702026654E-05, 1.46125000000003,438.254272460938
0.059496505, 240.546023348954, 3.73037676495343E-05, 1.47750000000002,444.400360107422
0.060163065, 240.558037997031, -0.000158991372607547, 1.49375000000002,444.400360107422
0.0608304933333333, 240.569696755931, -0.000393645586184822, 1.51000000000001,439.105041503906
0.061497025, 240.581765122911, -0.000459747265943575, 1.52625000000001,434.697204589844
0.0621631483333333, 240.593553686367, -0.000385097515522869, 1.5425,442.713439941406
0.062830495, 240.604626483983, 0.000200722059385542, 1.56000000000001,437.707153320313
0.063496515, 240.617041318511, 0.000245662802028682, 1.57500000000005,437.707153320313
0.0641636666666667, 240.629318934627, 6.74792520227835E-05, 1.5925,438.793762207031
0.0648305783333333, 240.642314026954, 9.85021937688896E-05, 1.61,431.209320068359
0.06549658, 240.655321080915, 7.82517109360877E-05, 1.63000000000002,428.554565429688
0.0661634766666667, 240.668762030192, -0.00029420358100934, 1.64375,461.347045898438
0.0668306716666667, 240.680784634683, -0.000179999317370264, 1.66125,461.347045898438
0.067498005, 240.693260861702, 9.04625975859113E-05, 1.6775,501.668060302734
0.0681632, 240.705041572159, 5.43699104853756E-05, 1.69375000000005,500.929656982422
0.0688303016666667, 240.716742080749, 3.07520967933992E-05, 1.71000000000004,600.701965332031
0.069497275, 240.727578950728, -0.000115093077594703, 1.72750000000005,508.110229492188
0.070164775, 240.739112959896, 9.18650271367524E-05, 1.74375000000004,508.110229492188
0.0708314983333333, 240.749762775906, -3.89404026031215E-05, 1.76125000000005,500.567749023438
0.07149651, 240.760851510742, 4.22142942145189E-06, 1.77750000000004,505.459381103516
0.0721650383333333, 240.770739358506, 9.14135498701178E-05, 1.79375000000004,506.9990234375
0.0728307283333333, 240.781741155722, 0.000128038710240081, 1.81125000000004,500.855834960938
0.073496575, 240.791687202872, -0.000279487820138485, 1.82750000000004,500.855834960938
0.0741631816666667, 240.801465551486, -0.000135880533385126, 1.84500000000004,500.863739013672
0.0748299666666667, 240.810511276293, -0.000261419727652489, 1.86125000000004,505.05322265625
0.075496735, 240.820652801446, -0.000257683415347605, 1.87875000000004,506.652923583984
0.07616323, 240.829953324991, -0.000290740254967103, 1.89500000000004,507.160552978516
0.0768299983333333, 240.839599094112, -0.000192813173715214, 1.91125000000003,507.160552978516
0.077497695, 240.848692112473, -0.000345265516183626, 1.92750000000003,510.335723876953
0.07816331, 240.858043105879, -0.000216552481305108, 1.94500000000003,509.684509277344
0.0788305333333333, 240.86721689249, -0.000636691878158587, 1.96125000000003,511.408721923828
0.079497105, 240.875830989256, -0.000954591910399426, 1.97750000000002,518.167785644531
0.0801645483333333, 240.884822891652, -0.000988797692239344, 1.99500000000002,518.167785644531
0.0808299866666667, 240.894130793451, -0.000875992858302303, 2.01125000000002,520.515075683594
0.0814971716666667, 240.904104699021, -0.00125250694638433, 2.02750000000002,515.3447265625
0.0821631133333333, 240.913552524194, -0.00111918014323374, 2.04375000000001,512.93798828125
0.0828299016666667, 240.923378326993, -0.000873910962826753, 2.06125000000001,511.339630126953
0.0834972566666667, 240.933206492624, -0.000935047891981813, 2.07750000000001,511.339630126953
0.084163425, 240.943222377611, -0.00124964059031835, 2.09375000000001,515.524169921875
0.084829885, 240.951782234794, -0.000795925379980595, 2.11,615.737060546875
0.0854971633333333, 240.961572527415, -0.000690437178536638, 2.12625,514.074951171875
0.08616333, 240.970751319693, -0.000897315787210959, 2.14250000000005,504.707824707031
0.0868305633333333, 240.979995902072, -0.000786298863502667, 2.16,504.707824707031
0.087498065, 240.989291851532, -0.000624226004253939, 2.17625000000005,498.01220703125
0.0881646433333333, 240.999326703971, -0.000898278738890391, 2.19250000000004,495.402893066406
0.0888313383333333, 241.00903851146, -0.00137959256300901, 2.20875000000004,496.194885253906
0.0894968616666667, 241.018514018547, -0.00113328393486305, 2.22500000000003,491.162719726563
0.0901634816666667, 241.028185977725, -0.000951205080523009, 2.24000000000002,491.162719726563
0.0908305116666667, 241.035032350316, -0.000938863700428848, 2.25500000000001,501.678771972656
0.0914972266666667, 241.042045530795, -0.000999355661962982, 2.27500000000003,664.784118652344
0.09216312, 241.049479261185, -0.000578074822447337, 2.29125000000002,724.224548339844
0.092830595, 241.057202811848, -0.000273401125932377, 2.30750000000002,731.988891601563
0.09349725, 241.06445256375, -0.000391865175620598, 2.32375000000001,731.988891601563
0.0941637766666667, 241.075339447175, -0.000198493388471802, 2.34000000000001,730.709228515625
0.094830425, 241.084810782608, -2.71479949680774E-05, 2.35750000000001,732.732666015625
0.0954965283333333, 241.094529867138, 7.24350031013112E-05, 2.37375000000001,747.523254394531
0.0961631383333333, 241.105071072591, -0.000273138639034282, 2.39,728.615051269531
0.0968301783333333, 241.115663898304, -0.000278469371256132, 2.40625,728.615051269531
0.0974964416666667, 241.12492042048, -0.000166681486213279, 2.42375,731.505737304688
0.0981631916666667, 241.135582862381, 0.000162280490350693, 2.44125000000001,724.634094238281
0.0988306583333333, 241.144467889245, 0.000261209521231482, 2.4575,732.265441894531
0.0994971833333333, 241.154009149809, 0.000411426975913958, 2.47375,741.585693359375
0.10016319, 241.162962068037, 0.000502946379009916, 2.49000000000005,741.585693359375
0.10083062, 241.172476201011, 0.000298082169106728, 2.50625000000004,734.538635253906
0.101496805, 241.181864644025, 0.000154344388909031, 2.52375000000005,876.008605957031
0.102163143333333, 241.191809795503, 3.42799196062305E-05, 2.54000000000004,733.298706054688
0.102829758333333, 241.201059502881, -4.00415745129274E-06, 2.55625000000004,728.3017578125
0.103497701666667, 241.210570521682, 0.000116858271761565, 2.57250000000003,728.3017578125
0.104163125, 241.220272679625, 0.000119357146199967, 2.59000000000004,724.475280761719
0.10483052, 241.229929646017, 0.000179168141948751, 2.60625000000003,736.126892089844
0.10549657, 241.239796931432, 0.000265796290694267, 2.62375000000004,733.131103515625
0.106163105, 241.249546839811, 0.000382631422225501, 2.64125000000004,733.486877441406
0.10682999, 241.259434777491, 0.00039442682975186, 2.65750000000003,733.486877441406
0.10749727, 241.268945545283, 0.000366334740821072, 2.67500000000004,727.958801269531
0.108163123333333, 241.279350292863, 0.000103988918192441, 2.69125000000003,733.004638671875
0.10883, 241.28970162557, -1.45951254267864E-05, 2.70750000000003,729.528503417969
0.109496508333333, 241.299253137019, 5.41659207877867E-05, 2.72500000000003,729.356750488281
0.11016326, 241.309312741969, 1.04191181396723E-05, 2.74125000000003,729.356750488281
0.110830576666667, 241.319329970955, 0.00011287447190889, 2.75750000000002,734.116943359375
0.111496696666667, 241.328836649494, 0.000389535575507689, 2.77375000000002,730.251281738281
0.112163208333333, 241.338230643356, 0.000457246674469949, 2.79125000000002,728.653137207031
0.112831231666667, 241.348415266927, 0.000270161071557912, 2.80750000000002,735.593994140625
0.11349682, 241.358242950239, 0.000164662370643132, 2.82250000000001,735.593994140625
0.114163448333333, 241.367886442488, 0.000247674201057279, 2.84125000000002,738.068176269531
0.114830518333333, 241.37767322826, -0.000229634824224512, 2.85625,731.6513671875
0.115496778333333, 241.387138992629, -0.000137002477051303, 2.87375000000001,734.910888671875
0.116163426666667, 241.396842022831, -0.000177048965558958, 2.89125000000001,734.335754394531
0.116830701666667, 241.406603018942, -0.000307402917989689, 2.90625,734.335754394531
0.117497278333333, 241.417154353226, -0.000650776170728146, 2.92125000000004,733.649963378906
0.118163203333333, 241.426968503322, -0.000654158500810098, 2.93875000000005,873.813598632813
0.118830708333333, 241.436817830878, -0.000746189378212584, 2.95500000000004,738.190551757813
0.119497148333333, 241.446466648056, -0.000575311961228946, 2.97250000000004,731.128845214844
0.120163971666667, 241.456435626678, -0.000292712655897452, 2.98875000000004,731.128845214844
0.12083035, 241.466029857991, -0.000154374604465409, 3.00500000000004,734.122497558594
0.121496981666667, 241.476378619762, 3.31624757132624E-05, 3.02125000000003,725.584045410156
0.122163188333333, 241.487122576228, 9.25067679573931E-06, 3.03750000000003,738.194946289063
0.122830598333333, 241.497468274434, 7.07355884761169E-05, 3.05500000000003,728.623596191406
0.123496706666667, 241.508174931171, 5.88216869219006E-05, 3.07125000000003,728.623596191406
0.124164601666667, 241.519972973424, 0.000145484333928692, 3.08750000000002,729.114501953125
0.1248306, 241.530216144096, 0.000225100334920003, 3.10375000000002,724.968383789063
0.12549684, 241.540825599284, 0.000467723648212049, 3.12000000000001,733.598815917969
0.126163096666667, 241.552353643071, 0.000301584493225958, 3.13625000000001,721.623840332031
0.126829801666667, 241.564542943057, 9.05135950793844E-05, 3.1525,721.623840332031
0.127498471666667, 241.576653631812, 0.000385917757230662, 3.17000000000001,725.9501953125
0.128164051666667, 241.589695831491, 0.000639717009142998, 3.18625,730.212646484375
0.128829963333333, 241.603566908766, 0.00058806560357196, 3.2025,726.382995605469
0.129498033333333, 241.61795818015, 0.000447968140517339, 3.22,737.243957519531
0.130163278333333, 241.634437064112, 0.000273850886270057, 3.23625,737.243957519531
0.130831443333333, 241.649928122308, -0.000169916823746221, 3.25250000000005,837.387878417969
0.131497281666667, 241.665840990135, -0.000309273323975601, 3.27,935.897338867188
0.132163111666667, 241.680864122106, -0.000347368410537059, 3.28625000000005,931.636779785156
0.132830036666667, 241.695349773035, -2.41123735245906E-06, 3.30374999999999,923.086669921875
0.133497161666667, 241.707342602746, 0.000254066879990431, 3.32000000000005,923.086669921875
0.13416326, 241.719965178833, 0.000446241727231631, 3.33750000000005,935.430541992188
0.134830635, 241.733105266417, 0.000280954529434116, 3.35375000000004,1117.86840820313
0.13549741, 241.746557104837, -0.000194412093362882, 3.37000000000004,925.568969726563
0.136163666666667, 241.760370526498, -0.000599225260049618, 3.38750000000004,931.151550292969
0.136829958333333, 241.77360954529, -0.000781224618375028, 3.40375000000004,931.151550292969
0.13749714, 241.787102965896, -0.00117436537131522, 3.42000000000003,928.728271484375
0.138163691666667, 241.800247910281, -0.00105561933579668, 3.43750000000004,928.39990234375
0.138830708333333, 241.813980755649, -0.000909396180458953, 3.45375000000003,933.113037109375
0.139496658333333, 241.827134132614, -0.00105305746449083, 3.47125000000004,930.245361328125
0.140163106666667, 241.841553591525, -0.00117402938820638, 3.48750000000003,930.245361328125
0.140829936666667, 241.854808398536, -0.00098440891264901, 3.50500000000004,930.606018066406
0.141496653333333, 241.868626945826, -0.00102401292337269, 3.52125000000003,939.395080566406
0.142163113333333, 241.881735896247, -0.000923133990406342, 3.53875000000003,925.102722167969
0.142831326666667, 241.895024323366, -0.000684249989310495, 3.55500000000003,928.925170898438
0.143498338333333, 241.907820897594, -0.000485419976323064, 3.57125000000003,928.925170898438
0.144163351666667, 241.921105738461, -0.000558271317065452, 3.58750000000002,917.621154785156
