Time (min), Depth (µm), Load (N), Position (µm), Acoustic (aJ)
7.35333333333333E-06, 239.275789627931, -0.000114751902806079, 0,324.811431884766
0.000667025, 239.276177006206, -0.000249232147992812, 0.00125000000000819,327.515045166016
0.00133324166666667, 239.274869747247, -6.69358045505407E-05, 0.0137500000000346,326.795257568359
0.00199961, 239.275723563309, -8.95861668748913E-05, 0.0387500000000318,346.623138427734
0.00266630833333333, 239.279805374376, -6.25485254159629E-06, 0.0612500000000127,342.463134765625
0.00333293, 239.287165685328, -5.72357918193609E-05, 0.0800000000000245,342.463134765625
0.00399990666666667, 239.297309875909, 2.8678392761426E-05, 0.0962500000000199,404.663146972656
0.00466648333333333, 239.311563783712, -0.000179349158197077, 0.112500000000015,338.016357421875
0.00533318833333333, 239.326153106152, -8.51418901028908E-05, 0.128750000000011,333.644439697266
0.00599959, 239.339728741968, -8.78072566176442E-06, 0.146250000000014,339.150329589844
0.00666628666666667, 239.353640330964, -1.25770349427788E-05, 0.16250000000001,339.150329589844
0.00733321833333333, 239.36661601576, 0.000236003979099205, 0.180000000000013,333.806854248047
0.00799972833333333, 239.379903425183, 0.0002047305499565, 0.197500000000017,339.382293701172
0.00866632166666667, 239.393098242448, 3.38966309293356E-06, 0.213750000000013,339.419769287109
0.00933290833333333, 239.406780211992, -0.000207274755455341, 0.230000000000008,333.097900390625
0.009999585, 239.419385997445, -0.000105218381662407, 0.246250000000003,333.097900390625
0.01066624, 239.433333429287, -8.52918825432165E-05, 0.263750000000007,335.805694580078
0.0113331433333333, 239.446802756768, 0.000220797742863468, 0.281250000000011,341.876708984375
0.0119997083333333, 239.460780365908, 0.0004806701897473, 0.297500000000006,338.729705810547
0.0126662566666667, 239.474471316281, 0.000155195537973509, 0.313750000000002,342.765991210938
0.01333304, 239.488570169193, 3.62755112029351E-05, 0.329999999999997,342.765991210938
0.0139995816666667, 239.5023243682, 0.000198168379480764, 0.346250000000048,338.245666503906
0.0146664483333333, 239.516300668466, -0.000224091910818988, 0.363749999999996,345.016235351563
0.0153329833333333, 239.530501626305, -0.000591876437386269, 0.380000000000047,339.938720703125
0.01600123, 239.544351694996, -0.00017671529049862, 0.396250000000042,339.439086914063
0.0166662833333333, 239.558451864716, 9.33086458941805E-06, 0.41125000000003,339.439086914063
0.01733293, 239.572555590607, -0.000183425953447771, 0.428750000000033,350.847473144531
0.017999815, 239.58645212292, 0.000141093246289857, 0.443750000000021,345.873016357422
0.0186663216666667, 239.600167671552, 0.000372374129310345, 0.461250000000024,337.641998291016
0.019333175, 239.614395898302, 0.000492636588634376, 0.478750000000028,348.136138916016
0.0199995816666667, 239.628515223381, 0.000414594008618386, 0.495000000000023,348.136138916016
0.0206663883333333, 239.642528941753, 0.0005003117031236, 0.511250000000019,416.837371826172
0.0213330916666667, 239.656421362238, 0.00055571592023172, 0.528750000000022,337.534729003906
0.021999595, 239.670388837127, 0.000702372553785747, 0.545000000000018,341.529296875
0.02266627, 239.684385435231, 0.000601088641166761, 0.561250000000013,332.359649658203
0.0233329, 239.69826045412, 0.000502024617068424, 0.577500000000009,332.359649658203
0.023999825, 239.712555184527, 0.000192407168806399, 0.595000000000012,341.520751953125
0.02466624, 239.726886312148, -0.000126680803731852, 0.609999999999999,347.287536621094
0.02533358, 239.741049859215, -0.000354435363821404, 0.626249999999995,344.608551025391
0.0259996416666667, 239.754529773442, -0.000388437155942479, 0.642500000000046,271.924743652344
0.02666663, 239.768221268256, -0.000292168991420659, 0.660000000000049,271.924743652344
0.0273329066666667, 239.781608734121, 9.36986260264863E-06, 0.673750000000028,346.225677490234
0.02800001, 239.795403740999, 0.000248733839635063, 0.69250000000004,332.092681884766
0.0286663783333333, 239.809274885099, 7.35471390757183E-05, 0.710000000000044,325.356292724609
0.0293396633333333, 239.823557142657, 3.98798301390784E-05, 0.726250000000039,331.193908691406
0.0300059633333333, 239.837349458601, 0.000118354388489477, 0.743750000000043,331.193908691406
0.03067256, 239.851064901416, -0.00044379337544844, 0.761250000000047,333.081665039063
0.0313391266666667, 239.864503358191, -0.000510469526381165, 0.777500000000042,331.106964111328
0.0320060466666667, 239.877610255546, -0.000260243094992504, 0.792500000000029,327.627655029297
0.0326730583333333, 239.890839723469, -0.000196709286194703, 0.810000000000033,336.177551269531
0.033340825, 239.904397766259, -0.000320081089359293, 0.827500000000037,336.177551269531
0.03400599, 239.917743320567, -0.00018862169243082, 0.843750000000032,331.329071044922
0.0346724916666667, 239.931195168649, -0.000291275036242522, 0.861250000000036,329.973480224609
0.0353391266666667, 239.944174479448, -0.000108012741357028, 0.880000000000047,334.674072265625
0.0361734483333333, 239.963468769437, -0.000393713890907066, 0.897499999999996,399.975036621094
0.0368391566666667, 239.975912543338, -0.000108942694678335, 0.914999999999999,325.083984375
0.0375059883333333, 239.988936879903, -5.23955350049004E-05, 0.931249999999995,325.083984375
0.0381724716666667, 240.001579512308, -0.000282350484576605, 0.948749999999998,331.751556396484
0.0388392783333333, 240.015214463254, -0.000263187447127452, 0.963750000000041,336.064544677734
0.0395058516666667, 240.028398276617, -0.000606538200936097, 0.981250000000045,325.401031494141
0.04017436, 240.042001139603, -0.000789247023674281, 0.99750000000004,325.401031494141
0.0408391333333333, 240.054883647379, -0.00085060594168353, 1.01500000000004,328.782196044922
0.0415060866666667, 240.068557104981, -0.000671129456608228, 1.03125000000004,334.608001708984
0.0421724916666667, 240.081398814078, -0.000797918088158555, 1.04750000000003,329.438659667969
0.042839285, 240.095343605337, -0.000393167918360518, 1.06375000000003,335.756805419922
0.04350587, 240.108846380359, -0.00032897564266467, 1.08000000000003,329.310028076172
0.04417245, 240.123603092267, -0.000210390099099785, 1.09625000000002,329.310028076172
0.0448391233333333, 240.137702186756, -0.000401681490697434, 1.11500000000003,325.402862548828
0.045506215, 240.152279838611, -0.000433788877978382, 1.13125000000003,329.758270263672
0.0461728116666667, 240.166492036841, -0.000517427676856853, 1.14875000000003,335.049865722656
0.046839135, 240.181101342466, -0.000687609128832363, 1.16500000000003,269.301147460938
0.047506065, 240.194760991837, -0.000650395998032561, 1.18125000000002,269.301147460938
0.04817245, 240.208575200891, -0.00036880314216694, 1.19875000000003,330.257415771484
0.0488391466666667, 240.222590212694, -0.00034263545654309, 1.21500000000002,339.189971923828
0.0495060083333333, 240.236687737435, -0.000358114679041473, 1.23125000000002,338.049652099609
0.0501727166666667, 240.250504752344, -0.000201078566789049, 1.24750000000001,336.304107666016
0.0508393583333333, 240.264527763852, -0.000276143796290711, 1.26375000000001,336.304107666016
0.0515063966666667, 240.278623474428, -0.000472827417053252, 1.28,337.780792236328
0.0521726183333333, 240.29211050704, -0.00031851816787605, 1.29750000000001,338.183319091797
0.0528396916666667, 240.305574836012, -0.00035202198503148, 1.31249999999999,403.117401123047
0.053507565, 240.319006141558, -0.000568944089274106, 1.33,330.800384521484
0.05417261, 240.332400752162, -0.000345825796280171, 1.34500000000004,330.800384521484
0.0548392966666667, 240.346086707071, -0.000599467556108911, 1.36125000000004,339.202941894531
0.0555059533333333, 240.359482215905, -0.000717271638932174, 1.37875000000004,335.367462158203
0.0561732633333333, 240.372561635791, -0.000639574041613949, 1.39500000000004,335.19580078125
0.05683956, 240.385489291975, -0.000114019939654781, 1.41125000000003,335.19580078125
0.05750594, 240.39835570209, -0.00017539235698366, 1.42750000000003,338.121002197266
0.05817282, 240.411031690424, 2.10902738875905E-05, 1.44500000000003,338.825164794922
0.0588394733333333, 240.424061461792, -0.000175183867427845, 1.46125000000003,336.601593017578
0.0595063066666667, 240.436893236598, -0.000123512962797057, 1.47750000000002,338.530334472656
0.060173685, 240.450546946908, -0.000519113592226181, 1.49375000000002,335.807495117188
0.060840925, 240.464013121357, -0.000463194900983981, 1.51000000000001,335.807495117188
0.06150784, 240.477501599585, -0.000420693035824366, 1.52625000000001,343.575927734375
0.0621744466666667, 240.491070982708, -0.000256644775817736, 1.5425,338.562316894531
0.0628411116666667, 240.504598066178, -0.000398215164891407, 1.56000000000001,331.037994384766
0.063506775, 240.517394397122, -0.000236127306377392, 1.57625,331.166931152344
0.06417343, 240.530194730691, -0.000494757815642785, 1.5925,331.166931152344
0.0648394533333333, 240.542446243565, -0.000507570172084586, 1.60875000000005,334.137817382813
0.0655067, 240.55439132161, -0.00035947211088147, 1.63125000000003,329.505004882813
0.0661744433333333, 240.56721136367, -8.5776358359264E-05, 1.64375,348.572357177734
0.0668422616666667, 240.579159020829, -0.000312285981002825, 1.65999999999999,386.431579589844
0.0675061383333333, 240.591165510755, -8.73722781793795E-05, 1.6775,386.431579589844
0.0681745116666667, 240.603296139938, 1.44396079145699E-05, 1.69375000000005,399.284484863281
0.0688395083333333, 240.615608909682, -8.54223760938247E-05, 1.71000000000004,393.33056640625
0.0695063433333333, 240.626733182594, -0.000298857155503761, 1.72750000000005,474.343322753906
0.0701746633333333, 240.638520090295, -0.00033742771814356, 1.74375000000004,393.942138671875
0.0708410916666667, 240.649666851165, -0.000467421688696256, 1.76125000000005,393.942138671875
0.0715067716666667, 240.660381095985, -0.000388621646707842, 1.77750000000004,391.532806396484
0.0721731783333333, 240.670645532226, -0.00021746524374269, 1.79500000000005,397.943511962891
0.0728394416666667, 240.681652546688, -0.000378780641040247, 1.81125000000004,399.232208251953
0.0735066883333333, 240.691506634631, -3.55783797262704E-05, 1.82750000000004,391.728454589844
0.0741733883333333, 240.702520745685, 0.000177578913605301, 1.84500000000004,391.728454589844
0.074839455, 240.713223550529, 0.000301355696380025, 1.86125000000004,391.167327880859
0.0755062416666667, 240.724129903499, 0.00027438705099731, 1.87750000000003,393.242431640625
0.0761729566666667, 240.733934728342, 0.000643658002882014, 1.89500000000004,391.742370605469
0.0768402483333333, 240.744939230114, 0.000413238076639029, 1.91125000000003,395.157409667969
0.0775061433333333, 240.755102762265, 4.32711596824344E-05, 1.92750000000003,395.157409667969
0.0781728133333333, 240.765346681841, -0.000232906968152245, 1.94500000000003,398.320281982422
0.078839435, 240.774798636482, -0.000172218516478776, 1.96125000000003,402.454223632813
0.0795061, 240.785323224473, -0.000513452876635614, 1.97750000000002,389.086669921875
0.08017322, 240.795058272894, -0.000617873131713164, 1.99375000000002,395.900665283203
0.080840195, 240.804511605494, -0.00037758670108773, 2.01125000000002,395.900665283203
0.0815066033333333, 240.814679258944, -0.000623361356061119, 2.02750000000002,409.952117919922
0.0821728183333333, 240.824901102767, -0.0010377185433411, 2.04500000000002,399.046661376953
0.0828394366666667, 240.834426751194, -0.000891646880346848, 2.06125000000001,399.849670410156
0.083506325, 240.84409774448, -0.00060944955481919, 2.07750000000001,401.593872070313
0.0841735066666667, 240.85413915028, -0.000795341217672439, 2.09375000000001,401.593872070313
0.0848405883333333, 240.863729861096, -0.000496770714532023, 2.11,410.700775146484
0.085506625, 240.873424877085, -0.000489214094070656, 2.12625,402.866027832031
0.0861727966666667, 240.883109492992, -0.000600426007993879, 2.14250000000005,473.489440917969
0.08683945, 240.893213185859, -0.000857813079695176, 2.16,400.391204833984
0.087506325, 240.902807968569, -0.001080176910608, 2.17625000000005,400.391204833984
0.0881729283333333, 240.912402895726, -0.00105493767838105, 2.19125000000003,396.692657470703
0.0888396, 240.922005493594, -0.000935747665175385, 2.20750000000003,391.029907226563
0.0895065216666667, 240.931602390383, -0.001086793078341, 2.22500000000003,393.645050048828
0.0901730366666667, 240.941046076426, -0.00124775149354557, 2.24000000000002,394.181304931641
0.0908396133333333, 240.948714896006, -0.00128843545003088, 2.25500000000001,394.181304931641
0.0915065416666667, 240.956428051249, -0.00167145921114951, 2.27500000000003,503.814727783203
0.0921735183333333, 240.964342087508, -0.0014435696577999, 2.29125000000002,604.562683105469
0.09283981, 240.972446913633, -0.00115566961873462, 2.30750000000002,602.838012695313
0.0935069033333333, 240.98068269478, -0.00114770501881432, 2.32375000000001,610.554443359375
0.0941734966666667, 240.990745012369, -0.000759254530269516, 2.34125000000002,610.554443359375
0.0948396066666667, 241.000902892393, -0.000576526208535344, 2.35750000000001,606.080932617188
0.0955063066666667, 241.011237177279, -0.000727306134996567, 2.37375000000001,614.94775390625
0.0961732116666667, 241.021164353025, -0.000845795683399643, 2.39,603.348510742188
0.09683992, 241.03097026492, -0.000292635468080105, 2.40750000000001,611.37353515625
0.0975064116666667, 241.040999671707, -0.000386796238496536, 2.42375,611.37353515625
0.0981733783333333, 241.050747691189, -0.000252531982466381, 2.44125000000001,611.716979980469
0.0988398016666667, 241.060374669131, -0.00023163503208825, 2.4575,612.728454589844
0.0995062766666667, 241.070396527235, -0.000129440665207708, 2.47375,616.346374511719
0.100173276666667, 241.080065635245, -0.000102413522752011, 2.49000000000005,611.84716796875
0.100840348333333, 241.090417277958, 0.000121700720236973, 2.50625000000004,611.84716796875
0.101507895, 241.100369853543, 0.000332249644563689, 2.52375000000005,604.897644042969
0.102173833333333, 241.110681768075, 0.000466420905302096, 2.54000000000004,730.493408203125
0.102840133333333, 241.121307494678, 0.000569672719099476, 2.55625000000004,606.778747558594
0.103507821666667, 241.132016883209, 0.000373337080862253, 2.57250000000003,617.473022460938
0.104173248333333, 241.142225680845, 0.000349539276199378, 2.59000000000004,617.473022460938
0.104840183333333, 241.153294666933, 0.000195717502495742, 2.60750000000004,612.555847167969
0.105507916666667, 241.164082013188, -6.40829479954789E-05, 2.62375000000004,606.356262207031
0.106174943333333, 241.174676088554, -0.000251117553435297, 2.64000000000003,614.410461425781
0.10684126, 241.185676783004, -0.000358732648001885, 2.65750000000003,603.225158691406
0.107506801666667, 241.196666496182, -0.00057831111883027, 2.67375000000003,603.225158691406
0.10817357, 241.207526319488, -0.000382830437609175, 2.69125000000003,609.563049316406
0.10883968, 241.217914895358, -6.47654136839776E-05, 2.70750000000003,600.728759765625
0.109507925, 241.228742609214, 0.000276968421362907, 2.72500000000003,614.305297851563
0.110173223333333, 241.239442369468, 0.000345750466476617, 2.74125000000003,609.133422851563
0.110840198333333, 241.250067171848, 0.000669008229599819, 2.75750000000002,609.133422851563
0.111506523333333, 241.260766666541, 0.000376482422845983, 2.77500000000003,605.08154296875
0.112173535, 241.272390557796, 5.11967616107651E-05, 2.79125000000002,608.227416992188
0.11283959, 241.28334862064, -0.000275306838473693, 2.80750000000002,604.983764648438
0.113506286666667, 241.294879231171, -0.00025078007042331, 2.82250000000001,601.25927734375
0.114172945, 241.30605024025, -0.000572144928609535, 2.84000000000001,601.25927734375
0.114840263333333, 241.317680122786, -0.000311209035153761, 2.85625,599.873474121094
0.11550635, 241.329309791688, 8.64959885744528E-05, 2.87375000000001,605.343017578125
0.116173276666667, 241.341492624651, 0.00033716189787703, 2.89,602.902465820313
0.116839588333333, 241.353932620307, 0.000351598672723862, 2.90750000000001,604.060180664063
0.117507051666667, 241.366995333453, 0.000667442308225261, 2.92249999999999,604.060180664063
0.118173225, 241.37999312725, 0.000446557403029097, 2.93875000000005,603.340148925781
0.118839598333333, 241.393251168016, 0.000146071496106909, 2.95500000000004,737.255798339844
0.119507978333333, 241.406340270511, 0.00021227367080068, 2.97125000000004,615.428955078125
0.120174393333333, 241.419651433191, 0.000354828010431666, 2.98875000000004,605.008483886719
0.120841108333333, 241.433046826569, 0.000436381914070797, 3.00500000000004,605.008483886719
0.121648245, 241.446525894731, 0.00045427451533785, 3.025,609.73046875
0.122340551666667, 241.459823014345, 0.00056005220221289, 3.0425,613.181457519531
0.123007958333333, 241.473761347657, 0.000444181522285492, 3.05875,603.881469726563
0.123674781666667, 241.487110938777, 0.000462593097502343, 3.07499999999999,599.640991210938
0.124341221666667, 241.500784356497, 0.000479743236062258, 3.09125000000005,600.008117675781
0.125007928333333, 241.514141478884, 0.000826306828516543, 3.10750000000004,600.008117675781
0.125674578333333, 241.527723724214, 0.000570868158955143, 3.12375000000004,606.249206542969
0.12634254, 241.54102224733, 0.000486680387638809, 3.14000000000003,610.005187988281
0.12700685, 241.554784369289, 5.31856616457882E-05, 3.15625000000003,607.241027832031
0.127674431666667, 241.568286065934, -9.52108845135755E-05, 3.17375000000003,610.366027832031
0.128340283333333, 241.581693570044, -0.000179734638938747, 3.19000000000003,610.366027832031
0.129006643333333, 241.595386017811, 0.000140248788638282, 3.20625000000002,607.039123535156
0.12967359, 241.609092637265, 0.000235702494102863, 3.22500000000003,608.110717773438
0.130340863333333, 241.623501870406, 0.000530353694033672, 3.24125000000003,661.787170410156
0.131006771666667, 241.638387789053, 3.7257961729577E-05, 3.25625000000002,798.072265625
0.13167323, 241.653347906131, 0.000121487730950456, 3.27375000000002,798.072265625
0.132339658333333, 241.6681796031, -0.0002690296537621, 3.29125000000002,800.105224609375
0.13300641, 241.683315593884, -0.000412912926648168, 3.30750000000002,805.536193847656
0.133673015, 241.696962249429, -0.000424816328731561, 3.32375000000001,801.390014648438
0.134339873333333, 241.710369225613, -0.000150880588219817, 3.34000000000001,806.973999023438
0.13500702, 241.724022282862, -0.000327592712152325, 3.35750000000001,806.973999023438
0.135672898333333, 241.737804981948, -0.000221627534684369, 3.37375000000001,965.696044921875
0.136340695, 241.751305675227, -0.000370292567418187, 3.39125000000001,793.972595214844
0.137006565, 241.76492042116, -0.000698854064102727, 3.40875000000002,799.820983886719
0.137673311666667, 241.778555212272, -0.000718938055326767, 3.42375,803.365173339844
0.138340118333333, 241.792058131053, -0.000977592563382612, 3.44125000000001,803.365173339844
0.139006266666667, 241.804601106221, -0.000905969660917778, 3.46000000000002,798.848083496094
0.139673091666667, 241.817386755982, -0.000634336304790117, 3.47500000000001,806.484497070313
0.140340385, 241.831076123576, -0.000590877487733699, 3.49125,806.926208496094
0.141006296666667, 241.844334906714, -0.000694130801434228, 3.5075,801.487182617188
0.14167291, 241.85785105766, -0.000648636586580015, 3.525,801.487182617188
0.142339625, 241.871543068879, -0.000601733942456094, 3.5425,807.726013183594
0.143006241666667, 241.8847767255, -0.000673914816883956, 3.55875,801.376342773438
0.143672998333333, 241.897877459835, -0.000363500908657531, 3.57499999999999,797.886657714844
0.144340303333333, 241.911127434922, 2.64405049991586E-05, 3.59125000000005,807.570617675781
0.145006803333333, 241.924480833382, 0.000119867812233618, 3.60875000000005,807.570617675781
