Time (min), Depth (µm), Load (N), Position (µm), Acoustic (aJ)
8.00166666666667E-06, 239.30919061108, -0.000376651261270757, 0,382.677459716797
0.000665281666666667, 239.30875992398, -0.00017925067649468, 0.00125000000000819,382.677459716797
0.00133200666666667, 239.307315459938, -0.000165344874992872, 0.0137500000000346,386.422058105469
0.001998595, 239.308995879577, -0.000188994187118571, 0.0387500000000318,394.824249267578
0.00266547, 239.31406552954, 0.000231370198480413, 0.0612500000000127,390.246734619141
0.00333190333333333, 239.322462360235, 0.000283036603316737, 0.0800000000000245,394.483520507813
0.00399926166666667, 239.333909242189, 0.000169429309717683, 0.0975000000000281,394.483520507813
0.004665275, 239.349492924943, 3.44975872218073E-05, 0.113750000000024,396.132507324219
0.00533200333333333, 239.36451755842, -0.000253922925717673, 0.130000000000019,395.220123291016
0.00599846666666667, 239.37917290632, -0.000557480678327831, 0.146250000000014,392.835052490234
0.00666529833333333, 239.392626638761, -0.000532829416509469, 0.163750000000018,397.197784423828
0.00733200833333333, 239.406577198269, -0.000247426752000696, 0.181250000000022,397.197784423828
0.00799863166666667, 239.419962536532, -4.33695015964932E-05, 0.196250000000009,393.316497802734
0.00866543166666667, 239.433257861945, 0.000227254405258997, 0.212500000000004,475.108917236328
0.009332455, 239.446993460277, 0.00036269610215825, 0.230000000000008,397.394561767578
0.00999871166666667, 239.460908073589, 0.000292376634233643, 0.247500000000012,399.153991699219
0.0106655083333333, 239.474661187822, -0.000334927856961449, 0.262499999999999,399.153991699219
0.011331835, 239.48846543605, -0.000634353317139247, 0.280000000000002,400.774383544922
0.011998705, 239.502818528824, -0.00114150934322245, 0.297500000000006,396.023712158203
0.012665215, 239.516351950492, -0.00124262826411457, 0.313750000000002,394.948181152344
0.01333181, 239.530069554356, -0.000904174764311469, 0.329999999999997,391.142639160156
0.0139989133333333, 239.543464850065, -0.00061768315447339, 0.346250000000048,391.142639160156
0.01466527, 239.557215214459, -0.000423783393849631, 0.362500000000043,394.143127441406
0.01533205, 239.570200300067, -8.92596966419451E-05, 0.380000000000047,403.35107421875
0.0159987416666667, 239.583611663963, -0.000124972902804694, 0.396250000000042,396.677307128906
0.0166656033333333, 239.597054214832, -0.000483514893562535, 0.41125000000003,393.515228271484
0.0173318966666667, 239.609914850265, -0.000688977573366385, 0.427500000000025,393.515228271484
0.017998525, 239.623091030976, -0.000812446871659696, 0.445000000000029,394.186401367188
0.0186654183333333, 239.636660194962, -0.000901011423128629, 0.462500000000032,388.27978515625
0.019331975, 239.650586715458, -0.000863133825690659, 0.47750000000002,393.99267578125
0.0199987366666667, 239.664415503093, -0.000948238050966163, 0.493750000000015,316.294067382813
0.02066539, 239.678813442745, -0.000814680259436212, 0.511250000000019,316.294067382813
0.0213324633333333, 239.692601963628, -0.00108163085076925, 0.528750000000022,399.969207763672
0.0219984533333333, 239.706747011989, -0.00117874347292139, 0.545000000000018,396.501708984375
0.0226658783333333, 239.720065488869, -0.00128791998911058, 0.561250000000013,399.870056152344
0.0233318566666667, 239.733976542534, -0.00112573613543476, 0.577500000000009,319.258453369141
0.0239984933333333, 239.747229882094, -0.00105694659067778, 0.593750000000004,319.258453369141
0.02466531, 239.761150440489, -0.0010204294248861, 0.609999999999999,399.447479248047
0.0253318516666667, 239.774565647364, -0.00101005144617587, 0.626249999999995,470.955322265625
0.0259986483333333, 239.788569088167, -0.00133737700496084, 0.642500000000046,388.695190429688
0.0266653, 239.80194016854, -0.0017458544875811, 0.660000000000049,397.4482421875
0.02733182, 239.816060829395, -0.00191397804289277, 0.673750000000028,397.4482421875
0.0279986833333333, 239.829331834992, -0.00177852434661954, 0.69250000000004,456.863891601563
0.0286653133333333, 239.842539160519, -0.00120234328760554, 0.708750000000036,547.671630859375
0.029331885, 239.856260339374, -0.00101907949275314, 0.726250000000039,541.822326660156
0.0299989533333333, 239.870060913796, -0.000804816754945077, 0.743750000000043,553.187438964844
0.0306654516666667, 239.883486218817, -0.000487998168411528, 0.761250000000047,553.187438964844
0.031331845, 239.897064010942, -0.000255466348247437, 0.776250000000034,544.571838378906
0.031998665, 239.911092391052, -0.000470279558417762, 0.792500000000029,541.785278320313
0.0326654916666667, 239.924205805279, -0.000341364033681042, 0.810000000000033,537.607055664063
0.03333202, 239.937812157391, -0.000365227835060169, 0.826250000000028,540.031982421875
0.033998695, 239.951588558305, -0.000572208438636419, 0.843750000000032,540.031982421875
0.0346655233333333, 239.965207243203, -0.000664515302150358, 0.860000000000027,538.746154785156
0.0353318416666667, 239.978318764209, -0.00105678759871228, 0.876250000000023,536.40087890625
0.0359986283333333, 239.991947584704, -0.000964693724484862, 0.897499999999996,543.906433105469
0.036832045, 240.004756720236, -0.00098374876737698, 0.913750000000046,536.823486328125
0.03749862, 240.017587762748, -0.000973465283904154, 0.931249999999995,543.923156738281
0.038165215, 240.030920036766, -0.00125298824371071, 0.947500000000046,543.923156738281
0.0388318616666667, 240.043935920828, -0.00121207179887913, 0.962500000000033,540.830017089844
0.0394988416666667, 240.056539238332, -0.00123021488758529, 0.982499999999997,544.872009277344
0.0401652466666667, 240.069428572691, -0.00130646205775051, 0.996250000000032,535.875183105469
0.0408318966666667, 240.081879958478, -0.00122000790027828, 1.01375000000004,541.604919433594
0.0414989833333333, 240.094697570741, -0.00132354169988473, 1.03125000000004,541.604919433594
0.0421653716666667, 240.10777281578, -0.00154493957931182, 1.04750000000003,646.853820800781
0.0428319316666667, 240.120579789671, -0.00159865488124432, 1.06375000000003,539.469360351563
0.0434986433333333, 240.133619017635, -0.00173164420136167, 1.08125000000003,541.583557128906
0.044165395, 240.146563771721, -0.0018796792657186, 1.09750000000003,532.84228515625
0.0448319416666667, 240.158929196994, -0.00168383710265255, 1.11500000000003,532.84228515625
0.0454986066666667, 240.171557815478, -0.00153119126991487, 1.13125000000003,542.963317871094
0.0461652416666667, 240.184205607301, -0.00173028226981223, 1.14750000000002,540.618408203125
0.0468318283333333, 240.19620072822, -0.00143025983963692, 1.16500000000003,538.712707519531
0.0474985416666667, 240.208047979357, -0.00146556806612577, 1.18125000000002,538.489013671875
0.0481653533333333, 240.220038418381, -0.00141876141720616, 1.19750000000002,538.489013671875
0.0488319133333333, 240.23218730977, -0.00125099634382688, 1.21500000000002,540.558715820313
0.04949863, 240.244556368682, -0.00126105033880224, 1.23125000000002,529.736022949219
0.05016529, 240.25736005242, -0.00136621755633888, 1.24625,530.655029296875
0.050831795, 240.270775207382, -0.00134004687088748, 1.26375000000001,522.1923828125
0.05149902, 240.284066560919, -0.00158265818476305, 1.28,522.1923828125
0.052165335, 240.297584278475, -0.00170890834338884, 1.29625,538.139099121094
0.0528319633333333, 240.310621613263, -0.00148686549636208, 1.31249999999999,526.885864257813
0.0534992883333333, 240.32405422654, -0.00155808941887188, 1.32875000000005,523.525512695313
0.0541653233333333, 240.337875998139, -0.00176773838838661, 1.34500000000004,535.089721679688
0.0548318766666667, 240.351861066787, -0.00168567001059214, 1.36250000000004,535.089721679688
0.0554983966666667, 240.365473158704, -0.00160543754056482, 1.37875000000004,522.683532714844
0.0561662033333333, 240.37875561277, -0.00163668997080839, 1.39500000000004,531.945922851563
0.0568326433333333, 240.391549037475, -0.00131303772750337, 1.41125000000003,530.198120117188
0.0574985216666667, 240.404297514587, -0.000923672284923803, 1.42750000000003,638.035888671875
0.058165125, 240.416720037923, -0.000923154810940916, 1.44500000000003,638.035888671875
0.0588326333333333, 240.429369351027, -0.000964659226223587, 1.46000000000002,521.471923828125
0.05949854, 240.442641148512, -0.00120959392340363, 1.47750000000002,530.4677734375
0.0601658316666667, 240.45594260798, -0.00154842540428387, 1.49375000000002,532.606689453125
0.0608324466666667, 240.469203925906, -0.00170037827184098, 1.51000000000001,530.265502929688
0.0614992366666667, 240.482589204404, -0.00159556953625797, 1.52625000000001,530.265502929688
0.0621651816666667, 240.49549433702, -0.00148546756658445, 1.5425,544.372131347656
0.0628317966666667, 240.508440536368, -0.00102666161195061, 1.56000000000001,531.007751464844
0.0634984666666667, 240.520976496861, -0.000551948956299706, 1.57625,536.558959960938
0.0641652116666667, 240.53297392454, -9.5952360498257E-05, 1.5925,541.210510253906
0.0648319533333333, 240.544343339371, 0.000396678395177066, 1.60875000000005,541.210510253906
0.0654984333333333, 240.55584306205, 0.000494636974820169, 1.63000000000002,529.541015625
0.0661653483333333, 240.568309702363, 0.000408050823957944, 1.64375,528.967590332031
0.0668318116666667, 240.579948018855, 5.07237721155208E-05, 1.66125,369.824859619141
0.0674987316666667, 240.591441353952, -0.000395047837201067, 1.67625000000005,359.406799316406
0.068165395, 240.603089825752, -0.000735184252482179, 1.69375000000005,359.406799316406
0.068831965, 240.614405452284, -0.000640621502240658, 1.71125,363.656188964844
0.0694993066666667, 240.624472706141, -0.00066770414187802, 1.72750000000005,364.17041015625
0.070165915, 240.635157069167, -0.000440386059832325, 1.74375000000004,360.39111328125
0.0708318433333333, 240.645789760303, -2.42739607454867E-05, 1.76125000000005,366.896209716797
0.071498535, 240.656379266646, 0.000136039486859408, 1.77750000000004,366.896209716797
0.072165175, 240.666513329687, 0.000203632091708794, 1.79500000000005,366.222198486328
0.0728318416666667, 240.67701008682, 0.000276687422191279, 1.81125000000004,365.292602539063
0.073498455, 240.687503057218, 0.000373875040542329, 1.82750000000004,370.228393554688
0.074166385, 240.69786050153, -0.000150287131358075, 1.84500000000004,435.313293457031
0.0748318316666667, 240.708399335893, -9.87302209819347E-05, 1.86125000000004,366.951019287109
0.0754987566666667, 240.719304877193, -0.000400749050835539, 1.87750000000003,366.951019287109
0.0761653133333333, 240.729588227843, -0.000466033271645737, 1.89500000000004,363.721405029297
0.0768323283333333, 240.740128339788, -0.000704996768734957, 1.91125000000003,368.797912597656
0.077499, 240.750482736449, -0.000605091286833852, 1.92625000000002,366.93017578125
0.078165155, 240.760580795515, -0.000818847050151102, 1.94375000000002,366.93017578125
0.07883186, 240.77060796023, -0.000487402698253402, 1.96125000000003,371.513305664063
0.0794985516666667, 240.780305388637, -0.000535434785665518, 1.97750000000002,372.340728759766
0.0801652816666667, 240.790279402964, -0.00041633326804215, 1.99250000000001,361.421966552734
0.0808318666666667, 240.799900696601, -0.000392727453745399, 2.01125000000002,366.803619384766
0.0814986916666667, 240.809886605079, -0.000548910108799829, 2.02750000000002,366.803619384766
0.082165895, 240.819986869842, -0.000839052535294314, 2.0425,367.904052734375
0.0828320983333333, 240.83025419387, -0.000964485234950301, 2.06125000000001,359.867340087891
0.0834992166666667, 240.840094067824, -0.00147120178307708, 2.07750000000001,371.579742431641
0.084165785, 240.850760265911, -0.00162361062775905, 2.09375000000001,363.144989013672
0.0848325183333333, 240.860390292261, -0.00176830985966927, 2.11,363.144989013672
0.085498505, 240.870400649275, -0.00188228313486522, 2.12625,372.400787353516
0.08616551, 240.880471607689, -0.00178691042533967, 2.14250000000005,369.365936279297
0.08683183, 240.890482548823, -0.00135048334662819, 2.15875000000004,371.422271728516
0.0874990733333333, 240.900249953202, -0.00113764253740946, 2.17625000000005,372.496551513672
0.08816563, 240.910533164042, -0.00119965542258606, 2.19250000000004,372.496551513672
0.0888320316666667, 240.92057112881, -0.00129230576883085, 2.20750000000003,364.561889648438
0.0894986666666667, 240.930361289748, -0.00138662703117969, 2.22500000000003,372.567291259766
0.0901653216666667, 240.939955192541, -0.00144129628520268, 2.24000000000002,373.172821044922
0.0908318333333333, 240.948594767632, -0.00142377266542385, 2.25500000000001,421.593383789063
0.09149881, 240.956574023927, -0.00125726902872275, 2.27500000000003,295.983764648438
0.092165465, 240.964543440087, -0.00103239882372825, 2.29125000000002,295.983764648438
0.0928318366666667, 240.973831572809, -0.000898377555472681, 2.30750000000002,299.689636230469
0.09349925, 240.982919569225, -0.00102004094448691, 2.32375000000001,293.667846679688
0.094165245, 240.992860301038, -0.000844006786469693, 2.34000000000001,298.310638427734
0.094831905, 241.003404370212, -0.000294699877579747, 2.35750000000001,298.310638427734
0.0954985533333333, 241.013866337176, -0.000147576767387527, 2.37375000000001,291.635498046875
0.0961652, 241.023856354117, -0.000223462455729059, 2.39,293.498291015625
0.0968318133333333, 241.034150893341, -2.45664460678843E-05, 2.40625,293.758575439453
0.09749839, 241.044068138357, 6.92313425579422E-05, 2.42249999999999,298.10107421875
0.0981655033333333, 241.054653491915, -0.000210497106998126, 2.44,298.10107421875
0.09883196, 241.065196852439, -0.000503471391191044, 2.4575,294.746337890625
0.0994986466666667, 241.075502173623, -0.000703688834485284, 2.47375,297.917633056641
0.10016515, 241.085401558927, -0.000725944716585307, 2.49000000000005,296.195831298828
0.100832566666667, 241.09558622499, -0.00116414620614215, 2.50625000000004,290.443664550781
0.101498613333333, 241.105952241789, -0.00129540761300689, 2.52375000000005,290.443664550781
0.102165366666667, 241.11593244004, -0.000964279745222038, 2.54000000000004,285.606964111328
0.102831785, 241.125937193513, -0.000965655176154874, 2.55625000000004,296.501861572266
0.103499271666667, 241.136172564108, -0.00111636310624474, 2.57250000000003,293.605346679688
0.104165238333333, 241.146213131637, -0.000887759588751658, 2.59000000000004,298.612854003906
0.104831938333333, 241.156184228745, -0.000924588738861718, 2.60750000000004,298.612854003906
0.105498498333333, 241.166577422326, -0.00120825449065647, 2.62375000000004,292.478363037109
0.106165985, 241.176975260974, -0.00113725855669847, 2.64000000000003,298.155303955078
0.106833288333333, 241.187083574007, -0.00111563714270604, 2.65750000000003,297.580993652344
0.107499091666667, 241.197627681316, -0.000929022516205404, 2.67375000000003,357.805419921875
0.108165195, 241.207569601888, -0.00104637362177387, 2.69125000000003,292.078125
0.10883197, 241.217663315295, -0.000636342217238032, 2.70875000000004,292.078125
0.109499241666667, 241.227623972589, -0.000641194473532735, 2.72500000000003,294.261383056641
0.110165375, 241.238073207304, -0.000610180531333049, 2.74125000000003,294.675445556641
0.110831856666667, 241.248150879702, -0.000765623723571655, 2.75625000000002,297.839660644531
0.111498713333333, 241.258611377674, -0.00100631363394658, 2.77375000000002,297.839660644531
0.112165493333333, 241.269120881474, -0.00137288622136224, 2.79125000000002,288.364959716797
0.112831843333333, 241.279694616102, -0.00150025232391409, 2.80750000000002,297.205322265625
0.113498431666667, 241.289228408526, -0.00134283223095067, 2.82250000000001,296.760986328125
0.114165141666667, 241.299471374091, -0.00124240327541157, 2.84125000000002,298.290863037109
0.114832125, 241.309335444649, -0.000898554546573519, 2.85625,298.290863037109
0.1154989, 241.319108266171, -0.000801839404473258, 2.8725,293.615570068359
0.11616542, 241.328603895138, -0.000540332039692318, 2.89,298.706970214844
0.11683218, 241.339178636278, -0.000622284923286478, 2.90750000000001,294.199249267578
0.117498525, 241.349636980508, -0.000600711506896208, 2.92249999999999,306.570556640625
0.11816545, 241.359965857168, -0.000503516388901888, 2.93750000000004,306.570556640625
0.118831921666667, 241.37043643736, -0.000629129079550028, 2.95500000000004,297.504455566406
0.11949854, 241.381029628531, -0.000510627531772979, 2.97125000000004,294.549163818359
0.12016543, 241.391624152371, -0.000409156128561077, 2.98875000000004,293.110260009766
0.120831891666667, 241.402502583447, -0.000603996341955712, 3.00625000000004,296.303985595703
0.1214985, 241.413953032186, -0.000773894308133989, 3.02125000000003,296.303985595703
0.122165233333333, 241.424809680811, -0.000642982383676468, 3.03750000000003,294.115783691406
0.12283183, 241.435770118962, -0.000436141273133482, 3.05500000000003,300.317565917969
0.12349925, 241.44698533568, -0.000536801217094443, 3.07125000000003,301.730865478516
0.124166046666667, 241.457812189791, -0.000671066973049002, 3.08625000000001,353.282562255859
0.124832125, 241.468793270436, -0.000390599060677111, 3.10250000000001,294.58251953125
0.12549889, 241.479863695594, -0.000402835446063044, 3.12000000000001,294.58251953125
0.126165135, 241.491921735168, -0.000648221620530973, 3.13625000000001,289.751831054688
0.126831858333333, 241.503854169823, -0.000929433495534404, 3.1525,290.783447265625
0.12749924, 241.516134767786, -0.00090614866510246, 3.16875,297.906311035156
0.128165735, 241.52856677133, -0.00143188275801127, 3.18625,297.906311035156
0.128831926666667, 241.54159956473, -0.00148358216120572, 3.2025,291.173126220703
0.129498555, 241.553810703499, -0.00135673653252807, 3.22,297.882049560547
0.130165626666667, 241.567427243128, -0.00109956994973531, 3.23625,298.790466308594
0.130831841666667, 241.580647303157, -0.000897254111860845, 3.25125000000004,321.499298095703
0.131498445, 241.594361428658, -0.000596901698231802, 3.27,321.499298095703
0.132165906666667, 241.608196001318, -0.000996931605188894, 3.28875000000001,318.381683349609
0.132999166666667, 241.629118760391, -0.00148298519120821, 3.30875000000003,319.702850341797
0.133666021666667, 241.64218696653, -0.00160504906008062, 3.32500000000002,321.484405517578
0.134331845, 241.65493649342, -0.00154724796337227, 3.34000000000001,326.314025878906
0.13500014, 241.668322421165, -0.00134713101501304, 3.35750000000001,322.061340332031
0.135666631666667, 241.681185610859, -0.00125305424038445, 3.37500000000002,322.061340332031
0.136333346666667, 241.694899585597, -0.00101989245186472, 3.39125000000001,317.080444335938
0.136999191666667, 241.708563707282, -0.00105273630213394, 3.40875000000002,319.39453125
0.137665336666667, 241.722243606442, -0.00106969745019779, 3.42375,324.603057861328
0.138331781666667, 241.736044702149, -0.00119205680419889, 3.44250000000002,325.646820068359
0.138998476666667, 241.74971522209, -0.00100718808991619, 3.45875000000001,325.646820068359
0.139665258333333, 241.763660547562, -0.00119437118789318, 3.47500000000001,322.602294921875
0.140331833333333, 241.777108945763, -0.00116148083994621, 3.49125,378.688568115234
0.140998616666667, 241.791041415046, -0.00136033935151856, 3.50875,324.433013916016
0.141665801666667, 241.804662891954, -0.00152599403085863, 3.525,323.421630859375
0.142332125, 241.818421562706, -0.00161673047326731, 3.54125,320.066833496094
0.142998951666667, 241.831559845079, -0.00157807291501212, 3.55750000000005,320.066833496094
0.143665176666667, 241.845473354776, -0.00153211072363782, 3.57499999999999,315.643524169922
0.144331873333333, 241.858661215867, -0.00152863989795232, 3.59125000000005,316.634582519531
0.144998548333333, 241.872073063899, -0.00136123780638489, 3.60750000000004,322.946258544922
0.14566526, 241.885145462418, -0.00120020589484205, 3.62625,322.946258544922
