Time (min), Depth (µm), Load (N), Position (µm), Acoustic (aJ)
8.07E-06, 239.408032645325, -0.000475914984306476, 0,515.314392089844
0.000666188333333333, 239.407308875539, -0.000181182788394128, 0.00125000000000819,520.088928222656
0.00133282166666667, 239.405687040164, -0.000408380876445054, 0.0162499999999954,520.088928222656
0.00199986, 239.406121686549, -0.000309310852649105, 0.0387500000000318,559.674072265625
0.002666135, 239.40979996689, -0.000194832102780471, 0.0612500000000127,578.346496582031
0.00333273, 239.416311307367, -0.000298961372481281, 0.0800000000000245,577.062377929688
0.00399934833333333, 239.426512679213, -0.000673716048940731, 0.0962500000000199,461.625854492188
0.00466603333333333, 239.440550658435, -0.000586273441116721, 0.113750000000024,461.625854492188
0.00533329333333333, 239.455464671804, -0.000332414192164493, 0.128750000000011,569.931579589844
0.00599941, 239.468988825487, -5.48876320362352E-05, 0.146250000000014,572.599731445313
0.00666617833333333, 239.482487921387, -0.000159855359605992, 0.163750000000018,570.536804199219
0.007333045, 239.495510670472, 0.000157125218763109, 0.180000000000013,696.093139648438
0.007999525, 239.509797928919, -2.11993241792038E-05, 0.196250000000009,696.093139648438
0.008666065, 239.523991256724, 3.31384464656584E-05, 0.212500000000004,575.122253417969
0.009332975, 239.538460129908, -0.000227870943285875, 0.230000000000008,577.737670898438
0.00999981333333333, 239.553357713897, -0.000563902064816393, 0.246250000000003,578.674255371094
0.01066601, 239.568050281595, -0.000563245097800241, 0.263750000000007,573.065185546875
0.0113327066666667, 239.582010145516, -0.000567612878406421, 0.280000000000002,573.065185546875
0.0119994966666667, 239.597241090143, -0.00090706232820457, 0.297500000000006,567.949890136719
0.0126661283333333, 239.611155748496, -0.00105372496151997, 0.313750000000002,578.82080078125
0.0133329666666667, 239.624435814344, -0.000831772109957403, 0.331250000000005,579.600280761719
0.013999535, 239.63869139123, -0.000811530626671021, 0.346250000000048,578.767333984375
0.014666, 239.652506451341, -0.000685791942394261, 0.362500000000043,578.767333984375
0.0153329633333333, 239.665910029451, -0.000866240378652907, 0.380000000000047,577.88232421875
0.0159993216666667, 239.679879426233, -0.000934870931401888, 0.396250000000042,577.0732421875
0.01666607, 239.694507092033, -0.00105070711308927, 0.414999999999999,568.016540527344
0.01733302, 239.708560208058, -0.00159486478063141, 0.428750000000033,576.761901855469
0.01799936, 239.72337709088, -0.00174345331717815, 0.445000000000029,576.761901855469
0.0186659883333333, 239.737004331579, -0.00163140894506234, 0.461250000000024,571.94091796875
0.0193327583333333, 239.751570468845, -0.00139294792269072, 0.478750000000028,579.016479492188
0.019999515, 239.773112954084, -0.000965856375037913, 0.498750000000048,572.510803222656
0.020832925, 239.786823001896, -0.000387596420418422, 0.516249999999996,566.008422851563
0.0214993716666667, 239.80114189218, -0.00033150973760055, 0.532500000000047,567.428344726563
0.0221660383333333, 239.815946305439, -0.000768008812725903, 0.548750000000042,567.428344726563
0.022832665, 239.830667514006, -0.000540455242506388, 0.565000000000038,582.523559570313
0.0234997666666667, 239.84544015602, -0.000821812610219443, 0.581250000000033,576.962524414063
0.024166015, 239.860432707725, -0.00143503130889932, 0.597500000000029,677.218872070313
0.0248327816666667, 239.874793794084, -0.00160110596711482, 0.615000000000032,576.208129882813
0.025499335, 239.889247012444, -0.00117547234623702, 0.631250000000028,576.208129882813
0.026166165, 239.903742845307, -0.00141554728747909, 0.647500000000023,569.848999023438
0.0268326583333333, 239.91757187664, -0.000993676977587949, 0.66250000000001,572.061340332031
0.02749947, 239.932000816533, -0.000638163334667876, 0.678750000000006,590.449890136719
0.0281662133333333, 239.946971359708, -0.000446951439042346, 0.696250000000009,677.196960449219
0.0288326866666667, 239.961757172369, -0.000670615704625336, 0.712500000000005,677.196960449219
0.0294993316666667, 239.975977297289, -0.000682367614365255, 0.730000000000008,685.276062011719
0.030165995, 239.990572513199, -0.000896091879227528, 0.747500000000012,671.207580566406
0.030833315, 240.004601125532, -0.00102876471521078, 0.765000000000016,678.916870117188
0.0314993833333333, 240.018218325481, -0.00113810322323552, 0.781250000000011,682.233032226563
0.03216609, 240.031555451934, -0.00103430543691285, 0.798750000000015,682.233032226563
0.0328329116666667, 240.045361114256, -0.000864377472203995, 0.81500000000001,662.376220703125
0.0334994266666667, 240.058697658666, -0.000815568423823468, 0.831250000000006,672.531982421875
0.0341661366666667, 240.072109706026, -0.00087823827599496, 0.846250000000048,674.025756835938
0.0348328266666667, 240.08487427535, -0.000795277443031778, 0.865000000000005,677.629089355469
0.0354996866666667, 240.098060510304, -0.000663947039601985, 0.88125,677.629089355469
0.0361660916666667, 240.111044807424, -0.000801016154776331, 0.897499999999996,673.799743652344
0.0368327683333333, 240.12349926738, -0.000408815854607016, 0.914999999999999,680.187683105469
0.0374994733333333, 240.135839020376, -0.000294139114695897, 0.931249999999995,673.502624511719
0.038166135, 240.148847509137, -0.000195643562052666, 0.947500000000046,677.919738769531
0.0388329533333333, 240.161199778658, -5.81109701952052E-05, 0.963750000000041,677.919738769531
0.03949984, 240.173842661127, -0.000187828954615193, 0.981250000000045,680.368774414063
0.040166065, 240.186763179687, -0.00070993172992735, 0.996250000000032,676.319763183594
0.040832715, 240.199620840876, -0.000489744289706226, 1.01375000000004,808.494812011719
0.0414993983333333, 240.212077826609, -0.000485042025873103, 1.03125000000004,669.651916503906
0.042166055, 240.224478423113, -0.000458038882207859, 1.04875000000004,669.651916503906
0.0428329566666667, 240.236425860418, -0.000144496131123631, 1.06375000000003,677.696899414063
0.0434993666666667, 240.248607185527, -0.000176230037143152, 1.08000000000003,675.803039550781
0.0441660816666667, 240.26041361869, -0.000395625517130578, 1.09625000000002,678.971801757813
0.044832745, 240.272116254484, -0.000472096176116904, 1.11500000000003,673.764526367188
0.04549985, 240.283987851473, -0.00115508837011108, 1.13125000000003,673.764526367188
0.0461660416666667, 240.29573658882, -0.00131223397686619, 1.14750000000002,662.910766601563
0.0468327283333333, 240.306492198249, -0.00115759624420217, 1.16500000000003,672.134826660156
0.047501335, 240.317809738402, -0.00120688976822871, 1.18125000000002,680.150573730469
0.0481661416666667, 240.328632479776, -0.00106213803896438, 1.19875000000003,662.659423828125
0.0488326616666667, 240.339709556702, -0.000714816984580179, 1.21375000000001,662.659423828125
0.0494997583333333, 240.350867351344, -0.000742193609506851, 1.23125000000002,667.567077636719
0.0501660533333333, 240.362858551344, -0.000958631238039699, 1.24750000000001,663.460327148438
0.05083283, 240.374041669008, -0.000942645041029253, 1.2625,660.891052246094
0.051499465, 240.386301131635, -0.000609600269559482, 1.28,664.230895996094
0.0521660916666667, 240.398080119361, -0.000453873591523643, 1.29625,664.230895996094
0.0528326716666667, 240.409516779165, -0.000151353786770572, 1.31249999999999,645.654174804688
0.0534993483333333, 240.420556677494, -0.000124664127390625, 1.32875000000005,652.721130371094
0.0541662283333333, 240.432174109648, -2.23062687076197E-05, 1.34625000000005,641.278991699219
0.054833705, 240.442630449005, -0.000411421223848081, 1.36250000000004,645.734924316406
0.0554995666666667, 240.453582364458, -0.000807570825672559, 1.37750000000003,645.734924316406
0.05616603, 240.463833211103, -0.00115692877777896, 1.39500000000004,648.1064453125
0.0568327466666667, 240.474337608353, -0.0011127559965153, 1.41125000000003,766.217346191406
0.0574994333333333, 240.483864895047, -0.00118055409109295, 1.42750000000003,645.361389160156
0.0581663, 240.493836293767, -0.00134939461041815, 1.44375000000002,649.37939453125
0.05883275, 240.503064830594, -0.00120651778695545, 1.46125000000003,649.37939453125
0.0595012583333333, 240.512634173661, -0.00103825323868611, 1.47750000000002,659.521118164063
0.0601660466666667, 240.521901532413, -0.00105184105619318, 1.49375000000002,661.563659667969
0.06083282, 240.531645609777, -0.00116471488665277, 1.51000000000001,666.392944335938
0.0615003533333333, 240.540924791689, -0.00114691228084991, 1.52625000000001,669.235778808594
0.0621660716666667, 240.550478060792, -0.001213594431459, 1.5425,669.235778808594
0.0628327666666667, 240.559443389102, -0.00119508536115593, 1.56000000000001,670.54296875
0.0634994583333333, 240.568336241636, -0.000983066510658976, 1.57625,671.706115722656
0.0641660633333333, 240.577144589001, -0.000718283310428714, 1.59125000000004,672.422668457031
0.06483367, 240.585797391024, -0.000727750834877389, 1.60875000000005,676.076110839844
0.0654994283333333, 240.594196959704, -0.000468592352115779, 1.63000000000002,676.076110839844
0.0661659916666667, 240.602595485595, -0.000377095447907124, 1.64500000000001,674.44091796875
0.0668328933333333, 240.611327743592, -0.000428428869462162, 1.65999999999999,540.132385253906
0.0674993716666667, 240.61969254609, -0.0004147285576036, 1.67625000000005,522.055847167969
0.0681667966666667, 240.628467601565, -0.000147900960092887, 1.69375000000005,522.055847167969
0.0688327383333333, 240.636794380009, -0.000174064145964782, 1.71125,519.975646972656
0.0695005233333333, 240.646292669363, -0.000197326477509424, 1.72750000000005,533.206481933594
0.0701660133333333, 240.654516880061, -0.000273420655406771, 1.74375000000004,526.152770996094
0.0708328166666667, 240.663712933136, -0.000233738648571616, 1.76125000000005,534.380187988281
0.071499415, 240.672500631293, -0.000305871525439828, 1.77750000000004,529.776184082031
0.0721677383333333, 240.682032748522, -0.000156849510655527, 1.79375000000004,529.776184082031
0.0728326816666667, 240.690564989788, -0.000181436275703295, 1.81125000000004,521.663879394531
0.0734999716666667, 240.699968302592, -0.000272675192850827, 1.82750000000004,635.753051757813
0.074166015, 240.70867810313, -0.000562012159770731, 1.84500000000004,523.15625
0.0748328133333333, 240.717606333484, -0.000598811311371471, 1.86125000000004,526.335998535156
0.0755, 240.725652039199, -0.000829729212601354, 1.87750000000003,526.335998535156
0.0761662133333333, 240.734035418207, -0.000906631849837073, 1.89500000000004,534.207092285156
0.0768327216666667, 240.742060117851, -0.00102670981848076, 1.91125000000003,522.402160644531
0.0774993616666667, 240.750207881928, -0.000945866879157549, 1.92750000000003,526.613586425781
0.0781660533333333, 240.757934867629, -0.00126686425580121, 1.94375000000002,531.086303710938
0.0788328416666667, 240.765562144885, -0.00142961058125578, 1.96125000000003,531.086303710938
0.0794994716666667, 240.772960735332, -0.00159230290941058, 1.97750000000002,528.538208007813
0.0801660716666667, 240.780395195146, -0.00155321637266979, 1.99375000000002,534.134338378906
0.0808327816666667, 240.78737705678, -0.00142448533867718, 2.01000000000001,532.072814941406
0.0814995383333333, 240.794663640616, -0.00150322688357136, 2.02625000000001,528.948486328125
0.0821661683333333, 240.802104349644, -0.0014612094940365, 2.04375000000001,528.948486328125
0.0828327316666667, 240.809515780636, -0.0013752668108708, 2.06125000000001,520.885375976563
0.083499505, 240.817179269924, -0.0015159462446789, 2.07625,532.634582519531
0.08416601, 240.823969575574, -0.00124785721049, 2.0925,533.416870117188
0.0848328316666667, 240.830727074554, -0.000923793987834723, 2.11,517.595886230469
0.08549941, 240.837441884644, -0.000718932777801595, 2.12625,517.595886230469
0.0861660516666667, 240.844424967174, -0.000968083763201833, 2.14250000000005,524.983764648438
0.086832695, 240.851519494214, -0.0010183147401717, 2.15875000000004,523.8623046875
0.08749947, 240.859297217848, -0.00126002309940772, 2.17625000000005,518.280517578125
0.0881659616666667, 240.866979795907, -0.00105452592136385, 2.19250000000004,514.541198730469
0.088832855, 240.874964617605, -0.0015006605124923, 2.20875000000004,514.541198730469
0.0894994366666667, 240.883008746221, -0.00117939014956473, 2.22500000000003,513.264404296875
0.0901660233333333, 240.891076872887, -0.00108502088961374, 2.24000000000002,616.670654296875
0.0908332566666667, 240.897170508049, -0.00109551436252428, 2.25625000000002,507.364166259766
0.0914997033333333, 240.903833747298, -0.00146925958966905, 2.27375000000002,456.034576416016
0.0921662066666667, 240.91146886614, -0.00111234651702569, 2.29125000000002,456.034576416016
0.092832775, 240.919775567937, -0.00113220251969792, 2.30750000000002,448.316162109375
0.0934994116666667, 240.928936750712, -0.000938565245887244, 2.32375000000001,455.937072753906
0.0941660733333333, 240.940343061163, -0.000892388565302024, 2.34000000000001,456.643615722656
0.0948327133333333, 240.95242123265, -0.000635220482584857, 2.35625,456.321258544922
0.0954994316666667, 240.964428387362, -0.00112319847193236, 2.37375000000001,456.321258544922
0.096166045, 240.976548806975, -0.000955442398142004, 2.39,454.20166015625
0.0968331433333333, 240.988337850712, -0.00107999014225129, 2.40625,448.805511474609
0.09749989, 241.000713887597, -0.0008855984063595, 2.42249999999999,458.029327392578
0.0981661916666667, 241.012786717636, -0.0011818965236039, 2.44125000000001,457.703552246094
0.0988331516666667, 241.024821153132, -0.000462870139560916, 2.4575,457.703552246094
0.099499445, 241.036919267513, -0.000653914043653282, 2.47375,449.660339355469
0.10016608, 241.049100568909, -0.000560719224701327, 2.49000000000005,453.71142578125
0.1008328, 241.061781818454, -0.000933251012812575, 2.50625000000004,448.198822021484
0.101499568333333, 241.074831398919, -0.000841320630387616, 2.52250000000004,459.661987304688
0.102166055, 241.087620645628, -0.00115672328802944, 2.54000000000004,459.661987304688
0.102832771666667, 241.100655140342, -0.0012659088037438, 2.55625000000004,452.075744628906
0.103499393333333, 241.114123401719, -0.00155523977096609, 2.57125000000002,454.983489990234
0.104166058333333, 241.126863781136, -0.00147522179017094, 2.58875000000003,457.186126708984
0.104832651666667, 241.139544805368, -0.00126380890921792, 2.60625000000003,450.901214599609
0.105499413333333, 241.152303537479, -0.00107387194952644, 2.62375000000004,450.901214599609
0.106166133333333, 241.16525578357, -0.000816598872079793, 2.64000000000003,445.156616210938
0.106832866666667, 241.178033356669, -0.000556111456105609, 2.65750000000003,541.735046386719
0.107499553333333, 241.190699437782, -0.000304491594712527, 2.67375000000003,447.388397216797
0.108166013333333, 241.203662626292, -0.000542519138825336, 2.69000000000003,453.968078613281
0.108832811666667, 241.216700650323, -0.000851328127685226, 2.70875000000004,453.968078613281
0.109499661666667, 241.229215505385, -0.00098878422339812, 2.72500000000003,456.136047363281
0.11016688, 241.242086233817, -0.00105107759445938, 2.74125000000003,450.41259765625
0.110832708333333, 241.254702389398, -0.00136548880192187, 2.75750000000002,450.228088378906
0.11149937, 241.266672835151, -0.00104656282124043, 2.77375000000002,455.140533447266
0.112166083333333, 241.278899100998, -0.000943529996490937, 2.79125000000002,455.140533447266
0.112832811666667, 241.290860696656, -0.000870647157314826, 2.80750000000002,454.26953125
0.113499431666667, 241.302264016902, -0.000824666966847687, 2.82375000000001,453.415893554688
0.114166076666667, 241.314279203449, -0.000838775258228951, 2.84125000000002,453.287353515625
0.114833088333333, 241.326506081179, -0.00127067856417507, 2.85625,455.323760986328
0.115499781666667, 241.3386394841, -0.00114042060688489, 2.87375000000001,455.323760986328
0.116166091666667, 241.350836642318, -0.00119573932828077, 2.89125000000001,458.618713378906
0.11683294, 241.363758761523, -0.00133864915008034, 2.90625,460.908538818359
0.117499363333333, 241.376548470783, -0.00132857715594838, 2.92249999999999,458.069122314453
0.118166128333333, 241.38915496045, -0.00145259842648585, 2.93875000000005,459.560668945313
0.118832736666667, 241.401600043739, -0.00159236890593554, 2.95500000000004,459.560668945313
0.119499491666667, 241.414335063405, -0.00169235088393871, 2.97250000000004,457.431762695313
0.120165985, 241.426780875707, -0.00146958057344884, 2.98875000000004,459.553466796875
0.120832811666667, 241.439570512497, -0.00120416590495979, 3.00625000000004,454.401062011719
0.121499878333333, 241.452620549562, -0.000963600488331586, 3.02125000000003,458.9697265625
0.122166058333333, 241.465859953985, -0.000887650303240714, 3.03750000000003,458.9697265625
0.12283289, 241.478599955373, -0.000874171980257597, 3.05375000000002,454.619140625
0.123499436666667, 241.491304408536, -0.000955805379911355, 3.07125000000003,548.940063476563
0.12416611, 241.503964508067, -0.00109286549556054, 3.08625000000001,454.993957519531
0.124832665, 241.516719190203, -0.00106569286039521, 3.10250000000001,456.571685791016
0.125499625, 241.529582082609, -0.00102137908623765, 3.12000000000001,456.571685791016
0.12616613, 241.542986483807, -0.00094437895385196, 3.13625000000001,455.469299316406
0.126832736666667, 241.5559475054, -0.00120366942996106, 3.1525,453.596038818359
0.127499393333333, 241.568850391278, -0.000979135208032889, 3.17000000000001,452.745849609375
0.128166078333333, 241.582215726141, -0.001277842204294, 3.18625,450.204650878906
0.128832725, 241.595132451473, -0.00139216796183099, 3.2025,450.204650878906
0.129499361666667, 241.608193585253, -0.00152994654135435, 3.22,449.373077392578
0.130166206666667, 241.622631219168, -0.00148832213211942, 3.23625,454.735931396484
0.130832723333333, 241.636638016975, -0.00207495916597639, 3.25250000000005,471.800354003906
0.131499383333333, 241.65017137455, -0.00183926550463887, 3.27,475.713684082031
0.132166051666667, 241.663688453198, -0.00204552764431969, 3.28625000000005,475.713684082031
0.132832776666667, 241.67669113067, -0.00203852749591821, 3.30374999999999,479.831909179688
0.133499555, 241.688984069115, -0.00225034985629708, 3.32125,484.519378662109
0.13416604, 241.701620666903, -0.00189770706917369, 3.33750000000005,481.729949951172
0.134832795, 241.713898856522, -0.001931476372991, 3.35375000000004,476.271270751953
0.135499655, 241.726641604839, -0.00175141041747644, 3.37125000000005,476.271270751953
0.13616606, 241.739458515125, -0.00158903307351009, 3.38750000000004,475.877014160156
0.136832805, 241.752251108981, -0.00117084507866657, 3.40375000000004,480.115051269531
0.137499418333333, 241.764685218833, -0.00106675480700025, 3.42000000000003,477.152862548828
0.138166128333333, 241.77750590706, -0.00100155758176293, 3.43625000000003,481.251739501953
0.138832723333333, 241.790114851918, -0.000648830798851698, 3.45375000000003,481.251739501953
0.139499348333333, 241.803432787499, -0.000742319603029199, 3.47000000000003,576.935607910156
0.140166081666667, 241.816304700046, -0.000833062045135491, 3.48625000000002,483.589233398438
0.140832788333333, 241.829420270369, -0.000849435222726995, 3.50375000000003,482.306396484375
0.141499356666667, 241.8425488741, -0.000923931980858568, 3.52000000000002,479.889373779297
0.142165985, 241.855569953049, -0.00111452290767488, 3.53750000000003,479.889373779297
0.14283339, 241.868107287705, -0.00130405638757435, 3.55500000000003,479.943054199219
0.143499846666667, 241.880799715333, -0.00132388389166167, 3.57125000000003,476.622375488281
0.14416605, 241.893597537291, -0.00155085999087966, 3.58750000000002,473.741912841797
0.144832728333333, 241.906311472245, -0.00153762015594043, 3.60500000000002,479.251312255859
