Time (min), Depth (µm), Load (N), Position (µm), Acoustic (aJ)
8.40166666666667E-06, 239.253522220183, -4.60583835617879E-05, 0,431.269592285156
0.000666675, 239.25248888457, -0.000172593527824202, 0.00125000000000819,424.746704101563
0.00133424333333333, 239.25070346594, -0.00014156158655293, 0.0112500000000182,528.607849121094
0.00199972333333333, 239.252232910244, -0.000274898889174347, 0.0375000000000236,528.607849121094
0.00266706, 239.257651937235, -0.000285537854794508, 0.0612500000000127,451.205474853516
0.00333339166666667, 239.266193360303, -0.000184940907679738, 0.0800000000000245,455.992584228516
0.00400124, 239.277899149705, -0.000278374214611811, 0.0962500000000199,453.994781494141
0.00466653333333333, 239.292937924498, -0.000193881958556599, 0.113750000000024,451.431427001953
0.00533309166666667, 239.307843734734, -0.000174474433365952, 0.130000000000019,451.431427001953
0.00599986833333333, 239.321203467911, -9.08716326519055E-05, 0.146250000000014,451.364776611328
0.00666646166666667, 239.334108548865, -0.000238212231903851, 0.163750000000018,455.649383544922
0.00733307, 239.347086356816, 1.36926151471039E-05, 0.180000000000013,457.981292724609
0.00800013333333333, 239.360382930751, -0.000141425093432234, 0.196250000000009,460.176361083984
0.00866806333333333, 239.373481425732, -0.000424942352689808, 0.212500000000004,460.176361083984
0.00933321833333333, 239.387147423577, -0.000549079117427585, 0.230000000000008,457.260864257813
0.00999990833333333, 239.400049756461, -0.000530919529510481, 0.246250000000003,459.975952148438
0.0106668633333333, 239.413535319067, -0.000571847973694776, 0.263750000000007,450.054718017578
0.0113330133333333, 239.426723680221, -0.000445554317282541, 0.281250000000011,444.695037841797
0.011999675, 239.43991896663, -0.000247694755532796, 0.296249999999998,444.695037841797
0.01266655, 239.452697552567, -0.000189281689540389, 0.313750000000002,454.158477783203
0.0133330883333333, 239.466501575551, -0.000207817758525218, 0.329999999999997,455.491729736328
0.0139997216666667, 239.479126259378, -0.000216496322631509, 0.346250000000048,449.355346679688
0.014666465, 239.492117079788, -0.000317100769368295, 0.362500000000043,454.624847412109
0.0153329466666667, 239.504787766944, -0.000422215489593333, 0.380000000000047,454.624847412109
0.0159999633333333, 239.518010922659, -0.000715372764605957, 0.396250000000042,453.599334716797
0.0166670333333333, 239.530649547981, -0.000902479366417131, 0.412500000000038,456.230773925781
0.0173329983333333, 239.544364390953, -0.00112614963167648, 0.428750000000033,452.417449951172
0.0179997633333333, 239.557244403587, -0.00130060736882706, 0.445000000000029,452.417449951172
0.0186663016666667, 239.570228143853, -0.000876266683039928, 0.461250000000024,547.494506835938
0.01933309, 239.582478705803, -0.000303241465501734, 0.47750000000002,455.014221191406
0.0200001, 239.595512747711, -2.36120109987886E-05, 0.495000000000023,448.412384033203
0.02066637, 239.608107660955, 0.000211510179034811, 0.511250000000019,454.653045654297
0.0213330416666667, 239.620959574189, 0.000377254853860337, 0.527500000000014,455.945678710938
0.0219999716666667, 239.634077909836, 0.000130794733307134, 0.54375000000001,455.945678710938
0.022666365, 239.647691236825, -0.000161302094982354, 0.561250000000013,451.348937988281
0.0233330883333333, 239.660460264916, -0.000201569072419795, 0.57625,453.7236328125
0.0240012366666667, 239.673532437145, -0.000214105442728888, 0.593750000000004,449.634582519531
0.0246663683333333, 239.687085203447, -0.000361620033211612, 0.609999999999999,451.910797119141
0.0253330716666667, 239.700597859181, -0.000370433590514196, 0.626249999999995,451.910797119141
0.0259997683333333, 239.713622370271, -0.000392398487216224, 0.642500000000046,457.854614257813
0.0266666016666667, 239.727086218283, -0.000450232582218941, 0.660000000000049,449.892791748047
0.027333035, 239.740939128131, -0.000426736262446137, 0.67250000000002,473.059478759766
0.0280000716666667, 239.753694550131, -9.63028597875201E-05, 0.691250000000032,628.5029296875
0.0286663966666667, 239.766809045665, -0.000258639705752475, 0.710000000000044,628.5029296875
0.0293330466666667, 239.780674823475, -0.000176116850800061, 0.726250000000039,631.577209472656
0.029999975, 239.794116570334, -2.19425948616594E-05, 0.742500000000035,635.202270507813
0.0306669933333333, 239.807121437201, -7.11536230460224E-05, 0.760000000000038,626.515686035156
0.031333075, 239.820978969503, -0.000241270578250938, 0.777500000000042,633.253356933594
0.03199974, 239.83404433124, -0.000195291887708202, 0.793750000000037,633.253356933594
0.0326668266666667, 239.846625526342, -0.000218933700233139, 0.810000000000033,633.544921875
0.033334495, 239.858981067839, -0.000644253836825634, 0.826250000000028,636.612060546875
0.03399989, 239.87147490014, -0.000820815968296562, 0.843750000000032,755.257629394531
0.0346667716666667, 239.883666702035, -0.000792560387520803, 0.860000000000027,634.085388183594
0.0353330983333333, 239.896328232498, -0.000798219603293237, 0.876250000000023,634.085388183594
0.0359999183333333, 239.90916397639, -0.000899158533214458, 0.892500000000018,627.759460449219
0.036666355, 239.922132753535, -0.000609832065786631, 0.910000000000022,627.539611816406
0.0373332016666667, 239.934619150666, -0.000378719174363071, 0.926250000000017,639.82568359375
0.037999755, 239.947342324184, -0.00063259192259242, 0.943750000000021,648.193176269531
0.0386664733333333, 239.960151076424, -0.000681153483382647, 0.960000000000016,648.193176269531
0.0393330333333333, 239.972746202089, -0.000675285778096906, 0.976250000000012,629.664306640625
0.0399997083333333, 239.985796254741, -0.000838117599199953, 0.993750000000015,627.426574707031
0.0406665683333333, 239.998605692103, -0.00100232635118149, 1.01125000000002,626.821533203125
0.0413332916666667, 240.011580804251, -0.000901022939566519, 1.02625000000001,639.314636230469
0.0419999416666667, 240.024000284271, -0.00101262633382275, 1.04375000000001,639.314636230469
0.0426664683333333, 240.036463124754, -0.000959609996810958, 1.05750000000004,634.458801269531
0.0433343216666667, 240.048776037977, -0.00072788363617894, 1.07500000000005,624.143493652344
0.0440016333333333, 240.061145060198, -0.00055405436739583, 1.0925,633.118774414063
0.04466648, 240.073699380006, -0.000552894925619571, 1.11125000000001,643.228881835938
0.045333135, 240.086421958754, -9.41219693013553E-05, 1.1275,643.228881835938
0.04599988, 240.099556484572, -0.000303941930261817, 1.14375,630.830871582031
0.0466663733333333, 240.112481521491, -0.000252581510046266, 1.15999999999999,636.010498046875
0.0473334516666667, 240.126006596477, -0.000402449482321529, 1.1775,626.836486816406
0.04800001, 240.139257431034, -0.000407300238713083, 1.19375000000005,628.977966308594
0.0486665416666667, 240.152913861394, -0.00055169348596002, 1.21000000000004,628.977966308594
0.04933307, 240.16639748119, -0.00031950214869923, 1.22625000000004,622.22900390625
0.0500000483333333, 240.180550754675, -0.000314868881409911, 1.24250000000004,630.785461425781
0.0506675666666667, 240.194504656626, -6.30045323178439E-05, 1.26000000000004,750.64453125
0.0513329916666667, 240.208638491029, -0.000169656675290016, 1.27625000000003,624.696960449219
0.0520004166666667, 240.223011616306, -0.000315812334050847, 1.29125000000002,624.696960449219
0.05266812, 240.237592472626, -0.000402795964943698, 1.30750000000002,614.262634277344
0.0533346, 240.252109083688, -0.000472882944564546, 1.32500000000002,628.275634765625
0.0540013666666667, 240.267087142712, -0.00052295792933271, 1.34250000000002,627.793151855469
0.0546664416666667, 240.281217022669, -9.24360540170444E-05, 1.35750000000001,617.277648925781
0.0553330333333333, 240.295393122225, 1.90503461357377E-05, 1.37375000000001,617.277648925781
0.05600014, 240.309606818245, 1.80498963674778E-05, 1.39125000000001,614.735595703125
0.0566663916666667, 240.323073660647, -9.24585529043474E-05, 1.40625,623.372192382813
0.0573333383333333, 240.336411845102, -0.000285960833476226, 1.42375,617.44287109375
0.058000705, 240.350237648154, -0.000448050191914644, 1.44,619.065551757813
0.0586672683333333, 240.363892750904, -0.00044345892252987, 1.45625000000005,619.065551757813
0.059333125, 240.377455988441, -0.00033601631929091, 1.47250000000004,627.3798828125
0.0599999, 240.391401226012, -7.8777740105536E-05, 1.48875000000004,625.866882324219
0.060666525, 240.40527676103, 0.000309492757489621, 1.50625000000004,632.188659667969
0.0613332333333333, 240.419826288539, 0.000449315734357192, 1.52250000000004,632.188659667969
0.0619999266666667, 240.433772197581, 0.000694124437887359, 1.53875000000003,626.808166503906
0.0626667633333333, 240.447795215828, 0.000837461738205624, 1.55500000000003,634.199035644531
0.0633331716666667, 240.461553773017, 0.000766072823990208, 1.57125000000002,628.811279296875
0.06399968, 240.475121746831, 0.000656557324843372, 1.58750000000002,635.95068359375
0.0646683483333333, 240.48770629594, 0.000500637156580767, 1.60500000000002,622.70751953125
0.0653332533333333, 240.500548044044, 0.00025774385687488, 1.62500000000004,622.70751953125
0.0659999116666667, 240.513792527058, 4.6255979680438E-05, 1.64125000000004,634.878784179688
0.066666605, 240.527032772364, 8.80018828345409E-05, 1.65625000000003,495.803985595703
0.0673330416666667, 240.539992223964, 0.000187524883885291, 1.67125000000001,540.2626953125
0.0679998316666667, 240.55301784092, 0.000325535951712407, 1.68875000000002,444.181549072266
0.0686665316666667, 240.565683740609, 0.000348084319113574, 1.70625000000002,444.181549072266
0.06933307, 240.577575773234, 0.000693635462446881, 1.72250000000002,449.171417236328
0.0699997283333333, 240.589476290192, 0.000589779179008717, 1.73875000000001,446.632446289063
0.0706664733333333, 240.601328806434, 0.00036507096589228, 1.75625000000001,451.013946533203
0.0713330866666667, 240.613036369059, 0.000524128976580361, 1.77375000000002,440.432586669922
0.0719999483333333, 240.624701932709, 0.000772471502578464, 1.79000000000001,440.432586669922
0.0726663483333333, 240.635669387144, 0.000668016749218385, 1.80625000000001,449.919097900391
0.0733331033333333, 240.647012421189, 0.000626032358084164, 1.82375000000001,442.758850097656
0.0740000666666667, 240.657796999682, 0.000683974447707677, 1.84000000000001,453.323059082031
0.0746666383333333, 240.668612203449, 0.00059366398391454, 1.85750000000001,447.521118164063
0.0753331016666667, 240.679352286023, 0.000351780133502078, 1.87375000000001,447.521118164063
0.0759997266666667, 240.69061552032, 0.000490946143353498, 1.88874999999999,444.398315429688
0.0766666566666667, 240.701521880387, 0.000494493465183572, 1.90625,440.620330810547
0.0773330066666667, 240.712514146367, 0.000649048702026671, 1.92500000000001,441.161193847656
0.0780016816666667, 240.723617132236, 0.000505940890142105, 1.94,451.868072509766
0.0786670883333333, 240.734981095475, 0.000442867558284882, 1.9575,451.868072509766
0.0793330583333333, 240.745937870969, 9.55060058780316E-05, 1.97250000000004,451.725219726563
0.0799996266666667, 240.756785370048, 0.000119932278950889, 1.99000000000005,447.900451660156
0.0806662983333333, 240.768056734477, -0.000238531715759237, 2.00625000000004,452.456420898438
0.0813331216666667, 240.778930171407, -0.000538834631819211, 2.02375000000005,454.663909912109
0.0819999216666667, 240.78911764384, -0.00057206546269074, 2.04000000000004,454.663909912109
0.0826667783333333, 240.799524385335, -0.000314687390514609, 2.05500000000003,456.356964111328
0.08333312, 240.810408445191, -0.000506602750812792, 2.07250000000003,454.396514892578
0.0839999416666667, 240.820630081493, -0.000292355012291273, 2.08875000000003,538.551513671875
0.0846669616666667, 240.831134515436, 0.000145984470374434, 2.10500000000002,447.072204589844
0.0853332916666667, 240.842382830061, 9.20036818013098E-05, 2.12250000000003,447.072204589844
0.0859996916666667, 240.853312864444, -0.000132910021022135, 2.13875000000002,448.308715820313
0.0866664133333333, 240.863325883197, -0.000133809975834123, 2.15500000000002,447.964813232422
0.0873331116666667, 240.874310518648, -0.000292704494719741, 2.17125000000001,448.599365234375
0.087999865, 240.884559082526, -0.000663037393273239, 2.18750000000001,451.434997558594
0.0886666666666667, 240.894777380227, -0.000250810099007207, 2.20500000000001,451.434997558594
0.089333665, 240.905446931729, -0.000310816084992177, 2.22125000000001,444.858520507813
0.0899998766666667, 240.916272001482, -0.000242963993114757, 2.2375,448.895904541016
0.0906672866666667, 240.924651650396, 0.000120242763387379, 2.25000000000003,446.055786132813
0.0913330516666667, 240.933807391058, 0.000234726013007969, 2.26999999999999,320.547912597656
0.0920004916666667, 240.943019077533, -0.00018477291597654, 2.28625000000005,320.547912597656
0.0926663983333333, 240.952374225771, 5.28631477820018E-05, 2.30250000000004,313.672454833984
0.0933331816666667, 240.961803287029, -0.000127654285020448, 2.32000000000004,321.968505859375
0.0940000766666667, 240.973589194315, -0.000314250912449498, 2.33625000000004,317.735717773438
0.094666595, 240.985076914313, -9.85017493240157E-05, 2.35250000000004,321.88037109375
0.0953340716666667, 240.996788412697, -7.88242377195288E-05, 2.37000000000004,321.88037109375
0.0960000433333333, 241.00796300069, -0.000275176375125188, 2.38625000000003,314.371368408203
0.0966663833333333, 241.019264834998, -1.27813276603365E-06, 2.40250000000003,309.111358642578
0.0973331116666667, 241.030402871412, -0.00028095408492548, 2.41875000000003,308.633392333984
0.0980003583333333, 241.041592618122, -0.000623955356348166, 2.43625000000003,311.669067382813
0.098666555, 241.051849781387, -0.000551396500885667, 2.45250000000002,311.669067382813
0.0993331183333333, 241.063047077003, -0.000576028263686787, 2.46875000000002,314.683898925781
0.0999997466666667, 241.074107850386, -0.00072475329337548, 2.48625000000002,313.616577148438
0.100666611666667, 241.084842234671, -0.000786710681349155, 2.50250000000002,374.728637695313
0.101333608333333, 241.095719901055, -0.000372315995959096, 2.51875000000001,309.863311767578
0.1019999, 241.107091573908, -0.000302602497578421, 2.53500000000001,309.863311767578
0.10266661, 241.117730633112, -0.00015708730668656, 2.55125,312.462310791016
0.10333307, 241.129095580706, 2.36686141597701E-05, 2.5675,311.827484130859
0.103999766666667, 241.140470062652, 0.000356023420361534, 2.58625000000001,310.717803955078
0.104666375, 241.152206574541, -7.39539823319867E-05, 2.60250000000001,303.496551513672
0.105333076666667, 241.164295464705, -0.000253461965819757, 2.62125000000002,303.496551513672
0.106000365, 241.176407107677, -0.000427415728264575, 2.63625000000001,313.396697998047
0.106666388333333, 241.18808574908, -0.000425599319514672, 2.6525,315.730010986328
0.107333173333333, 241.200594551227, -0.000769851528102217, 2.67000000000001,313.280334472656
0.108000043333333, 241.212443466127, -0.000643085395417939, 2.68625,316.030334472656
0.108666663333333, 241.224220616656, -0.00053144750285792, 2.70375,316.030334472656
0.109333205, 241.236473034434, -0.000336223308773543, 2.72,312.943634033203
0.109999775, 241.249323522873, -0.000342269505063272, 2.7375,311.394897460938
0.110666383333333, 241.26160756808, 0.000120088271173844, 2.75250000000005,312.817138671875
0.111333043333333, 241.274075509577, -6.92202200438869E-05, 2.76999999999999,315.429931640625
0.111999766666667, 241.286763155635, 5.48070501911978E-05, 2.7875,315.429931640625
0.112666535, 241.299763071257, -0.000205960851710157, 2.80375000000005,305.245422363281
0.113333093333333, 241.312344616106, -0.000185303889279056, 2.81875000000004,318.567077636719
0.113999703333333, 241.324471690664, -3.55439115608274E-05, 2.83625000000004,311.081848144531
0.114666515, 241.33723488599, 5.63234740179406E-05, 2.85125000000003,314.210968017578
0.115333075, 241.349631489069, -0.000275722347650482, 2.86875000000003,314.210968017578
0.116000281666667, 241.361483564485, -0.000427223737919704, 2.88625000000003,318.133117675781
0.116667931666667, 241.37307411085, -0.000384277895030454, 2.90125000000002,379.349853515625
0.117333073333333, 241.385526689651, -0.000745926229822556, 2.91750000000002,317.732208251953
0.117999721666667, 241.39766556672, -0.000740620996315561, 2.93375000000001,316.463775634766
0.118666338333333, 241.409543984117, -0.000302786988258768, 2.95000000000001,316.463775634766
0.119337291666667, 241.42164430465, -0.000175761368610218, 2.96750000000001,318.074981689453
0.119999855, 241.434008490426, -0.00038934164068727, 2.98500000000002,324.128143310547
0.120666531666667, 241.446257095598, -0.000537046721611716, 3,321.902587890625
0.121333106666667, 241.458339024061, -0.000432108992530024, 3.01750000000001,318.569244384766
0.121999771666667, 241.470758032082, -0.000918729550058789, 3.03375,318.569244384766
0.122666368333333, 241.48310749701, -0.000600850516823358, 3.05125000000001,317.939849853516
0.12333338, 241.495351699125, -0.00072032401578375, 3.06625000000005,311.537933349609
0.124, 241.507929108306, -0.000299028177045326, 3.08250000000004,316.413177490234
0.12466637, 241.520343867506, -0.000344165409827802, 3.10000000000005,313.576965332031
0.12533334, 241.532489738598, 4.53035275143365E-05, 3.11500000000003,313.576965332031
0.125999821666667, 241.54471837281, -0.000192833511101164, 3.13125000000003,317.574157714844
0.126666931666667, 241.556944972325, 0.000140058268100728, 3.14875000000003,315.719604492188
0.127333183333333, 241.568584953399, -8.98846821182585E-05, 3.16500000000003,314.577087402344
0.12799985, 241.580572676581, -0.000200966102597145, 3.18125000000002,318.284088134766
0.128666478333333, 241.592582552344, -0.00029592333299923, 3.19875000000003,318.284088134766
0.129333055, 241.604641255917, -1.32445316531098E-05, 3.21500000000002,309.1396484375
0.130000256666667, 241.617508441348, -0.000218521220809702, 3.23125000000002,315.880981445313
0.130667063333333, 241.630669534852, -0.000238354724594636, 3.24750000000001,310.184600830078
0.131333115, 241.644013185458, -0.00018395245717918, 3.26500000000002,313.757141113281
0.131999725, 241.657752390032, -0.000210528122304479, 3.28125000000001,313.757141113281
0.132666615, 241.671559605327, -0.000582962415329515, 3.29875000000002,313.525390625
0.133334668333333, 241.684371999281, -0.000551204510498288, 3.31500000000001,368.800262451172
0.133999835, 241.697006380259, -0.000360949566812068, 3.33250000000002,305.185394287109
0.134666911666667, 241.709358950533, -0.000312513999671714, 3.35000000000002,306.821136474609
0.135333038333333, 241.72147731368, -0.000135476392122446, 3.36625000000002,306.821136474609
0.135999713333333, 241.733525865586, -7.26340486233247E-05, 3.38250000000001,310.665924072266
0.136668491666667, 241.746472987711, -0.000156838319129349, 3.39875000000001,305.752868652344
0.137333075, 241.758884912164, -0.000275455361127956, 3.41625000000001,309.938598632813
0.13799993, 241.771627905995, -0.000285156873826047, 3.43375000000001,314.681945800781
0.138668351666667, 241.784469586918, -0.000554388850559011, 3.45000000000001,314.681945800781
0.139334558333333, 241.796988698257, -0.000727123174272693, 3.46625,307.718872070313
0.14000139, 241.808886312367, -0.00037590531556619, 3.48750000000003,306.771789550781
0.140834336666667, 241.820931834528, -0.000283242969883662, 3.50500000000004,310.453125
0.141501025, 241.833600190856, -0.000290384111179056, 3.52000000000002,305.594818115234
0.142166605, 241.845634178683, -0.000135320399856982, 3.53750000000003,305.490051269531
0.142833148333333, 241.857992944608, 0.000217872859586169, 3.55375000000002,305.490051269531
0.143499683333333, 241.870243397148, 0.000180788722285047, 3.57125000000003,309.811401367188
