Time (min), Depth (µm), Load (N), Position (µm), Acoustic (aJ)
8.13666666666667E-06, 239.412231209222, -0.000172977636570008, 0,610.311645507813
0.000667166666666667, 239.411879524196, -0.000102362683495451, 0.00125000000000819,610.311645507813
0.00133317833333333, 239.410061245426, -0.000222629642592691, 0.0162499999999954,517.847290039063
0.00200049666666667, 239.410253410252, -0.000162382168757543, 0.04000000000004,526.642456054688
0.00266645833333333, 239.41349904654, 8.5076901639517E-05, 0.0612500000000127,523.094299316406
0.00333377333333333, 239.420273762086, 0.000291564029980825, 0.0800000000000245,524.291625976563
0.00399966833333333, 239.430408943152, 0.000491973463619936, 0.0975000000000281,524.291625976563
0.004666605, 239.444501384456, 0.000717754122897243, 0.112500000000015,524.462829589844
0.00533299166666667, 239.459189719283, 0.000534349335150932, 0.128750000000011,528.938781738281
0.00599988333333333, 239.473124032452, 0.000667491647578672, 0.146250000000014,521.8212890625
0.00666650833333333, 239.487029385942, 0.000591775450737217, 0.163750000000018,524.566467285156
0.00733306666666667, 239.500976155912, 7.81727484848541E-05, 0.181250000000022,524.566467285156
0.00799968666666667, 239.51522139266, -4.66539815846915E-05, 0.196250000000009,529.201110839844
0.00866635166666667, 239.52991256764, 0.000133456971555697, 0.212500000000004,532.897155761719
0.00933305833333333, 239.545302169793, -0.000237118914793637, 0.230000000000008,526.865295410156
0.009999915, 239.560102577465, -0.000391749147878154, 0.246250000000003,527.630249023438
0.0106663016666667, 239.574918073444, -0.000129962797136954, 0.265000000000015,527.630249023438
0.01133298, 239.589680302491, 0.000165733850336721, 0.281250000000011,528.209533691406
0.0119997916666667, 239.604593285415, 6.93051938824988E-05, 0.297500000000006,526.418395996094
0.0126663133333333, 239.618865348044, 0.000487593683703546, 0.313750000000002,525.663513183594
0.0133330616666667, 239.633458656773, 0.00051469282248809, 0.329999999999997,525.10986328125
0.013999695, 239.648236652727, 0.000471406496716793, 0.346250000000048,525.10986328125
0.0146663616666667, 239.662311122392, 0.000234838379260895, 0.363749999999996,529.549621582031
0.0153329366666667, 239.676531746848, 0.000232796981807995, 0.380000000000047,525.324829101563
0.0159996016666667, 239.69093674714, 6.9789669464751E-05, 0.396250000000042,519.711364746094
0.016666435, 239.704742848596, 7.66908228556238E-05, 0.412500000000038,624.048461914063
0.0173330166666667, 239.718736963277, -0.000179094329327945, 0.428750000000033,624.048461914063
0.0179997916666667, 239.733497016648, -0.000378695303586175, 0.445000000000029,530.267150878906
0.0186669033333333, 239.748352706358, -0.000368941293555224, 0.462500000000032,523.309204101563
0.0193330133333333, 239.763397211719, -0.000285013009160653, 0.478750000000028,525.08154296875
0.0199996816666667, 239.779112530593, -0.000223292609306456, 0.496250000000031,529.672790527344
0.0206664933333333, 239.794462620766, 0.000105456378013507, 0.511250000000019,529.672790527344
0.021332965, 239.810163340381, 0.000297730220329085, 0.528750000000022,521.953308105469
0.022000065, 239.825041653121, 0.000228510197204607, 0.545000000000018,526.785522460938
0.022666435, 239.83973255937, 6.15295845007643E-05, 0.561250000000013,521.153625488281
0.0233330983333333, 239.854319750317, 5.83767428312557E-05, 0.577500000000009,529.296569824219
0.0240003216666667, 239.868822142979, -0.000219490300200304, 0.593750000000004,529.296569824219
0.024666285, 239.88260306491, -8.16727226849701E-05, 0.609999999999999,527.936767578125
0.02533296, 239.896733866408, -1.16022422538119E-05, 0.626249999999995,534.211242675781
0.025999665, 239.910750371444, 0.000113116493216191, 0.642500000000046,532.373168945313
0.026666425, 239.925006368931, 0.000139332176420946, 0.660000000000049,527.188232421875
0.0273330916666667, 239.93972195441, 0.000336351780313579, 0.675000000000037,527.188232421875
0.0279996116666667, 239.955020632888, 0.00033889265267778, 0.69250000000004,566.434509277344
0.028666305, 239.970102419953, 0.000346984746236126, 0.708750000000036,664.124450683594
0.0293329266666667, 239.985396456831, 0.000445633291210998, 0.726250000000039,666.552551269531
0.0299997566666667, 240.0002666062, 0.000487223202184654, 0.743750000000043,666.552551269531
0.0306664816666667, 240.014978163448, 0.000413510904686017, 0.761250000000047,668.77099609375
0.031333155, 240.028760954543, 6.61328531532395E-05, 0.777500000000042,667.348815917969
0.031999765, 240.042769866029, -0.000264654531749563, 0.792500000000029,665.758544921875
0.0326664233333333, 240.05603278571, -0.000426905882044786, 0.810000000000033,666.515563964844
0.03333299, 240.069495532069, -0.000303870061989034, 0.826250000000028,799.933044433594
0.0340001733333333, 240.082026454171, 8.72622918776375E-05, 0.84500000000004,799.933044433594
0.03466638, 240.094907329814, 0.000239434148397624, 0.860000000000027,664.182373046875
0.0353329116666667, 240.107434669194, 0.000703462840717527, 0.876250000000023,665.523864746094
0.0359996516666667, 240.120127451643, 0.000752762364462936, 0.892500000000018,666.206298828125
0.036666325, 240.132718975741, 0.000724694274280092, 0.910000000000022,672.805419921875
0.0373331516666667, 240.145621813189, 0.000543879856403289, 0.927500000000026,672.805419921875
0.037999655, 240.158022093019, 0.000780800456157715, 0.945000000000029,672.759704589844
0.0386663316666667, 240.170797295575, 0.000694094311343229, 0.960000000000016,674.555847167969
0.03933295, 240.183653544411, 0.000720972961283003, 0.976250000000012,669.181640625
0.0399996533333333, 240.196208689123, 0.000425180318668773, 0.992500000000007,661.729614257813
0.0406663716666667, 240.20919577976, 4.17110799386088E-05, 1.01000000000001,661.729614257813
0.0413330783333333, 240.221839757733, -0.00016141171743484, 1.02625000000001,661.694763183594
0.04199957, 240.234364071615, -0.000432173617356683, 1.04375000000001,664.758117675781
0.0426664516666667, 240.246234737055, -0.00049611840550474, 1.06000000000001,670.312866210938
0.0433330333333333, 240.258126361789, -0.000193159122837752, 1.07625,673.488098144531
0.0439997016666667, 240.269816213468, -0.000182274169572949, 1.09125000000004,673.488098144531
0.0446662983333333, 240.281569374694, -0.000145094037110019, 1.11125000000001,662.186279296875
0.0453330416666667, 240.292761147605, -3.46110865530493E-05, 1.1275,665.449584960938
0.0459998716666667, 240.304659702073, 0.00016095209053148, 1.14375,666.82080078125
0.04666633, 240.315871579925, -5.42570997450678E-05, 1.16125,663.71142578125
0.0473330016666667, 240.326537776584, 0.000221594044527194, 1.1775,663.71142578125
0.0479998033333333, 240.33789944624, 0.000355072340042517, 1.19375000000005,656.819763183594
0.0486670383333333, 240.349402580945, 0.000324901355463732, 1.21000000000004,661.213562011719
0.0493329816666667, 240.360831360848, -0.000114257086096187, 1.22625000000004,782.763793945313
0.0499998166666667, 240.37284840111, 8.36144750275291E-05, 1.24250000000004,658.535217285156
0.0506664166666667, 240.385105580244, 0.000142747504839771, 1.25875000000003,658.535217285156
0.0513334266666667, 240.397314914026, 0.000220583095245603, 1.27500000000003,654.758422851563
0.0519998683333333, 240.409342723874, 0.000504035857732583, 1.29125000000002,648.655090332031
0.052666615, 240.421585109663, 0.000615598754072439, 1.30875000000003,655.819580078125
0.0533329666666667, 240.43356646774, 0.000499966562167667, 1.32500000000002,664.2392578125
0.0539998983333333, 240.445341556693, 0.000210548599308734, 1.34125000000002,664.2392578125
0.0546664633333333, 240.456677503894, 4.42009547455741E-05, 1.35875000000002,648.113708496094
0.0553330283333333, 240.467787715084, 4.36354831392754E-05, 1.37500000000002,654.1005859375
0.0559997666666667, 240.478220496828, -0.000138986343962265, 1.39125000000001,650.287048339844
0.0566663183333333, 240.488492037519, -0.000198230368201601, 1.40750000000001,657.345764160156
0.05733304, 240.497939118127, 0.000216225814088991, 1.42375,657.345764160156
0.0579998833333333, 240.507276051965, 0.000454379351915436, 1.44,648.372619628906
0.0586664166666667, 240.516980223608, 0.000112603518942752, 1.45625000000005,655.012084960938
0.059333015, 240.526200055485, 0.00045546829718098, 1.47250000000004,653.869934082031
0.0599996566666667, 240.535266397679, 0.000419206118622876, 1.48875000000004,659.794799804688
0.0606668533333333, 240.544133276417, 0.000193234968903847, 1.50625000000004,659.794799804688
0.0613330316666667, 240.552598227359, 2.99546702979558E-05, 1.52250000000004,660.660583496094
0.061999675, 240.560613931677, 0.000385531310042966, 1.53875000000003,655.917297363281
0.0626664283333333, 240.568872871986, 0.00034739722548953, 1.55500000000003,662.539428710938
0.0633331266666667, 240.577157402713, 0.000143117986209883, 1.57250000000003,665.997436523438
0.06399969, 240.586193336222, 0.00028710775377109, 1.58875000000003,665.997436523438
0.0646663, 240.594817069674, 0.000415223818652095, 1.60500000000002,665.373901367188
0.0653329566666667, 240.604003014874, 0.000521752967780692, 1.62500000000004,665.877258300781
0.0660000033333333, 240.612720013578, 0.000567806654564845, 1.64000000000003,761.229858398438
0.06666629, 240.621420739402, 0.00114532264653154, 1.65625000000003,501.957885742188
0.06733297, 240.62981358484, 0.000625187772397778, 1.67250000000002,501.957885742188
0.067999805, 240.638497580799, 0.000460995519584673, 1.69000000000002,500.158782958984
0.0686666966666667, 240.646706108287, 0.0002064073073087, 1.70625000000002,504.67041015625
0.0693329433333333, 240.65539289295, 0.000333459925575254, 1.72250000000002,493.404907226563
0.06999962, 240.663655719716, -1.29941724188468E-05, 1.74000000000002,496.083282470703
0.0706664233333333, 240.672520010392, 0.000357491718445038, 1.75625000000001,496.083282470703
0.0713331916666667, 240.680871969599, 0.000393246922533586, 1.77375000000002,503.730682373047
0.0719996433333333, 240.689144035298, 0.000234977872187889, 1.79000000000001,498.79296875
0.07266626, 240.697484070592, 0.000111525073105523, 1.80625000000001,501.926239013672
0.0733330116666667, 240.705683644133, 0.00025528385226612, 1.82500000000002,506.136108398438
0.0739996066666667, 240.71295020477, 9.72487902336018E-05, 1.84125000000002,506.136108398438
0.07466629, 240.720782888464, -1.82679074921193E-05, 1.85625,494.705169677734
0.0753332083333333, 240.728672717011, 6.50409080176351E-05, 1.87375000000001,500.724029541016
0.0759997683333333, 240.736646051625, -5.60285107628727E-05, 1.89,501.844207763672
0.0766663116666667, 240.744464234443, -0.000147390421732726, 1.90625,498.4775390625
0.0773330283333333, 240.752137088531, -4.60959349559446E-06, 1.92375,498.4775390625
0.0780001216666667, 240.759831781131, 0.000258135209088066, 1.94125000000001,502.697357177734
0.0786663133333333, 240.767182764359, 0.000369770101778024, 1.9575,499.2705078125
0.0793329483333333, 240.774405840877, 0.000381558009661113, 1.97375,500.225952148438
0.0799996516666667, 240.781829760867, 0.000201853536034007, 1.99000000000005,502.611389160156
0.080666425, 240.789076002208, 1.95107692821424E-06, 2.00625000000004,502.611389160156
0.0813330366666667, 240.796114339376, -0.000132542667556894, 2.02375000000005,505.794555664063
0.0819998033333333, 240.802918945629, -5.08042732161618E-05, 2.04124999999999,498.550201416016
0.0826665166666667, 240.809785533828, -7.22021984299969E-05, 2.05625000000004,610.576599121094
0.0833329416666667, 240.816549360756, 0.000321360033352525, 2.07250000000003,501.594268798828
0.0839995983333333, 240.823930243103, 0.000210202116707819, 2.09000000000004,501.594268798828
0.0846663016666667, 240.830972928353, 0.000252098012302248, 2.10625000000003,502.974548339844
0.0853329633333333, 240.838231652173, 0.000353078940170522, 2.12250000000003,503.710510253906
0.0859996116666667, 240.845183130857, 0.000455004820540373, 2.13875000000002,502.903778076172
0.0866664483333333, 240.85277440594, 0.000414788840553896, 2.15500000000002,500.874267578125
0.0873329866666667, 240.860021371257, 0.00100131787979006, 2.17125000000001,500.874267578125
0.08799974, 240.867978969153, 0.000797520116350133, 2.18875000000002,503.505401611328
0.0886666533333333, 240.875824407454, 0.000683548341036071, 2.20500000000001,504.280731201172
0.0893330516666667, 240.88428286716, 0.000470280053277405, 2.22125000000001,508.574981689453
0.0899996083333333, 240.892702453792, 3.7064313265898E-05, 2.2375,500.788330078125
0.0906662966666667, 240.900448515357, -0.00031985625899948, 2.25125000000004,500.788330078125
0.0913331133333333, 240.907031080031, -0.000343580567366596, 2.26999999999999,493.404968261719
0.0920001133333333, 240.915193724952, -0.000718846718132573, 2.28625000000005,445.837188720703
0.09266631, 240.923628186577, -0.000485171955381912, 2.30250000000004,443.167877197266
0.0933331, 240.932636599742, -0.000248399848207171, 2.32000000000004,433.431854248047
0.0939997833333333, 240.943336080223, -0.000430174217850837, 2.33625000000004,433.431854248047
0.094666295, 240.955385290589, -0.000543711015024193, 2.35250000000004,436.9677734375
0.0953330966666667, 240.967105090388, -0.000304249542948074, 2.37000000000004,437.76904296875
0.095999585, 240.978959490683, -0.000362407621749419, 2.38625000000003,436.249694824219
0.0966665316666667, 240.990726024781, -0.000312883109343521, 2.40250000000003,437.581787109375
0.0973330116666667, 241.00224714007, 8.27325192871266E-05, 2.42000000000003,437.581787109375
0.0979996516666667, 241.014285526686, 0.000346435773755755, 2.43625000000003,437.864379882813
0.0986664333333333, 241.026018348974, 0.000411454507967831, 2.45250000000002,431.408843994141
0.0993331333333333, 241.037789679919, 0.00027915365334286, 2.46875000000002,525.654602050781
0.0999996383333333, 241.049683216434, 0.000416548252176475, 2.48625000000002,430.763671875
0.100666395, 241.061755166583, 0.00033087405550021, 2.50250000000002,430.763671875
0.101333041666667, 241.073763497362, 0.000482628932993582, 2.52000000000002,433.486083984375
0.101999966666667, 241.086169508536, 0.000251021066389422, 2.53500000000001,438.470336914063
0.10266644, 241.098606391637, 0.000180194623888989, 2.55125,434.268859863281
0.103332985, 241.110534711695, 0.000161127581601644, 2.5675,431.887145996094
0.103999798333333, 241.122942372114, 0.000172591505813629, 2.585,431.887145996094
0.104666273333333, 241.135306780695, 4.17755765604242E-05, 2.60250000000001,436.931610107422
0.10533308, 241.147245372075, 0.000235424849745076, 2.62000000000001,434.084106445313
0.105999671666667, 241.159728788482, 0.000448315156511614, 2.63625000000001,435.504577636719
0.106667235, 241.172438788067, 0.000423164419803204, 2.6525,437.537628173828
0.107333071666667, 241.185255882684, 0.000367238228917735, 2.67000000000001,437.537628173828
0.107999585, 241.197801387587, 0.00022539335363576, 2.68625,427.957611083984
0.108667698333333, 241.210547685022, 1.39699731906585E-05, 2.70375,436.107391357422
0.109332983333333, 241.222405780774, -9.93238361868607E-05, 2.72125000000001,439.629821777344
0.109999771666667, 241.23442283349, -0.00018546450945881, 2.73625,432.561126708984
0.110666676666667, 241.245893000308, -0.000310604723771145, 2.75250000000005,432.561126708984
0.111332936666667, 241.257693454903, -0.000150660257633214, 2.77125,436.47900390625
0.111999623333333, 241.268855167172, 0.000230628090674548, 2.7875,437.343383789063
0.112666841666667, 241.280832513716, 0.000325210339912057, 2.80375000000005,438.132598876953
0.11333317, 241.292605431719, 0.000535840260220311, 2.82000000000004,439.383728027344
0.113999675, 241.304654714846, 0.000582733904776559, 2.83625000000004,439.383728027344
0.11466679, 241.316139922544, 0.000698291100482422, 2.85250000000004,435.9970703125
0.115333076666667, 241.328807682478, 0.000575211782618975, 2.87000000000004,442.860321044922
0.115999681666667, 241.340545986153, 0.00065138995626165, 2.88625000000003,522.023010253906
0.116666531666667, 241.352756960403, 0.000521914959680006, 2.90250000000003,436.493621826172
0.117333413333333, 241.36528140945, 0.000220898079434049, 2.91875000000003,436.493621826172
0.117999688333333, 241.378082714656, 5.98451689495696E-05, 2.93375000000001,441.864685058594
0.118666443333333, 241.390218284607, 0.000125901850997479, 2.95000000000001,439.588714599609
0.119333076666667, 241.402570077598, 0.000133993944513317, 2.96750000000001,449.237060546875
0.11999964, 241.414850625189, 8.78187638525002E-05, 2.98500000000002,442.922149658203
0.120666323333333, 241.426926168979, 0.000195145872912409, 3.00125000000001,442.922149658203
0.121332985, 241.438969373151, 8.90217034151998E-05, 3.01750000000001,437.261657714844
0.121999598333333, 241.45139812334, -8.92278433069503E-05, 3.03500000000001,445.675476074219
0.122666471666667, 241.46383600441, -0.000179136327274998, 3.05125000000001,443.191375732422
0.123333035, 241.476330942068, -0.000256250453894084, 3.06625000000005,438.307342529297
0.12399966, 241.48884597218, -3.14777440070536E-05, 3.08250000000004,438.307342529297
0.124666416666667, 241.501466645315, 0.000215453352893789, 3.10000000000005,438.216949462891
0.125332961666667, 241.513930724575, 0.000397931187231362, 3.11625000000004,437.205230712891
0.126000198333333, 241.526845930469, 0.000251465044076548, 3.13125000000003,438.153472900391
0.126666446666667, 241.539536505298, 0.000560073043002639, 3.14875000000003,442.135864257813
0.127332933333333, 241.552096747785, 0.000402436960903896, 3.16500000000003,442.135864257813
0.12799976, 241.564742050326, 0.000137821752249308, 3.18250000000003,442.425628662109
0.128666326666667, 241.577167389637, 3.35364903680503E-05, 3.20000000000004,436.257415771484
0.129332963333333, 241.589398282731, 0.000258405195480652, 3.21500000000002,433.255554199219
0.129999731666667, 241.602477942346, 0.000102099546540139, 3.23125000000002,441.532775878906
0.130666288333333, 241.61615060089, 2.77153568306673E-06, 3.24875000000002,441.532775878906
0.131333043333333, 241.629463509534, 0.000253924920522973, 3.26625000000003,470.402465820313
0.131999636666667, 241.642597195976, -3.7322950405492E-05, 3.28250000000002,548.70703125
0.132666546666667, 241.656023430421, -9.81403956201493E-05, 3.29875000000002,462.863250732422
0.133334433333333, 241.668472665187, -0.000182224672131404, 3.31625000000002,460.292541503906
0.13399999, 241.680773090868, -7.30766544846208E-05, 3.33250000000002,460.292541503906
0.134666768333333, 241.693315714361, -0.000315908457332482, 3.35000000000002,458.235412597656
0.135332915, 241.705859918928, -0.000188528855461002, 3.36625000000002,461.303741455078
0.135999915, 241.717831171473, -0.000191263218136985, 3.38250000000001,457.993896484375
0.136667721666667, 241.730090607479, -0.000141410222244265, 3.40000000000001,465.946411132813
0.137332996666667, 241.741903682938, -0.000572374575386417, 3.41625000000001,465.946411132813
0.137999818333333, 241.753531714916, -0.00047490197135624, 3.43375000000001,461.882598876953
0.138666443333333, 241.765715560738, -0.000507382839856108, 3.45000000000001,458.197448730469
0.139333058333333, 241.778275218076, -0.000769034197358506, 3.46625,466.314697265625
0.140000188333333, 241.790904586143, -0.000820549109808847, 3.48500000000002,467.593658447266
0.140666273333333, 241.803147928624, -0.000532598073271349, 3.5,467.593658447266
0.141333003333333, 241.81529448592, -0.000410856688188149, 3.51625,460.037353515625
0.141999698333333, 241.827432341001, -0.000286952411796639, 3.53375,464.050476074219
0.142666315, 241.83967324543, -0.000394557006956167, 3.55,461.156402587891
0.143333098333333, 241.8513802947, -0.000371096685305279, 3.56625000000005,458.191375732422
0.143999625, 241.863528131031, -0.000314342536021686, 3.58375,458.191375732422
