Time (min), Depth (µm), Load (N), Position (µm), Acoustic (aJ)
7.59666666666667E-06, 239.384221512612, -0.000494441314802944, 0,393.964416503906
0.00066674, 239.3843366315, -0.000326032773812151, 0.00125000000000819,402.173828125
0.00133312166666667, 239.383601042698, -0.000183574429385481, 0.0150000000000428,394.529724121094
0.00200080166666667, 239.384526658626, -0.000216566772213131, 0.0387500000000318,396.806945800781
0.00266630333333333, 239.389252850731, -0.000270039086349788, 0.0612500000000127,313.751159667969
0.00333322833333333, 239.396585929806, -0.000366346248927347, 0.0787500000000163,313.751159667969
0.00399962666666667, 239.407218026209, -0.000388885616782094, 0.0962500000000199,393.548675537109
0.004667785, 239.421574850798, -0.000629694021206133, 0.113750000000024,390.86962890625
0.005333685, 239.436902988093, -0.000972915781516098, 0.130000000000019,392.04541015625
0.005999655, 239.45065058163, -0.000866400131664623, 0.146250000000014,471.641418457031
0.00666628333333333, 239.464428505316, -0.0008553006891889, 0.163750000000018,471.641418457031
0.00733322, 239.478092683612, -0.000955147673953262, 0.180000000000013,389.160369873047
0.00799973833333333, 239.491664982585, -0.000862675818733711, 0.196250000000009,391.986053466797
0.00866635166666667, 239.505229696629, -0.000550877480028029, 0.213750000000013,393.084777832031
0.00933329166666667, 239.519362480192, -0.000947847540649868, 0.231250000000016,385.577362060547
0.00999967833333333, 239.533673071551, -0.00112492114640607, 0.246250000000003,385.577362060547
0.0106663733333333, 239.54739076821, -0.00115385469309712, 0.265000000000015,395.639984130859
0.0113332566666667, 239.561575195032, -0.00137083979416468, 0.281250000000011,384.260620117188
0.0119997583333333, 239.575407107312, -0.00165112321585622, 0.296249999999998,395.728485107422
0.0126667966666667, 239.588769694173, -0.00125649603757736, 0.313750000000002,393.539886474609
0.0133330383333333, 239.601661283695, -0.000979719439778251, 0.328750000000044,393.539886474609
0.0140002183333333, 239.6154980487, -0.000749933981664115, 0.346250000000048,397.424560546875
0.0146663766666667, 239.628355689884, -0.000439101594444165, 0.363749999999996,398.150054931641
0.015333185, 239.649185396623, -0.000451615465865954, 0.385000000000024,395.030609130859
0.0161671216666667, 239.662331889347, -0.00068316033560267, 0.400000000000011,400.624755859375
0.01683384, 239.675957122828, -0.00047585874814036, 0.416250000000007,397.194519042969
0.0175003166666667, 239.689112649679, -0.000644283788342097, 0.431249999999994,397.194519042969
0.0181675383333333, 239.703242628464, -0.000765755186990203, 0.450000000000006,396.45703125
0.01883366, 239.716306908683, -0.000514300317302733, 0.466250000000001,397.341918945313
0.0195005133333333, 239.730511701801, -0.000433859357762106, 0.482499999999997,399.694671630859
0.0201664316666667, 239.744401814003, -0.000616617677984343, 0.498750000000048,398.984619140625
0.0208331083333333, 239.758475299475, -0.000432678917022947, 0.515000000000043,398.984619140625
0.0214996583333333, 239.771819061244, -0.000257877697099002, 0.531250000000039,396.242584228516
0.02216682, 239.785329008196, -0.000367022714875725, 0.547500000000034,401.662017822266
0.022833565, 239.799006812207, -0.000321495501663386, 0.565000000000038,477.263946533203
0.0234998716666667, 239.812950382394, -0.000367729179354675, 0.581250000000033,408.090270996094
0.024167385, 239.826931572373, -0.000362632435360987, 0.597500000000029,408.090270996094
0.0248334933333333, 239.840637956676, -0.000677814604094279, 0.615000000000032,401.525482177734
0.025499935, 239.854427143542, -0.000398446136480009, 0.631250000000028,396.903686523438
0.0261665516666667, 239.867501040597, -0.000402698422885884, 0.647500000000023,394.458618164063
0.0268333633333333, 239.881180479387, -0.000173058457460118, 0.66250000000001,393.166564941406
0.0274996433333333, 239.895472709605, -0.000168018710636261, 0.678750000000006,393.166564941406
0.0281664433333333, 239.910513257467, -0.00029658025315005, 0.696250000000009,375.811645507813
0.0288331183333333, 239.925383036712, -0.000618101103516722, 0.712500000000005,371.379547119141
0.0294996166666667, 239.940961142546, -0.000574373799907104, 0.730000000000008,364.669189453125
0.03016646, 239.956008458311, -0.000818126556444837, 0.747500000000012,363.291076660156
0.030833945, 239.970439633782, -0.000848123549729082, 0.763750000000007,363.291076660156
0.0314996, 239.98421422455, -0.000442762910571394, 0.781250000000011,362.900726318359
0.032166655, 239.99872895574, -0.000341432500274653, 0.798750000000015,365.590118408203
0.0328332583333333, 240.012617817878, -0.000158432692138475, 0.813750000000002,364.400268554688
0.0334996183333333, 240.026805561749, -0.000440922502967277, 0.831250000000006,362.595855712891
0.034167265, 240.040628176698, -0.000439029598051554, 0.847500000000001,362.595855712891
0.03483387, 240.05483179531, -0.000810964416144035, 0.863749999999996,366.643646240234
0.0354995683333333, 240.068627188534, -0.00104744853776959, 0.88125,363.274291992188
0.03616714, 240.082699730917, -0.00118555110102781, 0.898750000000004,369.311431884766
0.0368329733333333, 240.096563562186, -0.00101660408706998, 0.913750000000046,365.812896728516
0.037499625, 240.110800165138, -0.0015570119429451, 0.931249999999995,365.812896728516
0.0381663416666667, 240.124269991476, -0.00159405408236293, 0.948749999999998,365.852478027344
0.0388334633333333, 240.137801643749, -0.00125341519230046, 0.963750000000041,365.042449951172
0.03950014, 240.15126425446, -0.00140240570867229, 0.981250000000045,440.677978515625
0.040167025, 240.164419538737, -0.00139419362116168, 0.996250000000032,370.656463623047
0.0408340983333333, 240.177257762897, -0.0009462021233457, 1.01500000000004,370.656463623047
0.041501005, 240.190578650599, -0.000608312595203242, 1.03125000000004,374.044311523438
0.0421677466666667, 240.203434054415, -0.000934919690050271, 1.04750000000003,367.749389648438
0.0428344133333333, 240.216534216909, -0.00110466016418746, 1.06375000000003,370.198608398438
0.0435012333333333, 240.228873275038, -0.00131262771819109, 1.07875000000002,362.0146484375
0.04416776, 240.240831493654, -0.000979035474165349, 1.09750000000003,362.0146484375
0.0448346283333333, 240.252538920703, -0.000888903501397454, 1.11500000000003,365.062652587891
0.0455016216666667, 240.264581243873, -0.000901067890348268, 1.13125000000003,371.951416015625
0.0461677216666667, 240.276277092716, -0.000874981200642193, 1.14875000000003,380.697509765625
0.0468351666666667, 240.288088964209, -0.000496938689338196, 1.16375000000002,373.919067382813
0.0475001216666667, 240.300164810374, -0.000935539158892579, 1.18000000000001,373.919067382813
0.0481683716666667, 240.312066582995, -0.000997004571555714, 1.19750000000002,376.836883544922
0.048833505, 240.323197948219, -0.000711151929640948, 1.21500000000002,374.271209716797
0.0495001883333333, 240.334429113702, -0.000525326263461442, 1.23125000000002,384.371429443359
0.0501665883333333, 240.345625291773, -0.000534414306972331, 1.24750000000001,380.481903076172
0.0508339983333333, 240.356877590473, -0.000462777905166614, 1.2625,380.481903076172
0.0514999083333333, 240.367894771801, -0.000396830717642651, 1.28,380.048858642578
0.052166895, 240.380613818692, -0.000551094969130264, 1.29625,381.450225830078
0.0528333716666667, 240.392821798332, -0.000714148779108755, 1.31249999999999,373.194183349609
0.0534996783333333, 240.406006444213, -0.000938197025402742, 1.32875000000005,368.309936523438
0.05416651, 240.41901976484, -0.000798252554658507, 1.34625000000005,368.309936523438
0.0548341066666667, 240.432971916964, -0.000747040626980132, 1.36125000000004,376.078338623047
0.0554998666666667, 240.445798792691, -0.00040222144688314, 1.37875000000004,449.273132324219
0.0561667483333333, 240.458941359582, 0.000114619592708463, 1.39500000000004,371.986846923828
0.05683408, 240.471662650727, 0.000262194180209825, 1.41125000000003,374.489349365234
0.0575003133333333, 240.485038197417, 0.00013664448642913, 1.42750000000003,374.489349365234
0.0581664116666667, 240.497620596284, -0.000140043615808928, 1.44375000000002,364.8564453125
0.0588348516666667, 240.510584029871, -0.000422371434759669, 1.46125000000003,371.311401367188
0.0595011183333333, 240.522776892618, -0.0004671021879651, 1.47750000000002,373.376708984375
0.0601686083333333, 240.535291565981, -0.000442165940488865, 1.49375000000002,381.818756103516
0.0608350666666667, 240.547453083074, -0.000298978632610925, 1.51000000000001,381.818756103516
0.061501235, 240.559684050199, -0.000213989901514473, 1.52625000000001,378.321685791016
0.06216795, 240.571744806925, -0.000259235128896491, 1.5425,373.882781982422
0.06283497, 240.584786199867, -0.000579832025639469, 1.55875,373.623992919922
0.06350065, 240.59717804755, -0.000821390392456424, 1.57500000000005,365.000793457031
0.0641683283333333, 240.609262688383, -0.000838521031977843, 1.59125000000004,365.000793457031
0.0648338683333333, 240.620921458137, -0.00103305976048241, 1.60875000000005,368.365112304688
0.0654997583333333, 240.632544743725, -0.000966616097874694, 1.63000000000002,364.470184326172
0.066167235, 240.643684768075, -0.0010886784668227, 1.64375,390.491943359375
0.0668341033333333, 240.654123945332, -0.000902080339447992, 1.65999999999999,435.909423828125
0.0675001266666667, 240.664500022848, -0.000951799842068822, 1.67625000000005,435.909423828125
0.0681671566666667, 240.675161510342, -0.000873772261339373, 1.69375000000005,427.904174804688
0.0688336466666667, 240.68518375352, -0.000958694995740827, 1.71125,432.679229736328
0.069499605, 240.695567320829, -0.00110037637924159, 1.72750000000005,430.838775634766
0.0701670483333333, 240.705997072717, -0.00129702850159167, 1.74375000000004,431.358581542969
0.0708333366666667, 240.715791837016, -0.00139829591506347, 1.76125000000005,431.358581542969
0.0715003016666667, 240.72560058756, -0.00154766441244869, 1.77750000000004,430.538757324219
0.072166685, 240.73546958538, -0.00164741090229928, 1.79375000000004,525.291870117188
0.0728335216666667, 240.744485857909, -0.00143063579069069, 1.81125000000004,435.846405029297
0.07350057, 240.753173362933, -0.00111694004727482, 1.82750000000004,441.458831787109
0.0741668833333333, 240.762501059145, -0.000898299029389756, 1.84500000000004,441.458831787109
0.07483333, 240.771516669062, -0.000509710547778601, 1.86125000000004,433.126525878906
0.075499905, 240.78059907383, -0.000233125940324367, 1.87750000000003,436.569152832031
0.076166985, 240.790244429518, -0.000412264942387682, 1.89500000000004,437.726928710938
0.076833445, 240.800246999009, -0.000361730980667105, 1.91125000000003,436.846466064453
0.0775001183333333, 240.809676944318, -0.000476173732307552, 1.92625000000002,436.846466064453
0.078166855, 240.819155556436, -0.000658854056460819, 1.94375000000002,441.62060546875
0.078833295, 240.828554929249, -0.00079714411026945, 1.96125000000003,442.274658203125
0.079500115, 240.837972362987, -0.000719442013178016, 1.97625000000001,442.064544677734
0.0801663966666667, 240.847238900492, -0.000673955297924565, 1.99375000000002,443.850372314453
0.0808330416666667, 240.856807979979, -0.000446326731463633, 2.01000000000001,443.850372314453
0.0814997033333333, 240.866553425477, -0.000515315766230009, 2.02625000000001,444.247436523438
0.0821665216666667, 240.876152486815, -0.000587394645755941, 2.04500000000002,443.8505859375
0.082833185, 240.885134458172, -0.000449199087163462, 2.06000000000001,443.369049072266
0.0834999166666667, 240.894566539623, -0.000846058153315697, 2.07750000000001,448.529571533203
0.08416711, 240.904418633517, -0.00128740948469325, 2.0925,448.529571533203
0.0848330283333333, 240.913652869616, -0.00151412309711941, 2.11,439.351928710938
0.085499665, 240.923260991679, -0.00139331766507639, 2.12625,444.360168457031
0.0861665483333333, 240.932503939662, -0.00141595152821105, 2.14250000000005,448.167785644531
0.08683303, 240.941916341886, -0.00125898891231814, 2.15875000000004,440.876525878906
0.0874999, 240.950809223436, -0.000998577992467273, 2.17625000000005,440.876525878906
0.0881677733333333, 240.960529609336, -0.000533293863188048, 2.19250000000004,442.518707275391
0.088833005, 240.969601054332, -0.000362638435016092, 2.20875000000004,528.428894042969
0.0894995566666667, 240.979352963841, -0.000518311115730905, 2.22500000000003,437.659759521484
0.0901672116666667, 240.988659499475, -0.000548378605483358, 2.24000000000002,435.649169921875
0.0908332566666667, 240.99607260281, -0.000550484499706851, 2.25500000000001,435.649169921875
0.0915004516666667, 241.002767833354, -0.000849918959431068, 2.27375000000002,569.65576171875
0.0921662883333333, 241.009617995036, -0.000803602785876345, 2.29125000000002,700.52392578125
0.0928336683333333, 241.016649802997, -7.44489105197302E-05, 2.30750000000002,699.86376953125
0.0934997916666667, 241.02367789241, 0.000165678528140213, 2.32375000000001,701.086791992188
0.09416647, 241.033073728626, 0.000160886268821641, 2.34000000000001,701.086791992188
0.094833795, 241.043207673072, 7.82224209328118E-05, 2.35625,710.224426269531
0.095499885, 241.052964113532, -0.0002059278064867, 2.37375000000001,709.497497558594
0.0961664966666667, 241.062375833606, -0.000649487026968417, 2.39,704.931030273438
0.0968330716666667, 241.072098567174, -0.000956442108947069, 2.40625,710.173278808594
0.0974995516666667, 241.081462408293, -0.00106007940331609, 2.42375,710.173278808594
0.098166835, 241.090510754334, -0.000931042384702702, 2.44,710.296508789063
0.0988331533333333, 241.100348297887, -0.000788497044618136, 2.4575,704.361389160156
0.09950051, 241.110087533291, -0.000994433700618432, 2.47375,696.648010253906
0.100167306666667, 241.11975127383, -0.000863961254096081, 2.49125,708.331176757813
0.100833213333333, 241.129694770608, -0.000445444775744484, 2.50625000000004,708.331176757813
0.101499676666667, 241.139564447899, -0.000352428447881534, 2.52375000000005,699.257507324219
0.102166445, 241.149552109653, -0.000482033937928769, 2.54000000000004,713.562072753906
0.102833285, 241.159517118815, -0.000462071440645155, 2.55625000000004,702.83203125
0.10349967, 241.169641754502, -0.000439406079140534, 2.57125000000002,698.910461425781
0.104166995, 241.179119096795, -0.000426368733974483, 2.58875000000003,698.910461425781
0.104833076666667, 241.189207868965, -0.000259227629295729, 2.60625000000003,710.531555175781
0.105499613333333, 241.198817633424, -0.000147471242707852, 2.62500000000004,852.210388183594
0.106168156666667, 241.208161789294, 6.51145793623154E-05, 2.64000000000003,706.64892578125
0.10683309, 241.21824983446, -8.78670865364024E-06, 2.65625000000003,705.538330078125
0.10750014, 241.228446227557, -0.000495674252811201, 2.67375000000003,705.538330078125
0.108166398333333, 241.238235773809, -0.000734408261424214, 2.69000000000003,711.409606933594
0.108833835, 241.24787980283, -0.000944555205989603, 2.70875000000004,708.730651855469
0.109500256666667, 241.258093610194, -0.00100910596363908, 2.72500000000003,701.327209472656
0.110167015, 241.26720467789, -0.00109385920658297, 2.74125000000003,705.564697265625
0.110833196666667, 241.277305739314, -0.001441210259519, 2.75625000000002,705.564697265625
0.111499673333333, 241.286885529688, -0.00142612401729928, 2.77375000000002,715.1982421875
0.11216644, 241.296908922941, -0.001416359507755, 2.79125000000002,702.343139648438
0.112833266666667, 241.307137845862, -0.00174473051404033, 2.80750000000002,704.845825195313
0.1134996, 241.317692113263, -0.00178373905466964, 2.82250000000001,706.576049804688
0.114167168333333, 241.328134996702, -0.00149436008984519, 2.84000000000001,706.576049804688
0.114832936666667, 241.339222481272, -0.00132610754099234, 2.85625,708.288879394531
0.115500875, 241.350835238365, -0.00132182225627085, 2.87375000000001,710.539916992188
0.116167543333333, 241.362524649502, -0.000943064280856461, 2.89125000000001,701.345397949219
0.116833703333333, 241.375244593879, -0.00075461974626504, 2.90625,716.31689453125
0.117500088333333, 241.38798452595, -0.000469125586346414, 2.92249999999999,716.31689453125
0.118166936666667, 241.401298571832, -0.000516520205738366, 2.93875000000005,701.369079589844
0.118833183333333, 241.414354327403, -0.000371486490622459, 2.95500000000004,706.51318359375
0.119500125, 241.42772896698, -5.4927391053182E-05, 2.97125000000004,704.674255371094
0.120167055, 241.44037897917, 0.000264036087759599, 2.98875000000004,691.494384765625
0.120833118333333, 241.45389081685, 0.000183299643069022, 3.00500000000004,691.494384765625
0.121499721666667, 241.466760592373, 0.000195461032234793, 3.02125000000003,707.470825195313
0.122166548333333, 241.480292434125, 0.000147649433752464, 3.03750000000003,837.238220214844
0.122835633333333, 241.493813123535, -0.00012747574700235, 3.05375000000002,708.095947265625
0.123500148333333, 241.507592916417, -0.000385905266355198, 3.07000000000002,709.841186523438
0.124166288333333, 241.52082895503, -0.000351430997962081, 3.08625000000001,709.841186523438
0.1248332, 241.534710032411, -0.000630236993818858, 3.10375000000002,715.579711914063
0.125499921666667, 241.547919710454, -0.00049398683751747, 3.12000000000001,709.987976074219
0.1261665, 241.561369086018, -0.000651220939812378, 3.13625000000001,706.603576660156
0.126833658333333, 241.574957072021, -0.000649581522184568, 3.1525,708.755493164063
0.127499563333333, 241.588361619886, -0.000342071468091695, 3.17000000000001,708.755493164063
0.128166803333333, 241.601816325984, 2.42101339259647E-05, 3.18625,708.207641601563
0.128833535, 241.615753775579, -0.000145366848408762, 3.2025,708.904541015625
0.129499681666667, 241.629815813259, -7.87971921511763E-05, 3.22,705.40283203125
0.130166431666667, 241.64522685412, -0.000208833160587163, 3.23625,754.481628417969
0.130832933333333, 241.660291686124, -0.000554466799783903, 3.25125000000004,754.481628417969
0.131500185, 241.675213841927, -0.000489643055786758, 3.27,856.453369140625
0.132166273333333, 241.689788631797, -0.000394618328765272, 3.28625000000005,849.268432617188
0.132834876666667, 241.70404484512, -0.000494270323335956, 3.30374999999999,842.562866210938
0.13366682, 241.717020591005, -0.000368129659212853, 3.32500000000002,853.650573730469
0.134333785, 241.730872669209, -0.000539187067209899, 3.34000000000001,844.81494140625
0.134999658333333, 241.744547946824, -0.000909219980840237, 3.35750000000001,844.81494140625
0.135667035, 241.758179850983, -0.000987319557983551, 3.37500000000002,857.595092773438
0.136333128333333, 241.771745138004, -0.000773533796220744, 3.39125000000001,851.868713378906
0.137000445, 241.785531715318, -0.00082341829056844, 3.40750000000001,856.930114746094
0.137667063333333, 241.798361546237, -0.000510123027074513, 3.42500000000001,1024.35498046875
0.1383339, 241.81148550346, -0.000449736060269861, 3.44125000000001,1024.35498046875
0.13899961, 241.824886260823, -0.000418642622013039, 3.45624999999999,848.019409179688
0.139667133333333, 241.837948326033, -0.000500851992743919, 3.47500000000001,852.879272460938
0.14033356, 241.850810290448, -0.000607528134506543, 3.49125,860.399597167969
0.14100041, 241.864139104032, -0.000586713679970592, 3.50875,846.598266601563
0.141667113333333, 241.87749326973, -0.000598672579299414, 3.525,846.598266601563
0.1423331, 241.890786315769, -0.000757088622257884, 3.54125,854.612854003906
0.142999633333333, 241.903772124941, -0.00100191232498958, 3.55875,857.664611816406
0.143667191666667, 241.916950507514, -0.000895762656798765, 3.57499999999999,854.079528808594
0.144333705, 241.929914413253, -0.00117710202539773, 3.59125000000005,852.026672363281
0.144999855, 241.942631252835, -0.00114990689138761, 3.60750000000004,852.026672363281
