Time (min), Depth (µm), Load (N), Position (µm), Acoustic (aJ)
7.56833333333333E-06, 239.273555415215, -2.69206802355958E-05, 0,388.555145263672
0.000666303333333333, 239.273791376288, 0.000306893552623079, 0.00125000000000819,467.535583496094
0.001332835, 239.272519517813, 0.000427217508890151, 0.0125000000000264,410.318756103516
0.00200016166666667, 239.272938740911, 0.000455860070225714, 0.0375000000000236,443.979919433594
0.00266626333333333, 239.277145113507, 0.000168826987571788, 0.0625000000000209,443.979919433594
0.00333276333333333, 239.284078784222, 0.000665902020040366, 0.0800000000000245,441.209594726563
0.00400001833333333, 239.293814801638, 0.000702914160948877, 0.0962500000000199,441.312927246094
0.00466728, 239.308186449732, 0.000579057882117018, 0.113750000000024,442.531982421875
0.00533277666666667, 239.322169002988, 0.00072951532483154, 0.130000000000019,439.334625244141
0.005999695, 239.336025733989, 0.000986728405302059, 0.146250000000014,439.334625244141
0.00666628666666667, 239.349225570413, 0.00103061770076848, 0.163750000000018,436.316162109375
0.00733289166666667, 239.362494116753, 0.000849731286477815, 0.181250000000022,441.98681640625
0.007999615, 239.375507353328, 0.000868492344144387, 0.196250000000009,443.786560058594
0.008666325, 239.38955084867, 0.000664097610685689, 0.212500000000004,445.099548339844
0.00933277333333333, 239.403095408713, 0.000442044264209355, 0.22875,445.099548339844
0.0100000033333333, 239.41596135508, 6.83740332847476E-05, 0.246250000000003,434.977233886719
0.0106662733333333, 239.429060086104, 9.22468341677861E-05, 0.263750000000007,442.480072021484
0.011333345, 239.441532052907, 0.000490776816402808, 0.281250000000011,447.93798828125
0.0119996183333333, 239.454640542543, 0.000354997636449059, 0.297500000000006,445.644653320313
0.012666135, 239.468066183065, 0.000312042793970881, 0.313750000000002,445.644653320313
0.01333284, 239.481645478802, 0.000503514176560683, 0.328750000000044,434.889892578125
0.0139994716666667, 239.501426639744, 0.000666599484951643, 0.351250000000025,443.025726318359
0.0148327783333333, 239.514994353246, 0.000704472582658911, 0.367500000000021,447.051391601563
0.0154996333333333, 239.528219576544, 0.000737308933348622, 0.383750000000016,446.930786132813
0.0161662633333333, 239.541335218411, 0.000968378326943234, 0.400000000000011,441.743743896484
0.01683283, 239.554653506714, 0.000788306371752314, 0.416250000000007,441.743743896484
0.017499615, 239.56763757428, 0.00048903990360377, 0.432500000000002,535.685363769531
0.01816673, 239.580719196554, 0.000480997307529477, 0.450000000000006,445.069671630859
0.0188335933333333, 239.594139724437, 0.000580826293222254, 0.466250000000001,441.479034423828
0.0194999933333333, 239.607493395361, 0.000164363211740037, 0.482499999999997,443.607147216797
0.02016622, 239.621338812465, -5.54177488615338E-05, 0.498750000000048,443.607147216797
0.0208327983333333, 239.634886484053, -0.000111577928017674, 0.516249999999996,448.374847412109
0.0215002, 239.648300275478, -0.000430874390069233, 0.531250000000039,445.349212646484
0.0221666766666667, 239.661572729007, -0.000605315628093888, 0.547500000000034,445.359130859375
0.02283278, 239.674563515285, -0.000356919104796014, 0.565000000000038,435.805969238281
0.0234995733333333, 239.687411039472, -2.12329659420077E-05, 0.581250000000033,435.805969238281
0.0241663033333333, 239.700968727468, -0.000170802453218514, 0.597500000000029,444.249450683594
0.024833735, 239.714656619319, -0.000242354859193886, 0.615000000000032,439.413909912109
0.0254995716666667, 239.727665960428, -2.97045404168866E-05, 0.631250000000028,440.704345703125
0.0261667116666667, 239.741107881836, -6.93760477387101E-05, 0.647500000000023,447.075500488281
0.02683287, 239.754033678359, -0.000188375570523911, 0.66250000000001,447.075500488281
0.027499925, 239.767192732492, 5.32919988491631E-06, 0.677499999999998,436.664428710938
0.028167635, 239.779522098319, 0.00028731353608355, 0.696250000000009,533.590576171875
0.02883278, 239.793194898333, 0.000478654425250269, 0.713750000000013,543.913879394531
0.0295002, 239.80647869302, 0.000237999013094108, 0.730000000000008,553.454956054688
0.030166395, 239.820287318582, 0.000198454999346561, 0.746250000000004,553.454956054688
0.0308328866666667, 239.83369737115, 0.000103862250659483, 0.765000000000016,550.486022949219
0.031500115, 239.847584493139, -4.38010423298543E-07, 0.781250000000011,554.621337890625
0.0321664, 239.860413626268, -3.18884307093496E-05, 0.798750000000015,556.688659667969
0.0328330866666667, 239.873385879637, 0.000495945556725344, 0.813750000000002,546.525512695313
0.0335002466666667, 239.886290384454, 0.000663967117198843, 0.831250000000006,546.525512695313
0.0341662316666667, 239.89932861273, 0.000920571228255369, 0.847500000000001,656.370666503906
0.0348334066666667, 239.912482577573, 0.00114293805895324, 0.863749999999996,552.179016113281
0.035499695, 239.926085837987, 0.000717382434165669, 0.88125,556.402099609375
0.0361666283333333, 239.939759641876, 0.000257813017819291, 0.897499999999996,547.9541015625
0.0368346183333333, 239.952909513526, -0.000115771717393076, 0.913750000000046,547.9541015625
0.0374995466666667, 239.965990366673, -0.000171835901366154, 0.931249999999995,552.251892089844
0.0381678716666667, 239.978976317156, -0.000577538523351547, 0.947500000000046,551.95458984375
0.03883347, 239.991221127446, -6.76181361255511E-05, 0.963750000000041,547.747131347656
0.0395005766666667, 240.00367966853, 9.79375482464183E-05, 0.980000000000036,548.870056152344
0.0401662733333333, 240.016292581262, 0.000421252308496944, 0.99750000000004,548.870056152344
0.0408332616666667, 240.028846362293, 0.000490811314621575, 1.01250000000003,554.943481445313
0.0415006866666667, 240.041564487292, 0.000728546373454494, 1.03125000000004,553.425048828125
0.0421674333333333, 240.054221299407, 0.000496130047469453, 1.04750000000003,546.954284667969
0.0428333466666667, 240.067124116902, 0.000539107388771172, 1.06250000000002,547.205078125
0.043500595, 240.079657064841, 0.00062250919955142, 1.08000000000003,547.205078125
0.044166665, 240.092181202695, 0.000564708102821813, 1.09750000000003,544.375061035156
0.0448328233333333, 240.105208012651, 0.000586110527787603, 1.11500000000003,549.920776367188
0.0454997933333333, 240.118576303295, 0.000496826012456327, 1.13000000000002,558.540710449219
0.0461663783333333, 240.13166946265, 0.000444717129814772, 1.14750000000002,549.479064941406
0.0468331333333333, 240.144632629799, 0.000359329418742036, 1.16375000000002,549.479064941406
0.0475001016666667, 240.157395314563, 0.000163581750955907, 1.18125000000002,542.163391113281
0.0481662966666667, 240.168936495359, 0.000140424414140747, 1.19750000000002,547.775512695313
0.04883303, 240.180569580652, 0.00015100188283912, 1.21375000000001,549.103454589844
0.049499825, 240.192010033202, 0.000450827822917603, 1.23125000000002,658.247436523438
0.0501669083333333, 240.204441703352, 0.00049413214778174, 1.24625,658.247436523438
0.0508333666666667, 240.216888567805, 0.000911474185134299, 1.2625,543.3447265625
0.0515015633333333, 240.230130212198, 0.00081431656525006, 1.28,546.063110351563
0.0521664416666667, 240.24374387254, 0.00101087269243832, 1.29625,545.108581542969
0.0528333516666667, 240.258036887892, 0.000741378228871029, 1.31249999999999,538.206237792969
0.053499935, 240.272229442773, 0.000476110552994753, 1.33,538.206237792969
0.0541664016666667, 240.286749431047, 0.000383103224656968, 1.34625000000005,536.620422363281
0.0548328183333333, 240.300928735041, 0.000889912768160509, 1.36250000000004,539.801025390625
0.0555000533333333, 240.315262461243, 0.000851820681469111, 1.37750000000003,542.953063964844
0.0561663166666667, 240.328547540849, 0.000911232697262866, 1.39375000000003,539.230834960938
0.05683282, 240.342164377568, 0.00114010020147218, 1.41000000000002,539.230834960938
0.0574999583333333, 240.355788723451, 0.00079392808932965, 1.42750000000003,541.542358398438
0.0581661566666667, 240.36940975948, 0.000631543245741283, 1.44375000000002,536.695617675781
0.0588329216666667, 240.383032873831, 0.000473443686916916, 1.46125000000003,544.091918945313
0.0594996083333333, 240.397491204373, 0.000197784532989526, 1.47625000000001,535.704772949219
0.0601662916666667, 240.411294751777, 0.000131816346523918, 1.49250000000001,535.704772949219
0.060832865, 240.424969684703, 0.000486356538336243, 1.51000000000001,534.337219238281
0.0615002216666667, 240.43891894036, 0.000337884995892954, 1.52625000000001,547.531005859375
0.0621671416666667, 240.452469580383, 0.000575669552209927, 1.5425,554.181091308594
0.0628336716666667, 240.46623118485, 0.000599354862542559, 1.56000000000001,559.676513671875
0.0635001316666667, 240.47980328724, 0.000306211086807056, 1.57500000000005,559.676513671875
0.0641662216666667, 240.493415171696, 0.000296071596098197, 1.59125000000004,551.9765625
0.06483282, 240.506368839454, 0.00011013193564279, 1.60875000000005,562.808227539063
0.0655003983333333, 240.519670392739, -0.000241978378232431, 1.63000000000002,561.103454589844
0.0661667033333333, 240.532869329047, -0.000191519412710762, 1.64500000000001,558.011169433594
0.06683288, 240.545743886996, -0.000183734803718846, 1.65999999999999,558.011169433594
0.0675000083333333, 240.558537780964, -0.0006286274572076, 1.67625000000005,387.493896484375
0.0681667766666667, 240.571688220109, -0.000853182678034904, 1.69375000000005,390.484252929688
0.0688333166666667, 240.584151317424, -0.000575149143373329, 1.71125,390.602020263672
0.06949983, 240.59624797823, -0.000722566238791095, 1.72750000000005,391.859680175781
0.0701676083333333, 240.608524611743, -0.000454060225533071, 1.74375000000004,391.859680175781
0.0708332883333333, 240.620361225684, -0.000243787287339063, 1.76125000000005,401.031799316406
0.07150002, 240.632607072665, 0.000100698909476644, 1.77750000000004,385.525390625
0.072166655, 240.644737310648, -0.000114264293155261, 1.79500000000005,393.225982666016
0.072832845, 240.656250680298, 0.000111105386729283, 1.81000000000003,393.225982666016
0.0735006783333333, 240.667562552555, -0.000209514008900999, 1.82625000000003,384.485534667969
0.07416663, 240.678560963635, 9.88885003180836E-05, 1.84500000000004,402.277618408203
0.0748331833333333, 240.689159878101, -0.000156664163540472, 1.86125000000004,396.679931640625
0.0755000066666667, 240.699013644602, 0.000248907965000584, 1.87750000000003,385.779449462891
0.076166215, 240.709017527913, 0.000493076200725543, 1.89500000000004,388.291778564453
0.076833335, 240.719809098637, 0.000605122072765757, 1.91125000000003,388.291778564453
0.07750027, 240.730337277572, 0.000350227875890265, 1.92625000000002,391.877990722656
0.0781670633333333, 240.740536388694, 0.000600541302894314, 1.94375000000002,390.022094726563
0.0788330666666667, 240.751765455624, 0.000252816768739367, 1.96125000000003,390.192474365234
0.0794996583333333, 240.763031638655, -0.000144222288426276, 1.97750000000002,392.942596435547
0.0801667216666667, 240.77385012609, 5.00149552519782E-05, 1.99250000000001,392.942596435547
0.0808331566666667, 240.78477591671, 4.91989962490814E-05, 2.01125000000002,394.972076416016
0.08149965, 240.795877830876, 3.54626862473496E-05, 2.02750000000002,388.295623779297
0.0821663183333333, 240.806809556804, -7.67661766125697E-05, 2.04375000000001,395.074127197266
0.0828331333333333, 240.817174330006, 5.70718083453722E-06, 2.06125000000001,465.397674560547
0.0834997016666667, 240.82781175601, -7.76316331632823E-05, 2.07750000000001,465.397674560547
0.0841674733333333, 240.838854136701, -0.000365849656308322, 2.09375000000001,382.136871337891
0.0848328583333333, 240.849295901823, -0.000639534909359706, 2.11,390.241546630859
0.085499745, 240.85994599641, -0.000565474629357005, 2.12625,393.063842773438
0.0861669466666667, 240.870617868341, -0.000576112095031508, 2.14250000000005,389.69482421875
0.08683334, 240.881013938432, -0.00059311824084871, 2.15875000000004,389.69482421875
0.0874999416666667, 240.891099242338, -0.000596304080855091, 2.17500000000004,386.04248046875
0.0881666083333333, 240.90163956958, -0.000512596285411562, 2.19125000000003,387.090545654297
0.0888328916666667, 240.91126685618, -0.000237555100444584, 2.20750000000003,388.720031738281
0.0894998883333333, 240.921054928799, -1.09839808579815E-05, 2.22500000000003,392.463134765625
0.0901669916666667, 240.930847477197, 1.53546961903489E-05, 2.24000000000002,392.463134765625
0.0908334733333333, 240.939529077455, 0.000433044716025718, 2.25375,391.417358398438
0.09149977, 240.947998351544, 0.000624804084164708, 2.27375000000002,327.899780273438
0.092166255, 240.958178386581, 0.000258316992418786, 2.29125000000002,306.286499023438
0.0928328283333333, 240.96847823514, -8.98890175333692E-05, 2.30750000000002,302.759002685547
0.0935008316666667, 240.97840081451, -0.000220556454206889, 2.32375000000001,302.759002685547
0.094167175, 240.989690831676, -0.000200764948305247, 2.34000000000001,302.985198974609
0.0948333216666667, 241.001428937608, -0.000171831401592944, 2.35625,296.690765380859
0.095499605, 241.011823324939, -8.22679002801538E-05, 2.37375000000001,300.978546142578
0.09616659, 241.022635966626, 0.000194978173942186, 2.39,300.065704345703
0.096832815, 241.033310789118, 0.000370941835469944, 2.40625,300.065704345703
0.0975002083333333, 241.04436803382, 0.000345750600802647, 2.42249999999999,301.488098144531
0.09816636, 241.055400655482, 0.000211132362570814, 2.44,302.376525878906
0.0988327616666667, 241.066375381973, 0.000547379473215401, 2.4575,305.274261474609
0.09949979, 241.07727095664, 0.000605410058421215, 2.47375,357.517547607422
0.100166271666667, 241.088133108881, 0.00102961125123885, 2.49000000000005,357.517547607422
0.1008338, 241.098891101977, 0.00104200962848159, 2.50625000000004,302.427215576172
0.101500386666667, 241.109677893342, 0.00101881629343824, 2.52250000000004,295.910217285156
0.102166511666667, 241.120247888574, 0.000848643841030404, 2.54000000000004,298.927612304688
0.102834545, 241.131056398683, 0.000907236897972456, 2.55625000000004,304.801361083984
0.103499888333333, 241.141746179462, 0.000692411688428159, 2.57250000000003,304.801361083984
0.104166883333333, 241.152655262729, 0.000808471358851622, 2.59000000000004,302.128784179688
0.104832906666667, 241.163916949485, 0.000901364692956013, 2.60625000000003,298.365875244141
0.105499401666667, 241.175178849179, 0.000884876021142951, 2.62375000000004,301.474548339844
0.1061671, 241.186163050383, 0.000786068484117571, 2.64000000000003,299.701599121094
0.106832805, 241.197495359802, 0.000736606968515356, 2.65750000000003,299.701599121094
0.107499683333333, 241.208797993004, 0.000528472922860459, 2.67375000000003,298.907470703125
0.108166335, 241.219912890433, 0.000597407960284556, 2.69125000000003,299.948669433594
0.108833323333333, 241.231096397315, 0.000654733580893314, 2.70625000000002,301.545379638672
0.109500726666667, 241.242554285112, 0.000334220679938173, 2.72500000000003,297.866455078125
0.110167048333333, 241.25394261397, 0.000181924329607699, 2.74125000000003,297.866455078125
0.11083279, 241.265215208732, 0.000273902709613562, 2.75625000000002,306.380432128906
0.111500416666667, 241.276298099705, 0.000248534483824173, 2.77375000000002,305.908874511719
0.112166335, 241.287736757744, 0.000513610169376831, 2.79125000000002,301.467651367188
0.112833325, 241.299031827338, 0.000522728211397039, 2.80750000000002,308.011962890625
0.113499975, 241.310966020762, 0.000741919701644367, 2.82250000000001,308.011962890625
0.114166308333333, 241.322477958189, 0.000783010137727976, 2.84125000000002,301.732147216797
0.114833001666667, 241.334380310907, 0.000807475408877826, 2.85625,301.774993896484
0.115499445, 241.346401230749, 0.00067652748625588, 2.8725,301.84423828125
0.116166146666667, 241.357701222372, 0.00104095668135921, 2.89,374.375305175781
0.116833293333333, 241.369143981433, 0.000819920283777066, 2.90625,374.375305175781
0.117499456666667, 241.381084950306, 0.000737551921080695, 2.92125000000004,312.228790283203
0.118167136666667, 241.392706801135, 0.000616710490809483, 2.93750000000004,300.030792236328
0.118832788333333, 241.404376317114, 0.000543713657378724, 2.95500000000004,298.916839599609
0.119499478333333, 241.416708707075, 0.0004504618413207, 2.97125000000004,299.191589355469
0.120166633333333, 241.428597649169, 0.000596843988666423, 2.98875000000004,299.191589355469
0.120833966666667, 241.44103520264, 0.000552768702531487, 3.00500000000004,296.440490722656
0.121501006666667, 241.453089762199, 0.000667260951677242, 3.02125000000003,307.314575195313
0.122166775, 241.465372781207, 0.000716294988718258, 3.03750000000003,305.068450927734
0.122832711666667, 241.477774976127, 0.000650320802533782, 3.05375000000002,304.236572265625
0.123500061666667, 241.490690987211, 0.000280506877930082, 3.07000000000002,304.236572265625
0.124167231666667, 241.502638577551, 0.000295744612535778, 3.08625000000001,313.501220703125
0.12483277, 241.515191089049, 6.67736135001353E-05, 3.10375000000002,303.020904541016
0.12550094, 241.527409045007, -0.000214871739740854, 3.12000000000001,302.354339599609
0.126167606666667, 241.53975181574, -0.000346122647134766, 3.13750000000002,300.580657958984
0.126832843333333, 241.551464241599, 0.000147618052811509, 3.1525,300.580657958984
0.127500686666667, 241.563668745964, 0.000161483356375684, 3.16875,298.714141845703
0.128167685, 241.575500301523, 0.000472903714089235, 3.18625,306.240875244141
0.128834955, 241.587281368358, 0.000665794025419569, 3.2025,300.648834228516
0.129500623333333, 241.59956282208, 0.000798540357719832, 3.22,244.121963500977
0.130166711666667, 241.61264242478, 0.000416512546532485, 3.23625,244.121963500977
0.130833353333333, 241.625776988469, 0.000177073573301162, 3.25125000000004,311.543304443359
0.131499526666667, 241.638629557812, 2.17635819415355E-06, 3.26875000000004,329.547821044922
0.132166336666667, 241.652262221992, -0.000454466705110116, 3.28625000000005,387.541748046875
0.132834598333333, 241.665415953309, -0.000870856290360336, 3.30250000000004,317.937377929688
0.133500553333333, 241.677917467023, -0.000948978366369698, 3.32125,317.937377929688
0.134166655, 241.689905035715, -0.000938552390057309, 3.33625000000004,326.694580078125
0.134834351666667, 241.702760235431, -0.00127334607372134, 3.35250000000004,319.484161376953
0.135500803333333, 241.714836113495, -0.00107978529607648, 3.37125000000005,319.409240722656
0.136166376666667, 241.726957179228, -0.00101627998584234, 3.38625000000004,321.955230712891
0.136833305, 241.738964639786, -0.000727998965893621, 3.40375000000004,321.955230712891
0.137500423333333, 241.751450616631, -0.000911232762279215, 3.42000000000003,323.403778076172
0.138166353333333, 241.763481340824, -0.000715933571974676, 3.43625000000003,320.090362548828
0.138833293333333, 241.775562944008, -0.000535987610454884, 3.45250000000003,323.107818603516
0.139499685, 241.787668426312, -0.00033301780543433, 3.47000000000003,320.090240478516
0.140166315, 241.799425443756, -0.000314145753340663, 3.48625000000002,320.090240478516
0.140832845, 241.811564612819, -0.000306949114821094, 3.50375000000003,321.003631591797
0.14149942, 241.823719065493, -0.000169670010187784, 3.52125000000003,328.053863525391
0.142166351666667, 241.83608465772, -0.000111556929182299, 3.53750000000003,325.653869628906
0.142834956666667, 241.848512790692, -0.000270277456773376, 3.55375000000002,320.686767578125
0.143500123333333, 241.861392558742, -0.000316254647412963, 3.57000000000002,320.686767578125
0.144166883333333, 241.873881441752, -0.00024894702822145, 3.58750000000002,321.621063232422
0.144833226666667, 241.886733978811, -0.000558813463934415, 3.60500000000002,322.173217773438
