Time (min), Depth (µm), Load (N), Position (µm), Acoustic (aJ)
8.18E-06, 239.377907025463, -9.89657474769302E-05, 0,504.405487060547
0.000666215, 239.378167711572, -0.000431827528169504, 0.00125000000000819,509.476898193359
0.00133278166666667, 239.376283501825, -0.000462292497952581, 0.0162499999999954,524.162231445313
0.001999405, 239.376156825105, -0.000193541996995572, 0.0387500000000318,562.104248046875
0.00266457, 239.378865392103, -0.000147329318160912, 0.0600000000000045,562.104248046875
0.00333134166666667, 239.38578366038, -8.77703097331285E-05, 0.0787500000000163,557.343994140625
0.00399940666666667, 239.395334116219, -0.000123456517256619, 0.0962500000000199,557.770629882813
0.00466624833333333, 239.410036625909, -0.000502184494119176, 0.112500000000015,673.07568359375
0.00533274, 239.425297516688, -0.000587411713259508, 0.128750000000011,559.367126464844
0.00599926, 239.439271442141, -0.000462446990123609, 0.146250000000014,559.367126464844
0.00666606, 239.452629841281, -0.000308980698567307, 0.163750000000018,557.14306640625
0.00733262166666667, 239.46653400562, -0.000127776300303149, 0.180000000000013,565.842529296875
0.00800003166666667, 239.479638321207, 0.000392304576552097, 0.196250000000009,562.803588867188
0.00866602666666667, 239.493220281694, 0.000528794720800515, 0.213750000000013,570.215759277344
0.009332735, 239.507860600546, 7.91458062213743E-05, 0.22875,570.215759277344
0.00999936833333333, 239.522232073903, -6.5001453444683E-05, 0.244999999999995,565.213317871094
0.01066608, 239.536057997661, -0.000114618961227345, 0.262499999999999,559.150268554688
0.011331195, 239.549712766917, -0.00021404296726748, 0.280000000000002,564.042785644531
0.0119996066666667, 239.563967069118, -6.50029533903404E-05, 0.296249999999998,560.57568359375
0.0126659833333333, 239.577722062992, 0.000110591726627945, 0.313750000000002,560.57568359375
0.0133327016666667, 239.591636983004, 3.87513351033853E-05, 0.328750000000044,548.614990234375
0.0139993183333333, 239.60548227573, 0.000201080681446324, 0.346250000000048,557.162536621094
0.0146663916666667, 239.619981692078, -0.000179361709327968, 0.363749999999996,558.606506347656
0.0153336216666667, 239.633760625251, -0.00053407139264037, 0.380000000000047,570.389343261719
0.015999625, 239.647837958337, -0.000425665837743232, 0.395000000000034,570.389343261719
0.0166661466666667, 239.661637047975, -0.000166277866547924, 0.41125000000003,557.445739746094
0.0173326566666667, 239.675757763281, 0.000158967296749661, 0.427500000000025,559.092468261719
0.017999415, 239.689720848278, 0.000269012269295863, 0.445000000000029,558.14892578125
0.0186661433333333, 239.704006999217, 0.00025437900433095, 0.461250000000024,560.782104492188
0.019331355, 239.71819956185, -3.8780236517611E-06, 0.47750000000002,560.782104492188
0.0199978033333333, 239.732792125715, -0.000233976966072449, 0.495000000000023,556.987426757813
0.0206645616666667, 239.746974329145, -0.000610362060655797, 0.511250000000019,558.086547851563
0.0213328533333333, 239.761587259263, -0.000339391671199393, 0.527500000000014,667.418151855469
0.0219992816666667, 239.776227185313, -0.000370585604391233, 0.545000000000018,556.857116699219
0.02266607, 239.790893457284, -0.000388230718110494, 0.561250000000013,556.857116699219
0.0233328883333333, 239.805127328414, -0.000376043830208614, 0.57625,562.10009765625
0.0239995316666667, 239.820206177968, -0.000266618326547228, 0.593750000000004,558.403930664063
0.0246661616666667, 239.834957653616, -0.000287476278890874, 0.609999999999999,557.950134277344
0.0253328216666667, 239.849238069367, -6.70688160765786E-06, 0.626249999999995,562.920471191406
0.02599944, 239.863666973068, 0.000379952696880843, 0.642500000000046,562.920471191406
0.0266660666666667, 239.87846676093, 0.000273722032751002, 0.658750000000041,560.67138671875
0.02733285, 239.892878329526, -5.26720728095103E-05, 0.67250000000002,559.885620117188
0.027998095, 239.907969773451, -0.00029967816595177, 0.691250000000032,636.063659667969
0.02866612, 239.922473849245, -0.00065005156707046, 0.708750000000036,657.204956054688
0.0293312883333333, 239.936502872698, -0.000491410535451501, 0.726250000000039,657.204956054688
0.02999777, 239.950543746693, -0.000509787612385822, 0.742500000000035,663.368041992188
0.0306645733333333, 239.964330126388, -0.000549562614533979, 0.760000000000038,658.545043945313
0.0313311, 239.977490979185, -0.000596882237705768, 0.776250000000034,655.561157226563
0.0319979, 239.991236457996, -0.000695965760863856, 0.793750000000037,657.909973144531
0.0326655083333333, 240.005192395277, -0.000969142539500026, 0.808750000000025,657.909973144531
0.0333313083333333, 240.018904127956, -0.000787105683022027, 0.826250000000028,652.639892578125
0.0339990733333333, 240.031801093349, -0.000596007781651144, 0.842500000000024,661.6201171875
0.0346644983333333, 240.044579205747, -0.000325545866673715, 0.860000000000027,663.825622558594
0.0353328266666667, 240.057335409782, 7.98488043023613E-06, 0.876250000000023,662.440734863281
0.035998505, 240.069807494112, -9.98492031842443E-05, 0.892500000000018,662.440734863281
0.0366644216666667, 240.081935669992, -0.000121616109843789, 0.908750000000014,658.744689941406
0.0373311516666667, 240.094880399365, 5.38401102614276E-06, 0.926250000000017,660.870483398438
0.03799789, 240.107163782356, -0.000207947273578714, 0.942500000000013,797.156433105469
0.038664535, 240.120082606439, -0.000208131764301569, 0.960000000000016,797.156433105469
0.0393311666666667, 240.132265726732, 3.96467900784006E-05, 0.976250000000012,661.807983398438
0.0399978283333333, 240.144933185496, 0.000287189856284551, 0.993750000000015,663.346008300781
0.0406645683333333, 240.157153647847, 9.63049442426929E-05, 1.00875,654.649353027344
0.0413311116666667, 240.170164281319, 0.000511490089920793, 1.02625000000001,669.35400390625
0.0419978816666667, 240.182384584657, 0.000541482583431828, 1.0425,669.35400390625
0.0426645016666667, 240.19563184836, 3.29391269993103E-05, 1.05875,665.353759765625
0.0433312183333333, 240.209369609301, -0.000448862172656639, 1.07500000000005,663.72265625
0.04399776, 240.222903550126, -0.000465694327200556, 1.09125000000004,659.798889160156
0.0446644566666667, 240.235896251528, -0.000774495816374667, 1.10875000000005,659.398376464844
0.0453311516666667, 240.2491185525, -0.00101600768549261, 1.1275,658.921020507813
0.0459979983333333, 240.261916290525, -0.000695949261716674, 1.14375,658.921020507813
0.046664535, 240.273523851945, -0.00048290296276969, 1.15999999999999,651.228698730469
0.047331135, 240.285362061321, -0.000206253858544863, 1.17625000000005,662.229064941406
0.04799778, 240.297136063869, -0.00032525488127572, 1.19375000000005,656.806945800781
0.0486644866666667, 240.308964487543, -0.000110135686505877, 1.21000000000004,653.743713378906
0.0493313433333333, 240.320552246379, 0.000249877730431626, 1.22625000000004,653.743713378906
0.0499979583333333, 240.332308401897, 0.000424062481277054, 1.24125000000003,659.495727539063
0.0506661866666667, 240.344111413946, 0.000180288725755167, 1.25875000000003,642.653442382813
0.0513328133333333, 240.356731914022, 0.000182640607623303, 1.27500000000003,645.547790527344
0.0519995416666667, 240.368760774971, 0.000344206492359968, 1.29125000000002,637.547119140625
0.0526672066666667, 240.381096268237, 0.000215158974254507, 1.30750000000002,637.547119140625
0.0533312533333333, 240.39375211988, 0.000192429115979292, 1.32500000000002,632.592529296875
0.0539979566666667, 240.406626817908, 4.67384338684872E-05, 1.34125000000002,637.585266113281
0.0546645666666667, 240.418829420661, 0.000151806656394516, 1.35750000000001,764.934814453125
0.0553311566666667, 240.431092424079, 7.03992786489679E-06, 1.37375000000001,629.021606445313
0.0559979316666667, 240.442976377814, 9.074772332968E-05, 1.39125000000001,629.021606445313
0.0566645266666667, 240.454101658438, 0.000213048580257803, 1.40625,631.528747558594
0.05733114, 240.464747928685, 0.000798625167370378, 1.42375,634.124450683594
0.057997765, 240.475248482928, 0.000749435138148915, 1.44,640.916442871094
0.0586645133333333, 240.485167228406, 0.000868973133879901, 1.45625000000005,637.549072265625
0.059331125, 240.495585605683, 0.000448331262308823, 1.47125000000004,637.549072265625
0.0599978683333333, 240.505960737512, -6.72963382280036E-05, 1.48750000000003,642.681030273438
0.06066456, 240.515903022634, -0.000622464952706078, 1.50500000000003,651.496215820313
0.0613311733333333, 240.525994167982, -0.000625326808956338, 1.52125000000003,655.108459472656
0.0619978216666667, 240.53638996906, -0.00100230287381833, 1.53875000000003,659.481079101563
0.0626645066666667, 240.546062722472, -0.000994851248107702, 1.55500000000003,659.481079101563
0.0633311266666667, 240.556133156512, -0.000359537159323967, 1.57125000000002,659.785278320313
0.0641646316666667, 240.571141041157, -0.000139123230454188, 1.59125000000004,662.621154785156
0.0648311483333333, 240.580668784066, 0.000516589833742034, 1.60875000000005,662.838745117188
0.065499135, 240.590264843471, 0.000985605775531679, 1.63000000000002,663.52392578125
0.0661646783333333, 240.599920283469, 0.000878463157215879, 1.64250000000005,577.092102050781
0.066831135, 240.609339056324, 0.000600870600413878, 1.65999999999999,577.092102050781
0.06766459, 240.618596640618, 0.000733094958915537, 1.68125000000002,511.209716796875
0.0683322966666667, 240.628106262884, 0.000269192260266762, 1.69625000000001,506.178405761719
0.0689980133333333, 240.637302299381, 7.49115187808134E-05, 1.71375000000001,510.482727050781
0.069664445, 240.646239551103, 0.00015572895941042, 1.73125000000002,513.010437011719
0.070331235, 240.655741433241, 0.00030951473488587, 1.74875000000002,516.211730957031
0.0709978733333333, 240.665816082597, -5.51094504323945E-05, 1.76625000000002,516.211730957031
0.0716656766666667, 240.675681797796, 1.21591707458879E-05, 1.78125000000001,616.577514648438
0.0723313183333333, 240.685376915352, 0.000208866790320135, 1.79750000000001,512.795837402344
0.07299799, 240.695958142116, 0.0004553764083999, 1.81500000000001,509.571044921875
0.0736646766666667, 240.705942581374, 0.000552279041071823, 1.83125000000001,511.818115234375
0.07433137, 240.715893258532, 0.00094981907307317, 1.8475,511.818115234375
0.0749978716666667, 240.726112480186, 0.000945799274971054, 1.86375,520.5
0.0756660483333333, 240.736132924479, 0.000871858988899359, 1.88125,518.487976074219
0.0763328283333333, 240.74561740625, 0.000646642301282694, 1.8975,512.668151855469
0.0769993566666667, 240.755505274213, 0.000406172879816299, 1.915,516.441284179688
0.0776646616666667, 240.764555677407, 2.37520884140446E-05, 1.93125,516.441284179688
0.0783312583333333, 240.773908042623, 1.53990080095314E-05, 1.94625000000004,512.624938964844
0.07899788, 240.783049121903, -0.000618758638910513, 1.96375000000004,516.303466796875
0.0796643766666667, 240.792446224387, -0.000815463258635954, 1.98125000000005,516.606628417969
0.0803311033333333, 240.801684978448, -0.000683705376687471, 1.99750000000004,514.63720703125
0.080997795, 240.811545005632, -0.000519129143205878, 2.01500000000004,514.63720703125
0.0816647433333333, 240.820547441829, -0.000507485228086756, 2.03125000000004,512.351318359375
0.0823322033333333, 240.830350515248, 7.88668200485731E-05, 2.04750000000004,513.388916015625
0.0829978216666667, 240.839609902778, 0.000205052481903774, 2.06375000000003,512.659423828125
0.083664455, 240.849331172758, 8.0660729974935E-05, 2.08125000000003,517.531982421875
0.0843310833333333, 240.85875158843, -0.000179664694121188, 2.09750000000003,517.531982421875
0.0849978716666667, 240.868705482168, -0.000379460658551842, 2.11375000000003,517.813781738281
0.085664525, 240.87851105107, -0.00089081647366555, 2.13000000000002,507.800445556641
0.0863311766666667, 240.888216152183, -0.000956928652980142, 2.14625000000002,403.042999267578
0.0869983533333333, 240.898037885267, -0.000832169419529997, 2.16250000000001,507.973785400391
0.087665675, 240.906858604342, -0.000611960980388482, 2.18000000000002,507.973785400391
0.0883311283333333, 240.916552199586, -0.000411137567550309, 2.19625000000001,604.234375
0.08916459, 240.930597259962, -0.000157248320152525, 2.21625000000003,506.412963867188
0.08983113, 240.939855403765, -0.000412680990037565, 2.23250000000003,504.848541259766
0.09049778, 240.94862906272, -0.000626403754975435, 2.24625000000001,507.869384765625
0.09116445, 240.955500677299, -0.000671278500944832, 2.26500000000002,449.428894042969
0.0918310916666667, 240.962956824157, -0.000972295381169535, 2.28250000000002,449.428894042969
0.0926645483333333, 240.97066720051, -0.000670306549740234, 2.30250000000004,445.8466796875
0.093332775, 240.978850863837, -0.000340231629056504, 2.32000000000004,441.889801025391
0.0939977733333333, 240.988481274888, -0.000369798143930743, 2.33625000000004,438.481903076172
0.0946645566666667, 240.999654763728, -0.000260180649924486, 2.35250000000004,447.916168212891
0.095331275, 241.0109784734, 0.000122453130785539, 2.36750000000002,443.314422607422
0.0959979266666667, 241.022590067992, -5.78993102900442E-05, 2.38625000000003,443.314422607422
0.096664445, 241.034151919215, 0.000193042585166495, 2.40125000000002,437.8623046875
0.0973311516666667, 241.046418850461, 0.000375325429289136, 2.41750000000002,438.896209716797
0.09799779, 241.059085662958, 0.000227312863798261, 2.43500000000002,447.836334228516
0.09866465, 241.071886055653, 0.000263203061061848, 2.45250000000002,435.694000244141
0.099331145, 241.084998082105, 0.000205151476914389, 2.46875000000002,435.694000244141
0.0999977916666667, 241.098323654004, -0.000357198776839222, 2.48500000000002,442.233764648438
0.100664475, 241.111353846943, -0.000625694290605169, 2.50250000000002,443.028839111328
0.101331371666667, 241.124003909125, -0.000552151484585355, 2.51875000000001,445.291687011719
0.101998281666667, 241.136998682544, -0.000822461907155547, 2.53500000000001,445.504302978516
0.10266476, 241.149436635277, -0.000701179499046014, 2.55125,445.504302978516
0.103331161666667, 241.162224722026, -0.000660215056676042, 2.5675,438.889526367188
0.103998175, 241.174948627206, -0.000352217527024585, 2.58375,526.773864746094
0.104664578333333, 241.18773496966, -0.000339670657223415, 2.60125,432.928100585938
0.10533178, 241.200430642582, -6.67788643301338E-05, 2.62000000000001,439.912078857422
0.105997865, 241.213803171973, -9.84172420558152E-06, 2.63625000000001,439.912078857422
0.106665636666667, 241.226650307622, -4.54109376043638E-05, 2.65375000000001,436.552703857422
0.10733149, 241.239283744872, -4.80298061012963E-05, 2.66875,437.379211425781
0.107998115, 241.252003068648, 5.50930141336414E-05, 2.68625,441.245086669922
0.108664451666667, 241.264569217244, -1.32750517597534E-05, 2.7025,433.428131103516
0.109331126666667, 241.276772285777, -0.000176478854199824, 2.72,433.428131103516
0.109997963333333, 241.288689896733, 0.000231739141456168, 2.73625,439.175964355469
0.110664493333333, 241.301085387402, 0.000356924353521855, 2.75125000000004,440.617828369141
0.11133126, 241.313614082287, 0.000327221345463156, 2.76875000000004,441.126892089844
0.11199821, 241.325650130249, 0.000239945229226654, 2.78625000000005,443.096099853516
0.11266544, 241.3378440512, 0.000276580889067439, 2.80375000000005,443.096099853516
0.113331218333333, 241.349566844341, 0.000355355432277235, 2.81875000000004,440.498931884766
0.113999395, 241.361395784711, 0.00051854273554887, 2.83500000000003,443.391845703125
0.114665451666667, 241.372979160138, 0.000597269281199016, 2.85125000000003,445.593811035156
0.115331081666667, 241.384640003429, 0.000851038534644541, 2.86875000000003,447.967407226563
0.115999398333333, 241.396246139028, 0.000719130660276985, 2.88625000000003,447.967407226563
0.116666043333333, 241.408649018192, 0.000394182482075008, 2.90125000000002,450.965667724609
0.117331445, 241.420215549986, 0.000127981853028619, 2.91750000000002,444.599609375
0.117998868333333, 241.432278099195, 9.5088038152329E-06, 2.93375000000001,450.454620361328
0.118664496666667, 241.444084218447, -1.25235895274508E-05, 2.95000000000001,447.48681640625
0.119331698333333, 241.455260746742, 0.00020353005833691, 2.96625,447.48681640625
0.119997833333333, 241.466547541382, 0.000459978177234242, 2.98375000000001,446.859497070313
0.12066558, 241.478490977448, 0.000614492916118454, 3,536.969604492188
0.121331226666667, 241.490147003859, 0.000808778157398866, 3.01625,443.873565673828
0.121997805, 241.50174016302, 0.000896996226309393, 3.03375,441.810150146484
0.122664461666667, 241.513833796242, 0.00120383731399089, 3.05,441.810150146484
0.123331085, 241.526307520371, 0.00115877057767662, 3.06625000000005,449.059478759766
0.123998058333333, 241.538383260056, 0.00095484382073801, 3.08250000000004,443.986175537109
0.12466558, 241.550149925306, 0.000648119727138714, 3.10000000000005,441.703369140625
0.125331128333333, 241.561750549166, 0.000948080660392237, 3.11500000000003,441.134796142578
0.125998068333333, 241.573808113824, 0.000774575375386501, 3.13125000000003,441.134796142578
0.126664435, 241.585680021605, 0.00102784065410501, 3.14750000000003,440.98681640625
0.127331186666667, 241.597236443221, 0.00133199837660399, 3.16500000000003,441.667877197266
0.127997978333333, 241.609021203474, 0.00144621913943276, 3.18125000000002,437.210693359375
0.128664526666667, 241.621427427455, 0.00119842408592686, 3.19750000000002,430.114929199219
0.129331138333333, 241.633100011419, 0.00123081345903813, 3.21500000000002,430.114929199219
0.129997746666667, 241.645680311303, 0.000970384540094418, 3.23125000000002,439.149261474609
0.130664475, 241.659852899696, 0.000590614115537802, 3.24750000000001,452.813446044922
0.13133126, 241.673574775489, 0.000720516590659391, 3.26500000000002,465.843780517578
0.131997786666667, 241.686876921535, 0.000595308879727655, 3.28250000000002,463.855834960938
0.132664506666667, 241.700935020018, 0.000481235109532917, 3.29875000000002,463.855834960938
0.133331553333333, 241.713576609307, 0.000201041683348077, 3.31625000000002,473.576629638672
0.133997826666667, 241.726213215494, 0.000217768843162512, 3.33125000000001,464.672027587891
0.134664576666667, 241.737733469628, 0.000129442779673696, 3.34875000000001,467.394592285156
0.135331106666667, 241.750428138115, -0.000123792500599252, 3.36625000000002,467.394592285156
0.135997826666667, 241.76309188364, -0.000152874539848731, 3.38250000000001,469.195739746094
0.136664425, 241.776082605258, -9.66828622801228E-05, 3.39875000000001,470.064758300781
0.137331076666667, 241.788006933237, 8.80673579109599E-05, 3.41625000000001,558.597351074219
0.13799791, 241.80163966672, -9.92042356270812E-05, 3.43125,464.845977783203
0.138664458333333, 241.814021845885, 1.60199768187506E-05, 3.45000000000001,470.561676025391
0.139331216666667, 241.826610130521, -2.55714340793086E-05, 3.46750000000001,470.561676025391
0.139997776666667, 241.83892634136, 7.17646768301719E-05, 3.4825,467.071502685547
0.140664421666667, 241.851589805327, 6.18276759795151E-05, 3.5,466.291534423828
0.141331123333333, 241.864356747988, 0.000134413530060019, 3.51625,468.077697753906
0.142164606666667, 241.882927188616, 0.000467189815040352, 3.53750000000003,468.457153320313
0.14283117, 241.895271743945, 0.000328631274699776, 3.55375000000002,466.348266601563
0.143497828333333, 241.907677710231, 0.000295361445793762, 3.57125000000003,466.348266601563
0.14416443, 241.920448927255, 0.000170659209428432, 3.58750000000002,467.866180419922
0.144831131666667, 241.933028893503, 0.000394956443215868, 3.60375000000002,461.610504150391
0.145498188333333, 241.945588421953, 6.76083855435969E-05, 3.62000000000001,462.277191162109
0.146164531666667, 241.958706964704, -0.000313142989700274, 3.63750000000002,465.521453857422
