Time (min), Depth (µm), Load (N), Position (µm), Acoustic (aJ)
7.92166666666667E-06, 239.405082129504, -0.000450335880104611, 0,407.804534912109
0.000665838333333333, 239.404439029438, -0.000325017174724527, 0.00125000000000819,402.006561279297
0.00133263333333333, 239.402623130861, -0.000656139042833018, 0.0212500000000282,409.279205322266
0.00216695, 239.404257287157, -0.000462659261084679, 0.0450000000000172,404.729217529297
0.00283247166666667, 239.409934626468, -0.000177930062696732, 0.0662500000000454,404.729217529297
0.00349941833333333, 239.41864299031, -3.58481989764682E-06, 0.0837500000000491,396.559997558594
0.00416582666666667, 239.430540807007, 2.45237684566263E-06, 0.100000000000044,395.013427734375
0.00483423333333333, 239.446222209294, -0.000131783380620831, 0.11625000000004,399.469573974609
0.00549909666666667, 239.460759656175, -0.000244172735413153, 0.132500000000035,397.850006103516
0.00616572833333333, 239.474385063487, -0.000155548186968089, 0.150000000000039,397.850006103516
0.006832705, 239.487405427245, -0.000142741830202647, 0.166250000000034,397.117950439453
0.007499075, 239.500121882517, -4.3188830663832E-05, 0.183750000000038,397.649322509766
0.00816596666666667, 239.513576225829, 2.91585355003158E-06, 0.201250000000042,480.854949951172
0.00883245, 239.526794027879, -1.26503646062486E-05, 0.217500000000037,397.286468505859
0.009499335, 239.54064388472, -0.000235129689698125, 0.235000000000041,399.915771484375
0.0101659183333333, 239.554070974097, -0.000134903223974722, 0.251250000000036,399.915771484375
0.010832495, 239.568190629445, -0.000391913814587039, 0.266250000000023,395.811584472656
0.0114993916666667, 239.581591623005, -0.000214670717330762, 0.286250000000043,399.610870361328
0.0123325083333333, 239.602895639368, -0.000431436829371686, 0.305,401.650238037109
0.0129993766666667, 239.616567223848, -0.000573370200214707, 0.321249999999995,402.424835205078
0.013665915, 239.630378096638, -0.000518193971637136, 0.337500000000046,402.424835205078
0.01433244, 239.643730534742, -0.000347832528711981, 0.354999999999994,408.540222167969
0.0149993233333333, 239.657286955158, -0.00029032241733786, 0.371250000000045,403.520446777344
0.0156658466666667, 239.67052107268, -0.000402386288513421, 0.387500000000041,407.613586425781
0.0163326433333333, 239.683613316782, -0.000249833451067482, 0.403750000000036,409.465270996094
0.0169993916666667, 239.696608213157, -0.000219230488218051, 0.420000000000031,409.465270996094
0.0176656233333333, 239.710452784615, -0.000599642880504277, 0.436250000000027,419.962188720703
0.0183326533333333, 239.724208252602, -0.000559680387805713, 0.452500000000022,406.559448242188
0.0189993533333333, 239.738213328156, -0.000324588196260179, 0.470000000000026,410.36328125
0.019666275, 239.75235799001, -0.000187507081733115, 0.486250000000021,409.057403564453
0.0203329533333333, 239.767004883079, -0.000165296197365189, 0.503750000000025,409.057403564453
0.020999185, 239.781010412261, 1.87895562302337E-05, 0.52000000000002,408.175903320313
0.0216657183333333, 239.795009126165, -8.97674910741415E-05, 0.54000000000004,414.854156494141
0.02249913, 239.809180104541, 3.67976516763373E-05, 0.556250000000036,410.500457763672
0.023165765, 239.823902354863, -7.35983032439894E-05, 0.572500000000031,412.452697753906
0.0238324433333333, 239.838010558058, -3.50592390166582E-05, 0.590000000000035,410.280975341797
0.0244999783333333, 239.852596407607, 0.0001358946741328, 0.60625000000003,495.335357666016
0.0251657566666667, 239.866843397424, 0.000266947591484228, 0.622500000000026,495.335357666016
0.0258326, 239.88113908546, 0.000128881026390429, 0.638750000000021,407.285705566406
0.0264991816666667, 239.8952443055, 8.48567377064574E-05, 0.656250000000025,417.571319580078
0.027165755, 239.909478732529, -8.50892260739787E-05, 0.670000000000004,412.531280517578
0.027832395, 239.924480051059, -0.000356730081823656, 0.687500000000008,412.531280517578
0.0284991233333333, 239.939423613774, -0.000412891760882945, 0.703750000000003,375.770324707031
0.0291664366666667, 239.954420567882, -0.000605260098414674, 0.721250000000007,390.940063476563
0.0298324033333333, 239.969375465446, -0.000774009122330024, 0.740000000000018,374.226593017578
0.0304990966666667, 239.984125291353, -0.00100293662353672, 0.756250000000014,377.327606201172
0.0311657183333333, 239.997989493185, -0.000893791605738741, 0.772500000000009,377.327606201172
0.0318327, 240.012132663833, -0.00111109769069236, 0.788750000000005,378.295989990234
0.03249926, 240.025956252665, -0.00119568444196373, 0.805,377.130920410156
0.0331657083333333, 240.039743322359, -0.00130494495389825, 0.821249999999996,376.245819091797
0.0338324033333333, 240.052964405248, -0.00104798236090934, 0.840000000000007,378.529083251953
0.0344994, 240.066439846187, -0.00117836331202184, 0.856250000000003,378.529083251953
0.03516562, 240.080383728731, -0.00107131818883476, 0.872499999999998,380.191284179688
0.035832465, 240.093891435565, -0.000802692181645728, 0.888750000000049,382.757965087891
0.0364991733333333, 240.107389219975, -0.000441961800758452, 0.906249999999997,379.166748046875
0.03716572, 240.121478878451, -0.000480608859521564, 0.922500000000048,385.54296875
0.0378324083333333, 240.135212503407, -0.000373424243301219, 0.939999999999996,385.54296875
0.0384992166666667, 240.148564341668, -0.000219714963927827, 0.955000000000039,376.72998046875
0.0391673183333333, 240.162297020458, -0.000292537806149062, 0.971250000000035,379.560729980469
0.0398323933333333, 240.176028127303, -0.00044026238609075, 0.988750000000038,378.516632080078
0.040499275, 240.189878016515, -0.000719375866535212, 1.00625000000004,454.110382080078
0.0411656966666667, 240.203633155792, -0.000816348995696596, 1.02250000000004,378.539642333984
0.0418325383333333, 240.217455647931, -0.00110724438432653, 1.04000000000004,378.539642333984
0.04250013, 240.230835205062, -0.00113314208347278, 1.05500000000003,384.011779785156
0.0431657433333333, 240.24402543674, -0.00112122518202725, 1.07125000000002,383.997955322266
0.0438329283333333, 240.257317067967, -0.000951987182692676, 1.09000000000004,376.041595458984
0.044499405, 240.270569087688, -0.000947721396967172, 1.10625000000003,376.041595458984
0.0451656216666667, 240.283477420913, -0.000657890954854834, 1.12250000000003,378.554229736328
0.0458329966666667, 240.296870388741, -0.000593920668034431, 1.14000000000003,389.458099365234
0.0464993766666667, 240.309813057616, -0.000568903424661674, 1.15625000000003,380.191314697266
0.04716567, 240.322200681122, -0.000477510015258097, 1.17250000000002,385.381805419922
0.047832405, 240.334677641803, -0.000362282802984713, 1.18875000000002,385.381805419922
0.048499195, 240.346887903703, -0.000408074002955788, 1.20625000000002,388.6220703125
0.0491676116666667, 240.358954073364, -0.00045721303474754, 1.22125000000001,389.143524169922
0.049832655, 240.370918003009, -0.000416418083792628, 1.24000000000002,394.415740966797
0.050499735, 240.38321465962, -0.000608015460053557, 1.25500000000001,390.156127929688
0.0511661633333333, 240.395172272977, -0.000516931035140815, 1.27125,390.156127929688
0.0518329066666667, 240.407597962628, -0.000804493591172852, 1.2875,388.699462890625
0.0524990866666667, 240.41932050636, -0.000980223264451193, 1.305,399.712707519531
0.053165835, 240.431563633565, -0.00143088162830251, 1.32125,399.377868652344
0.0538325766666667, 240.44302662883, -0.00152088160770166, 1.33750000000005,387.453857421875
0.0544992616666667, 240.454431844781, -0.00151232603748145, 1.35375000000004,387.453857421875
0.0551660416666667, 240.46563453082, -0.00175528083410913, 1.37000000000004,383.969451904297
0.0558324, 240.477037643471, -0.00165050509688424, 1.38625000000003,383.920349121094
0.056499365, 240.488084735796, -0.00141457444744851, 1.40250000000003,390.967590332031
0.05716579, 240.499269617198, -0.00129791330721181, 1.42000000000003,473.457702636719
0.0578333316666667, 240.510632919495, -0.00154035812943611, 1.43625000000003,393.119018554688
0.0584995616666667, 240.521232620188, -0.000954003081473229, 1.45250000000002,393.119018554688
0.0591657233333333, 240.532041663932, -0.000891133739356103, 1.46750000000001,382.773162841797
0.0598325633333333, 240.543310361456, -0.000878399378962018, 1.48500000000001,395.511901855469
0.0604993266666667, 240.55486408622, -0.000970854735034388, 1.50250000000002,389.188232421875
0.0611660416666667, 240.566273366365, -0.000863968603834053, 1.51875000000001,389.188232421875
0.061832955, 240.578909848823, -0.00108550297636059, 1.53375,396.348907470703
0.0624993233333333, 240.591562486501, -0.00137983469237225, 1.55,392.072448730469
0.0631662966666667, 240.604380570948, -0.00126381851977774, 1.56625000000005,393.415679931641
0.0638324516666667, 240.617023580832, -0.000917409419558243, 1.58374999999999,377.290618896484
0.0644991833333333, 240.630248720143, -0.000919420818523077, 1.60000000000005,377.290618896484
0.0651658833333333, 240.643061688072, -0.000931678202850656, 1.61625000000004,380.708587646484
0.0658330983333333, 240.655926156783, -0.000743832138138642, 1.63625000000001,384.2568359375
0.0664992333333333, 240.66848636974, -0.000751759239970122, 1.65125000000005,424.394317626953
0.067166305, 240.681370456544, -0.000951361714131501, 1.66875,447.015289306641
0.0678337966666667, 240.693295257336, -0.000877914903273495, 1.68625,447.015289306641
0.0684995366666667, 240.704818193108, -0.000536032575689434, 1.70125000000004,447.813873291016
0.0691657566666667, 240.715986327312, -0.000292101328147714, 1.71875000000005,445.260040283203
0.0698324083333333, 240.726977406393, -0.000167943564447038, 1.73500000000004,447.022644042969
0.0704996116666667, 240.737643526685, -3.22858783912067E-05, 1.75250000000005,449.176971435547
0.0711659566666667, 240.748404576564, 2.24058744978407E-05, 1.76875000000004,449.176971435547
0.0718324616666667, 240.759486591165, -0.000404573178782215, 1.78500000000004,450.779327392578
0.0724990683333333, 240.770285079282, -0.000343716735554327, 1.80250000000004,444.363250732422
0.073165725, 240.780454092865, -0.000257670557562291, 1.82000000000004,449.682922363281
0.073832595, 240.79085337608, -0.000469704407324536, 1.83625000000004,537.022766113281
0.0744997433333333, 240.800832718234, -0.000417222043442807, 1.85375000000004,447.226470947266
0.075165825, 240.810224122974, -0.000497013535631807, 1.87000000000004,447.226470947266
0.0758325733333333, 240.819558483614, -0.000793049166063126, 1.88625000000003,459.275543212891
0.0764996433333333, 240.828701635778, -0.00108905029823317, 1.90125000000002,455.499664306641
0.07716578, 240.83801577433, -0.00122440649946269, 1.92000000000003,453.356170654297
0.077832455, 240.846829972317, -0.00138344351118787, 1.93500000000002,460.129119873047
0.0784993783333333, 240.856085837356, -0.00132420248679734, 1.95250000000002,460.129119873047
0.0791660333333333, 240.865021430216, -0.00126763282823661, 1.96875000000002,455.785461425781
0.0798325833333333, 240.87460455076, -0.00147117110471227, 1.98625000000002,465.059448242188
0.0804997683333333, 240.883304417267, -0.00158604583468712, 2.00250000000002,463.895721435547
0.0811658916666667, 240.892696619171, -0.00163549385096971, 2.01875000000001,463.895721435547
0.0818331133333333, 240.901756589327, -0.00186034905669892, 2.03500000000001,459.748901367188
0.082499385, 240.911041103952, -0.00181089654064312, 2.05125,464.036895751953
0.0831664116666667, 240.920178928068, -0.00163485038325193, 2.06875000000001,461.909332275391
0.0838332283333333, 240.929370688116, -0.00113713188315059, 2.085,461.841003417969
0.0844993033333333, 240.939120201619, -0.00116046321121779, 2.10250000000001,461.841003417969
0.085165875, 240.949015829767, -0.00104728189621302, 2.11749999999999,459.99072265625
0.0858325233333333, 240.95883532964, -0.00117710787519004, 2.135,454.054962158203
0.086500755, 240.968920428718, -0.00116541896231757, 2.15125000000005,457.88525390625
0.0871659833333333, 240.978878740178, -0.00125932024572722, 2.16750000000004,454.340881347656
0.087833185, 240.988650041441, -0.00110842482506569, 2.18375000000004,454.340881347656
0.088501115, 240.998175300991, -0.0010226906314133, 2.20000000000004,448.174682617188
0.0891674666666667, 241.007893975217, -0.00120761334295326, 2.21625000000003,450.53857421875
0.0898344783333333, 241.016913155657, -0.000988747336365203, 2.23250000000003,450.001098632813
0.0904999166666667, 241.026099632299, -0.000968945330971483, 2.24625000000001,545.569091796875
0.0911665483333333, 241.032790455926, -0.000962597649812937, 2.26625000000003,692.44580078125
0.0918332316666667, 241.040456424919, -0.000762495700719002, 2.28250000000002,692.44580078125
0.0925011916666667, 241.048397341053, -0.000476418070101239, 2.29875000000002,716.355895996094
0.093167765, 241.056727909208, -0.000433227739513004, 2.31500000000001,715.543579101563
0.0938342166666667, 241.065167601684, -0.000379093958608239, 2.33125000000001,718.473449707031
0.0945006916666667, 241.075662804484, -0.000285521158664155, 2.34875000000001,718.473449707031
0.095165875, 241.086004578346, -0.000272099832808361, 2.36500000000001,713.195251464844
0.0958341383333333, 241.096363103558, -0.000308041027522914, 2.38125,728.880920410156
0.0965011616666667, 241.106841907926, -0.000326100120419982, 2.39875000000001,716.502624511719
0.0971673683333333, 241.11738810433, -0.000435213639741728, 2.415,722.667724609375
0.0978350566666667, 241.128163498046, -0.00050957240476444, 2.43125,722.667724609375
0.098499325, 241.138017236866, -0.000505813593572253, 2.44750000000005,717.653442382813
0.0991691983333333, 241.147987502138, -0.000353496244321388, 2.465,725.158630371094
0.099833245, 241.157391911926, -0.00017633564290729, 2.48125000000005,721.1396484375
0.100501295, 241.167722946068, -0.000164363244280093, 2.49874999999999,725.649780273438
0.101165846666667, 241.177732590327, -0.000313620747238213, 2.51500000000005,725.649780273438
0.101832528333333, 241.188046767414, -0.00042091935773446, 2.53125000000004,714.655883789063
0.10249933, 241.197787025382, -0.000447565519349221, 2.54750000000004,720.175354003906
0.103166028333333, 241.207767538304, -0.000326746587965311, 2.56375000000003,718.401489257813
0.103833271666667, 241.217351690973, -0.000523467706880442, 2.58125000000003,719.615295410156
0.10450002, 241.22688410326, -0.000250646410391606, 2.59875000000004,719.615295410156
0.105166455, 241.236543790841, -0.000211400881621561, 2.61500000000003,723.689025878906
0.10583254, 241.246608865834, -0.000277573057848521, 2.63125000000003,717.993835449219
0.106499273333333, 241.25634223438, -0.000725200073992005, 2.64875000000003,718.999755859375
0.107165851666667, 241.266095424878, -0.000427223541042803, 2.66625000000004,725.210327148438
0.107832503333333, 241.276175897199, -0.000612900714685132, 2.68125000000002,716.691467285156
0.108499933333333, 241.285783412121, -0.000614430637831504, 2.70000000000004,716.691467285156
0.10916588, 241.295476821619, -0.000675140088467873, 2.71625000000003,715.236267089844
0.109833148333333, 241.30535711427, -0.000626082052636405, 2.73125000000002,716.559936523438
0.110500836666667, 241.314630991865, -0.000487469515017311, 2.74875000000002,721.973449707031
0.11116648, 241.324151715106, -0.000319648944435103, 2.76625000000003,721.973449707031
0.111834551666667, 241.333690013745, -0.000519885886746585, 2.78250000000002,717.047973632813
0.112499196666667, 241.343347649727, -0.000293464759642816, 2.79875000000002,719.24658203125
0.113165916666667, 241.353352919567, -0.000251060389548159, 2.81500000000001,717.885192871094
0.113832546666667, 241.363135935191, -0.000490061384768715, 2.83250000000002,730.863098144531
0.1144992, 241.372991887277, -0.00022892150155159, 2.8475,730.863098144531
0.115166015, 241.383144316562, -0.000190763418207702, 2.86375,715.40283203125
0.115832506666667, 241.392614070504, -0.000250445420457807, 2.88125,716.651123046875
0.116499835, 241.402050822969, -0.000196793115328995, 2.8975,721.575927734375
0.117167381666667, 241.41187293665, -0.000134714233521166, 2.91375000000005,720.619567871094
0.117834426666667, 241.421508585376, -0.000341628840381165, 2.9325,722.658996582031
0.1186664, 241.435434839501, -0.000494787647328527, 2.95125000000002,723.203369140625
0.11933404, 241.44548721325, -0.000227792058263395, 2.96750000000001,723.203369140625
0.11999974, 241.4553786746, -0.000371628833471708, 2.98375000000001,718.907470703125
0.120666338333333, 241.466091788793, -0.000434441178482764, 3,714.118041992188
0.121333155, 241.476345150259, -0.000419554426229938, 3.01750000000001,718.303039550781
0.121999818333333, 241.487027208217, -0.000205312687363524, 3.03375,718.303039550781
0.122665841666667, 241.497810643158, -0.00071208773260579, 3.05,715.557067871094
0.123333888333333, 241.509199106122, -0.000853550127122426, 3.06625000000005,865.566711425781
0.123999791666667, 241.520052699142, -0.000845167048187339, 3.08250000000004,720.503356933594
0.124666188333333, 241.530846277981, -0.00068699249314281, 3.09875000000004,717.603271484375
0.125333168333333, 241.541819686203, -0.000372671281208275, 3.11500000000003,724.329711914063
0.12599942, 241.553394425695, -8.64376583888109E-05, 3.13125000000003,724.329711914063
0.126666405, 241.564733764301, 0.000112954826356112, 3.14750000000003,719.337768554688
0.127332776666667, 241.576189358539, 0.000438682965375308, 3.16500000000003,725.377014160156
0.12799932, 241.588873636175, 0.000352284305105998, 3.18125000000002,727.136169433594
0.128665841666667, 241.601180305813, 0.000329135967816004, 3.19875000000003,727.136169433594
0.129333226666667, 241.614152697844, 0.000430656868533213, 3.21500000000002,716.702331542969
0.129999363333333, 241.628252267296, 0.000556365554321907, 3.23125000000002,721.225158691406
0.130665803333333, 241.643438413565, 0.000382471788831965, 3.24750000000001,813.889038085938
0.131332568333333, 241.658284770707, 0.000109140517961005, 3.26500000000002,854.699401855469
0.131999545, 241.673217135321, -7.8795542215204E-05, 3.28250000000002,854.699401855469
0.132666783333333, 241.687486576036, -0.000276610106211597, 3.29875000000002,859.597412109375
0.133333275, 241.700818459107, -0.000644330136008284, 3.31500000000001,862.855285644531
0.133999218333333, 241.713848580268, -0.00084602800490108, 3.33250000000002,863.754028320313
0.13466583, 241.727078182461, -0.000721082780782423, 3.35000000000002,862.333923339844
0.135333165, 241.740296439951, -0.000670877302569921, 3.36500000000001,869.763732910156
0.136000033333333, 241.753871722939, -0.000948411362320195, 3.38250000000001,869.763732910156
0.136666428333333, 241.767412078341, -0.000634543127597952, 3.39875000000001,876.274963378906
0.137333011666667, 241.780918039034, -0.000890832254466032, 3.41625000000001,866.383483886719
0.13800055, 241.794292825265, -0.00106173667011018, 3.43250000000001,864.44384765625
0.138667691666667, 241.807636587911, -0.00102539649546186, 3.44875,866.37646484375
0.139333971666667, 241.820992125099, -0.000800787277356034, 3.46750000000001,866.37646484375
0.139999266666667, 241.834899311364, -0.00111090570047502, 3.48375000000001,1040.67028808594
0.140665963333333, 241.847891530638, -0.000815671029823815, 3.49874999999999,851.003967285156
0.141333045, 241.861288595619, -0.000609951862861991, 3.51500000000005,870.715881347656
0.141999221666667, 241.874749448228, -0.000906980443397047, 3.53375,864.445434570313
0.142666433333333, 241.888210489977, -0.000929306821986531, 3.54875000000004,864.445434570313
0.14333304, 241.901148093842, -0.000756221515856216, 3.56625000000005,862.341979980469
0.143999763333333, 241.914816885659, -0.00108019474300479, 3.58250000000004,860.738525390625
0.144667035, 241.928090410289, -0.00129490745821884, 3.60125,855.338195800781
