Time (min), Depth (µm), Load (N), Position (µm), Acoustic (aJ)
9.41333333333333E-06, 228.292391489357, 0.000335874622588121, 0,672.953186035156
0.000664446666666667, 228.292441070903, 0.000383153747822277, 0.00500000000000001,672.953186035156
0.00133085333333333, 228.293141880644, 0.000444010191050165, 0.02,674.18896484375
0.00199735833333333, 228.295204457645, 0.000525802582690668, 0.03625,671.054504394531
0.00266396666666667, 228.299487753125, 0.000646159537273358, 0.05,675.843994140625
0.00333053666666667, 228.305424709554, 0.00050401317714382, 0.0625,680.869750976563
0.00399712333333333, 228.313330301661, 0.000820917259410863, 0.07625,811.467468261719
0.00466385833333333, 228.322616339028, 0.000606917008415882, 0.09125,811.467468261719
0.00533049333333333, 228.333453626879, 0.000344479690398652, 0.105,681.240356445313
0.00599720166666667, 228.344313787041, 0.000178507027063831, 0.1175,678.603515625
0.00666376833333333, 228.355337160095, 0.000102061866834869, 0.13125,681.689514160156
0.00733052166666667, 228.365882717562, 0.000215004693817009, 0.145,681.689514160156
0.00799765833333333, 228.376771021799, 0.000314472197686093, 0.1575,676.023010253906
0.00866374, 228.387187477484, 0.000380131399639614, 0.17125,683.450622558594
0.00933056, 228.397862454906, 0.000302147316675351, 0.185,674.202087402344
0.00999712833333333, 228.408197337609, 0.000219751955297213, 0.1975,543.222778320313
0.0106644533333333, 228.418749092612, 4.87575441676132E-05, 0.21125,543.222778320313
0.0113305166666667, 228.429691308276, -4.5050743907782E-05, 0.225,676.710815429688
0.011997075, 228.44104209385, -7.62296778130811E-05, 0.2375,671.299011230469
0.0126650283333333, 228.4515325942, 0.000298492000288243, 0.25125,677.920043945313
0.0133316916666667, 228.462214221318, 0.000606731017789878, 0.26375,544.769104003906
0.0139971233333333, 228.472620081555, 0.000712121724147624, 0.27625,544.769104003906
0.0146641433333333, 228.481556604929, 0.000558395945605796, 0.29,668.481384277344
0.0153314516666667, 228.489132593629, 0.000755304555113843, 0.30375,673.227478027344
0.0159980233333333, 228.497257233276, 0.000436908047853017, 0.31625,665.920532226563
0.0166668933333333, 228.504816526667, 0.000298499499952767, 0.33,677.693237304688
0.0173306416666667, 228.513235259582, 1.09609427324357E-05, 0.3425,677.693237304688
0.0179976533333333, 228.522450442945, 0.000111476893929429, 0.355,670.141906738281
0.01866584, 228.531587018328, 0.000132912317253346, 0.36875,672.733337402344
0.019331225, 228.541249413029, 0.000247310071161696, 0.3825,680.208801269531
0.0199972666666667, 228.551288524944, 0.000191059896562614, 0.395,686.9345703125
0.0206646133333333, 228.561294860679, 0.000337796026131268, 0.40875,821.746948242188
0.021331205, 228.571326284243, 0.000461796297727094, 0.42125,821.746948242188
0.02199715, 228.582303509966, 0.000426954547833925, 0.435,686.63720703125
0.0226642733333333, 228.593354108072, 0.000167827563506037, 0.4475,691.592834472656
0.0233305983333333, 228.604419777872, 0.0002190379912175, 0.46125,695.980895996094
0.02399731, 228.615118047415, 3.93245180439756E-05, 0.475,695.980895996094
0.0246647016666667, 228.626108501799, -0.000327885537391841, 0.4875,709.145446777344
0.025330585, 228.636769473639, -0.000340334912085545, 0.50125,696.449157714844
0.0259979283333333, 228.647329592723, -0.000116624148846054, 0.515,704.71435546875
0.0266640133333333, 228.658237691727, -0.000408495988432545, 0.52875,711.053833007813
0.0273313583333333, 228.669873456083, -0.000794828583358627, 0.54125,711.053833007813
0.02799729, 228.681347586026, -0.000608635435657815, 0.555,706.359924316406
0.028663905, 228.693380676683, -0.00084518105422641, 0.56875,706.383422851563
0.0293308683333333, 228.705108515968, -0.00108402305743897, 0.5825,707.189453125
0.0299972583333333, 228.717059180157, -0.00123766334020479, 0.595,704.513244628906
0.03066395, 228.728119554956, -0.00070288020179832, 0.60875,704.513244628906
0.0313304966666667, 228.739398380127, -0.000658369937480169, 0.62125,714.343872070313
0.0319971733333333, 228.750586678195, -0.000623067710667675, 0.635,707.137451171875
0.0326639333333333, 228.761411820412, -0.000281720856159339, 0.64875,708.277587890625
0.03333053, 228.772373679121, 1.22928758363237E-05, 0.6625,709.485046386719
0.0339972683333333, 228.783513017183, 8.51427166543088E-05, 0.675,709.485046386719
0.03466461, 228.794722805796, 3.69066395233502E-05, 0.68875,709.179260253906
0.0353304833333333, 228.80579692834, -0.000100964935355517, 0.7025,709.204345703125
0.0359971966666667, 228.81747236133, -0.000219272992884545, 0.71625,705.192138671875
0.03666396, 228.828824074874, -3.14164287229634E-05, 0.72875,711.472717285156
0.037330505, 228.840760852867, -0.000262568318223517, 0.7425,702.640991210938
0.03799733, 228.852346288393, -0.000321456860315519, 0.75625,702.640991210938
0.0386647983333333, 228.864397407268, -0.000159745482869231, 0.77,716.836242675781
0.0393312316666667, 228.875740017309, -0.000577927478015139, 0.7825,708.903442382813
0.0399972433333333, 228.88736318655, -0.000903217639044821, 0.795,709.4326171875
0.04066405, 228.898209439466, -0.000873597126849556, 0.80875,709.4326171875
0.0413324333333333, 228.90926285036, -0.000853213150702355, 0.8225,717.177062988281
0.0419986966666667, 228.919955826098, -0.000788345908918771, 0.83625,715.060974121094
0.0426639716666667, 228.931525746696, -0.000574044173054973, 0.85,711.263793945313
0.0433305733333333, 228.942284317987, -0.000564942630288218, 0.8625,714.779846191406
0.0439972166666667, 228.953467019146, -0.000433567229126327, 0.87625,710.858703613281
0.0446646566666667, 228.964771533956, -0.000708363926394319, 0.88875,710.858703613281
0.0453306666666667, 228.975907750633, -0.000759547355509032, 0.9025,709.167785644531
0.0459971666666667, 228.986773496414, -0.000545190122463568, 0.91625,706.052978515625
0.0466641133333333, 228.997988566282, -0.000424630678001422, 0.92875,712.832641601563
0.047330615, 229.009699613232, -0.000327600551733968, 0.9425,712.832641601563
0.047997365, 229.021023975597, -0.00018054943793436, 0.955,707.036682128906
0.0486639233333333, 229.032124047083, -0.000207015608599475, 0.96875,703.441040039063
0.0493304916666667, 229.043591943406, -0.000603753180896301, 0.9825,700.984497070313
0.04999781, 229.054968680367, -0.00042397071122148, 0.995,708.377380371094
0.0506639733333333, 229.06564982335, -0.000525845594119112, 1.00875,708.377380371094
0.0513306766666667, 229.076337371891, -0.000610241854991261, 1.0225,705.342651367188
0.0519974733333333, 229.087526231703, -0.000728791400349214, 1.035,704.556213378906
0.0526641166666667, 229.097732752022, -0.000459908906023464, 1.04875,695.125122070313
0.0533313883333333, 229.108225556241, -0.000634089157159444, 1.06125,698.560668945313
0.05399735, 229.118805264664, -0.000903294135253149, 1.075,692.761657714844
0.0546646633333333, 229.129477600225, -0.000908932352083938, 1.0875,692.761657714844
0.0553305, 229.139670632907, -0.000924816554256217, 1.10125,698.49609375
0.0559972833333333, 229.150384255117, -0.00132304505164368, 1.11375,702.515563964844
0.05666472, 229.160252185527, -0.00132559942332751, 1.1275,699.271484375
0.0573306716666667, 229.169777798643, -0.00118744736258523, 1.14,699.271484375
0.05799771, 229.179048939684, -0.00102306311942725, 1.15375,698.63330078125
0.058664025, 229.187968517252, -0.000883036152862093, 1.1675,698.827209472656
0.0593314433333333, 229.196271329852, -0.00071616803446724, 1.18,704.857604980469
0.0599973816666667, 229.204787960812, -0.000706300030139133, 1.19375,703.259704589844
0.0606639233333333, 229.213367435098, -0.000702238234153726, 1.20625,703.259704589844
0.061330475, 229.221386674194, -0.000433361739546843, 1.22,702.162170410156
0.0619974766666667, 229.229664141096, -0.00036786452940762, 1.2325,708.780090332031
0.062663815, 229.238062397855, -0.00051371720337523, 1.24625,703.539916992188
0.0633312783333333, 229.246884646503, -0.000846211502525243, 1.25875,708.889892578125
0.0639977916666667, 229.2551175965, -0.000854756573295882, 1.2725,708.889892578125
0.06466385, 229.263592200877, -0.0010937635682353, 1.285,712.225036621094
0.0653309316666667, 229.272120134206, -0.00110890980747366, 1.3,708.241455078125
0.0659971616666667, 229.280327590765, -0.000734650106131044, 1.3125,704.760375976563
0.0666649633333333, 229.288109456033, -0.000461920305094569, 1.325,706.749084472656
0.0673312116666667, 229.296505059929, -0.000376669087185038, 1.33875,706.749084472656
0.0679971833333333, 229.304797964224, -0.000360607893911921, 1.3525,708.185791015625
0.06866421, 229.312761861624, -0.00041235679456917, 1.36625,700.88330078125
0.0693309083333333, 229.321061537998, -0.00027291479862755, 1.37875,702.702819824219
0.06999776, 229.32961259297, -0.000603402198564684, 1.39375,706.411865234375
0.0706645916666667, 229.338552428507, -0.000781455255126245, 1.40625,714.479553222656
0.071331315, 229.346933096608, -0.000996170970210359, 1.42,714.479553222656
0.0719975683333333, 229.355069012919, -0.000794780585841485, 1.43375,708.666198730469
0.072664025, 229.362835558073, -0.000895373033183045, 1.44625,716.109191894531
0.0733313583333333, 229.370047969761, -0.000451174844799269, 1.46,708.631958007813
0.0739988116666667, 229.376535599777, -0.000398497490745117, 1.4725,708.631958007813
0.0746644833333333, 229.383640718046, -0.000168259055418688, 1.4875,708.526489257813
0.0753316083333333, 229.390648036739, -0.000461534824480423, 1.5,711.882934570313
0.0759971816666667, 229.397498149707, -0.00055021037041896, 1.5125,713.142150878906
0.0766638083333333, 229.404569966751, -0.000588038470372877, 1.52625,711.757141113281
0.0773312483333333, 229.411436051733, -0.00040827699957594, 1.54,711.757141113281
0.07799796, 229.418132513395, -0.000529337418831282, 1.55375,709.176818847656
0.0786643483333333, 229.425000400257, -0.000355382156419552, 1.5675,706.001953125
0.0793304733333333, 229.431415203202, -0.000394899171506586, 1.58125,708.018798828125
0.0799972333333333, 229.438527387975, -0.000590253859056554, 1.59375,711.812194824219
0.0806645616666667, 229.445794947653, -0.000793508649777489, 1.6075,711.812194824219
0.0813305066666667, 229.453226567404, -0.000521597807571463, 1.62,713.822875976563
0.0819972366666667, 229.460661944115, -0.00058236875512962, 1.63375,715.298828125
0.0826639533333333, 229.469082608401, -0.000551224319485596, 1.6475,711.539489746094
0.0833307183333333, 229.477144003891, -0.000499509917025859, 1.66125,713.978881835938
0.08399777, 229.485099405605, -0.000266675112047293, 1.67375,713.978881835938
0.0846639583333333, 229.493838187269, -0.000550502855677596, 1.6875,701.071838378906
0.0853313033333333, 229.503129538382, -0.00118172215013905, 1.70125,707.8916015625
0.0859973366666667, 229.512606603856, -0.0016876287389818, 1.715,706.16748046875
0.0866640816666667, 229.521674084927, -0.00194224095011199, 1.72625,849.431518554688
0.087331325, 229.531336042017, -0.00216502026014828, 1.74,709.024963378906
0.0879973233333333, 229.540329787839, -0.00236107691242524, 1.755,709.024963378906
0.0886647616666667, 229.549511278759, -0.00177373041424052, 1.7675,715.6201171875
0.0893313066666667, 229.558456359857, -0.00163147605955395, 1.78,715.653198242188
0.0899971583333333, 229.56754066317, -0.00145026716149532, 1.79375,717.17041015625
0.0906645266666667, 229.575829629461, -0.00144418646692306, 1.8075,717.17041015625
0.0913311783333333, 229.584588568646, -0.00131471597009338, 1.82125,715.276062011719
0.0919972333333333, 229.592801018579, -0.00138320552996971, 1.83375,709.22412109375
0.0926647933333333, 229.601219452372, -0.00121000622956349, 1.84625,717.04931640625
0.093331375, 229.609223708683, -0.00136396899616103, 1.86,717.858215332031
0.093997205, 229.617679218824, -0.00116363455874208, 1.8725,717.858215332031
0.0946643616666667, 229.625548196643, -0.000976121477311356, 1.88625,717.571533203125
0.0953310483333333, 229.633877789673, -0.00111841782994498, 1.9,718.128051757813
0.0959971816666667, 229.641658638339, -0.00106045024160661, 1.91375,710.332214355469
0.0966638083333333, 229.650198325767, -0.000944582561506767, 1.92625,704.390075683594
0.0973304833333333, 229.658259178552, -0.00115098869395155, 1.94,704.390075683594
0.0979971916666667, 229.665965460145, -0.00103012926456625, 1.9525,715.671447753906
0.0986645216666667, 229.673330701948, -0.000744926090024362, 1.96625,711.220703125
0.0993306133333333, 229.680910884464, -0.00098896683215379, 1.98,709.891662597656
0.099997145, 229.688146113221, -0.000858263397294592, 1.99125,708.590576171875
0.100664738333333, 229.695558954985, -0.00076732296516707, 2.005,705.634155273438
0.101331276666667, 229.704018550646, -0.00114046372273482, 2.01875,705.634155273438
0.101997198333333, 229.711410561172, -0.00111386105894901, 2.0325,706.446899414063
0.102664621666667, 229.718821261616, -0.000906653966724103, 2.04625,706.219787597656
0.103331091666667, 229.725909867112, -0.000880232793833593, 2.05875,852.382263183594
0.103997163333333, 229.733337668484, -0.00112432453337148, 2.07125,709.484008789063
0.104664686666667, 229.740030530515, -0.00117274060143083, 2.085,709.484008789063
0.105331055, 229.747384740025, -0.00136005719272222, 2.09875,713.601867675781
0.1059976, 229.754912768568, -0.00148343349568127, 2.11125,706.684814453125
0.106663825, 229.762379830009, -0.00147375148197917, 2.12375,712.881713867188
0.10733059, 229.7693303045, -0.00132485396092034, 2.1375,712.881713867188
0.107997155, 229.775991893634, -0.00105387007216556, 2.15125,701.9794921875
0.10866395, 229.782853642477, -0.000840147307206437, 2.165,696.007019042969
0.109330731666667, 229.789706913147, -0.000555661096656834, 2.1775,700.152038574219
0.109997138333333, 229.796492221132, -0.000501191332621977, 2.19125,704.353332519531
0.110664698333333, 229.803453286362, -0.000280976893782848, 2.20375,707.5146484375
0.111331338333333, 229.810412849779, -0.000259977948545296, 2.21875,707.5146484375
0.11199722, 229.817661497428, -0.00021212435220093, 2.23125,701.527954101563
0.11266395, 229.824530099051, -0.000195017711427455, 2.245,708.451965332031
0.113330471666667, 229.830998888917, -0.000121654896357285, 2.2575,703.159729003906
0.11399753, 229.837774228706, 2.78230955306222E-05, 2.27125,703.159729003906
0.114663818333333, 229.844946569765, 0.000108597038331281, 2.285,701.557189941406
0.115330545, 229.851387397146, 0.000197616067021926, 2.29875,708.144348144531
0.115997515, 229.858581734635, 4.29498357304774E-05, 2.3125,710.651123046875
0.116663841666667, 229.865505518831, -7.70030765487087E-08, 2.325,703.201232910156
0.117330838333333, 229.872402849682, -0.00013801007485595, 2.33875,703.201232910156
0.117997465, 229.879165244718, -0.000434093702868174, 2.35125,699.029418945313
0.118664143333333, 229.886469229823, -0.000734072635257044, 2.365,708.262145996094
0.119331136666667, 229.892898848485, -0.000702712210456443, 2.37875,703.44140625
0.119997563333333, 229.900126492603, -0.000726300025617846, 2.39125,846.767028808594
0.120663835, 229.906659494717, -0.000643742672382902, 2.405,699.628051757813
0.121330686666667, 229.913761710178, -0.000251336882506578, 2.41875,699.628051757813
0.121997175, 229.920186634745, 5.38722871691239E-05, 2.43125,702.623352050781
0.122664358333333, 229.927621451877, 4.83435648622811E-05, 2.445,707.458435058594
0.12333118, 229.934220724625, 0.00027262579938443, 2.45875,699.676452636719
0.12399782, 229.941993657948, 0.000107004118359972, 2.4725,699.676452636719
0.124663826666667, 229.948798085017, 1.25313636251546E-05, 2.48625,701.449096679688
0.125330628333333, 229.956597479213, -0.000213663274872468, 2.49875,703.1474609375
0.125997545, 229.963507977011, -0.000208959511114942, 2.51125,701.627319335938
0.126664098333333, 229.971667397138, -0.000377254057851088, 2.525,699.4208984375
0.127330616666667, 229.978751650081, -0.000422572781507611, 2.53875,699.4208984375
0.127997503333333, 229.986728187023, -0.000593531194451533, 2.55125,698.81640625
0.12866386, 229.994534911552, -0.000542925236338345, 2.565,703.551391601563
0.12933052, 230.002077385706, -0.00027192784828519, 2.57875,697.608703613281
0.129997138333333, 230.00961044885, -0.000481017345954995, 2.59125,696.914916992188
0.130663811666667, 230.017197989311, -0.000371621840781674, 2.605,696.914916992188
0.131330686666667, 230.02461612531, -0.000433811717059107, 2.61875,692.526123046875
0.131997666666667, 230.03231538197, -7.71161960688515E-06, 2.63125,695.221069335938
0.13266478, 230.040137260871, -0.000216301642301626, 2.64625,693.226013183594
0.133330516666667, 230.047570637914, 1.01044855581097E-05, 2.6575,689.621398925781
0.133997536666667, 230.055328906346, -8.5895192474273E-05, 2.67125,689.383117675781
0.134664593333333, 230.062704698573, 0.000147610078776312, 2.685,689.383117675781
0.13533057, 230.069728545266, -3.09394528902522E-05, 2.6975,689.675415039063
0.135997791666667, 230.076597469358, 0.000176092148073201, 2.71125,689.294982910156
0.136663838333333, 230.083420382518, 0.000132781823511451, 2.72375,682.63525390625
0.137331063333333, 230.090668197, 0.000408601469413752, 2.73625,683.021484375
0.137997518333333, 230.098074556569, 0.000365654126642607, 2.75,683.021484375
0.138663803333333, 230.104644485318, 0.000452958741464025, 2.76375,689.371520996094
0.139331631666667, 230.111535119105, 0.000772121710243694, 2.77625,689.885986328125
0.139997655, 230.118798772282, 0.00077774192796039, 2.79,683.421813964844
0.140664425, 230.125354498135, 0.00102497000993559, 2.8025,683.380554199219
0.141330516666667, 230.132108361553, 0.000893935091676996, 2.81625,683.380554199219
0.141997505, 230.139389307138, 0.001029085803157, 2.83,686.155151367188
0.142665138333333, 230.146938243542, 0.000661850249048838, 2.8425,689.469543457031
0.143330485, 230.154461290947, 0.000844010099327904, 2.855,684.388244628906
0.14399751, 230.16216465472, 0.000764382098962621, 2.86875,684.388244628906
0.144664831666667, 230.170411848863, 0.000984299552727397, 2.8825,681.798950195313
0.145330486666667, 230.178685490928, 0.000674715102844752, 2.895,690.354370117188
0.145997886666667, 230.187589095167, 0.000536866026853188, 2.90875,690.273620605469
0.146664445, 230.195867415728, 0.000418115491561436, 2.92125,693.841186523438
0.147330501666667, 230.204015293096, 0.000199895952497452, 2.935,693.841186523438
0.147997476666667, 230.212260794553, -5.95976983838187E-07, 2.94875,687.465393066406
0.148663863333333, 230.221126989027, 0.000112031865852364, 2.96125,687.172119140625
0.149330496666667, 230.229545612237, 0.000111049415176943, 2.97625,688.020324707031
0.14999718, 230.238889272293, 2.00414863875124E-05, 2.9875,692.311096191406
0.1506647, 230.249198452893, -0.000301980338772356, 3.00125,692.311096191406
0.151330693333333, 230.25929462734, -0.000413228250902512, 3.015,681.139953613281
0.151997143333333, 230.269662702058, -0.000610025865962209, 3.0275,690.666259765625
0.152664716666667, 230.280232091992, -0.000994218068382268, 3.04125,833.773498535156
0.153331143333333, 230.291083513635, -0.00111620694101326, 3.055,686.185119628906
0.153997153333333, 230.301751450463, -0.00119915127482926, 3.0675,685.994506835938
0.154663831666667, 230.313016019971, -0.00151792576314598, 3.08125,685.994506835938
0.155330651666667, 230.323772649982, -0.00168669578598172, 3.095,688.008056640625
0.155997476666667, 230.334955742729, -0.00171692076781777, 3.1075,681.580627441406
0.156664213333333, 230.345400530063, -0.00167242250293735, 3.12125,680.581970214844
0.157331086666667, 230.355880034207, -0.00110456152601224, 3.135,680.404235839844
0.157997185, 230.365928210532, -0.000530300370531969, 3.14875,680.404235839844
0.158663823333333, 230.37656324456, -0.00037871798434497, 3.1625,684.945007324219
0.15933069, 230.386993930688, -0.000200894416217108, 3.175,679.868408203125
