Time (min), Depth (µm), Load (N), Position (µm), Acoustic (aJ)
8.87833333333333E-06, 217.854621994403, -0.000748566792100779, 0,107.265769958496
0.000665306666666667, 217.854103118179, -0.000750419199057614, 0.00125,107.265769958496
0.00133136833333333, 217.853698909626, -0.00080288806359846, 0.00374999999999998,106.988731384277
0.00199771666666667, 217.852431429944, -0.00100198506319343, 0.01125,105.774353027344
0.00266714666666667, 217.85059887086, -0.000866984344153753, 0.02,100.420799255371
0.00333240166666667, 217.847930034336, -0.000903113029461221, 0.02875,109.802452087402
0.00399758166666667, 217.84582547365, -0.000914297967670438, 0.03625,109.802452087402
0.00466431166666667, 217.843548533909, -0.00126231348720213, 0.0425,113.674011230469
0.00533090333333333, 217.841733861362, -0.00146063052591612, 0.05,105.959716796875
0.00599758, 217.841133604761, -0.00168024649485458, 0.05625,108.714149475098
0.006664445, 217.841177504972, -0.00165208990913195, 0.0625,109.994995117188
0.00733100833333333, 217.841324901822, -0.00166088546732044, 0.07,109.994995117188
0.00799780166666667, 217.84173477804, -0.00155892508868931, 0.0775,109.142921447754
0.00866423166666667, 217.843002404287, -0.00161129495821954, 0.08375,104.613418579102
0.00933081, 217.842594778805, -0.0013858832804092, 0.09125,103.58154296875
0.00999786333333333, 217.842321349192, -0.00116271398998555, 0.09625,103.58154296875
0.01066419, 217.842354854362, -0.0010789026997582, 0.10375,130.90852355957
0.011330835, 217.843098323095, -0.000912513057333004, 0.11,106.705223083496
0.0119977366666667, 217.843424320481, -0.000617588871054531, 0.11625,105.071723937988
0.0126644533333333, 217.846047703017, -0.000353926114566044, 0.12375,106.392776489258
0.0133311083333333, 217.84957164237, -0.000246904990126908, 0.13,105.716003417969
0.0139977183333333, 217.853255559984, -0.000402256686976916, 0.13625,105.716003417969
0.014664165, 217.857840946479, -0.000753176060663409, 0.1425,112.728950500488
0.0153307816666667, 217.862753713571, -0.000658398821232222, 0.15125,108.124313354492
0.0159979583333333, 217.867847740576, -0.000957170314242674, 0.1575,104.980697631836
0.0166642733333333, 217.873165724733, -0.00121430239877416, 0.16625,104.980697631836
0.017498175, 217.881598347749, -0.0010370008044449, 0.17125,112.246643066406
0.0181646616666667, 217.886961927752, -0.00128669176271533, 0.1775,112.246643066406
0.01883087, 217.892535980758, -0.00154636471961102, 0.18375,99.4221038818359
0.019497415, 217.89820152548, -0.00144174647446973, 0.19125,111.512756347656
0.0201643783333333, 217.903334082309, -0.00142643674349268, 0.19875,105.164848327637
0.0208308183333333, 217.908434949809, -0.00126636628366237, 0.205,105.468055725098
0.0214977633333333, 217.914152502662, -0.00122529684656291, 0.21125,105.468055725098
0.0221641433333333, 217.919650200062, -0.00110195504190764, 0.2175,109.379371643066
0.0228308416666667, 217.924847662163, -0.00100956718243342, 0.22375,105.832664489746
0.0234978983333333, 217.930723811298, -0.000937416306514875, 0.23125,111.939384460449
0.02416753, 217.936654581803, -0.000928166271104673, 0.2375,109.052032470703
0.0248307516666667, 217.942051206644, -0.000663144582851786, 0.24375,109.052032470703
0.0254977533333333, 217.947813189337, -0.000936870333883311, 0.25125,109.759292602539
0.026164315, 217.95395899565, -0.000798193299493623, 0.25875,105.875434875488
0.0268310383333333, 217.960281112632, -0.00112478389517222, 0.265,127.025611877441
0.0274976483333333, 217.96638891936, -0.00104610984689744, 0.27,106.395446777344
0.028164345, 217.972777539374, -0.00137377888843452, 0.27625,106.395446777344
0.0288308966666667, 217.978701695244, -0.000749205760045346, 0.285,108.041130065918
0.0294975566666667, 217.985090437892, -0.00090993018702175, 0.29125,106.689041137695
0.0301643366666667, 217.990444185543, -0.000659999240761785, 0.2975,110.660774230957
0.0308314933333333, 217.996885028297, -0.000725287961366447, 0.30625,107.534873962402
0.0314981633333333, 218.002917842238, -0.000465406514914942, 0.31125,107.534873962402
0.0321642833333333, 218.008957697237, -0.000656784902212997, 0.31625,103.117431640625
0.03283083, 218.014748757745, -0.000567776373035683, 0.3225,108.969062805176
0.0334978283333333, 218.021029932315, -0.000677494362019466, 0.33,111.08984375
0.0341656366666667, 218.026333098347, -0.000641866651547703, 0.33875,106.56175994873
0.0348313516666667, 218.033168743733, -0.000863389024700267, 0.3425,106.56175994873
0.0354978816666667, 218.039310172972, -0.00113816922277857, 0.35,106.996856689453
0.0361657966666667, 218.04623306774, -0.000992564036401259, 0.35625,111.544700622559
0.0368315416666667, 218.052331710194, -0.00100633784457683, 0.3625,111.097999572754
0.0374981016666667, 218.059085450805, -0.00106489940312767, 0.37,109.755729675293
0.038165465, 218.064681577665, -0.000762228105988619, 0.37625,109.755729675293
0.038831355, 218.071346665338, -0.000728680791025494, 0.3825,110.870742797852
0.0394979383333333, 218.077836823919, -0.000900917139773532, 0.39,107.557571411133
0.0401642433333333, 218.08520853291, -0.000805400437484015, 0.39625,104.315399169922
0.0408309016666667, 218.091728362656, -0.000643077090774927, 0.4025,106.971817016602
0.041497705, 218.098608929217, -0.000760048715426857, 0.40875,106.971817016602
0.0421642966666667, 218.104807627714, -0.00053681942796332, 0.41625,109.36580657959
0.04283229, 218.111250221503, -0.000562286648763324, 0.4225,103.199111938477
0.04349892, 218.117366046239, -0.000611866658393397, 0.43,129.725143432617
0.04416449, 218.124222613, -0.000755299953894725, 0.435,110.034820556641
0.0448307666666667, 218.130673587602, -0.000807915811048344, 0.4425,110.034820556641
0.0454980916666667, 218.137673152256, -0.0010074162903503, 0.45,110.953437805176
0.0461642616666667, 218.143325398754, -0.000832909055673157, 0.455,103.692428588867
0.046830865, 218.149425758795, -0.000423962096629657, 0.4625,110.022804260254
0.047498225, 218.154486457103, -0.000188370430172821, 0.46875,103.980224609375
0.0481647766666667, 218.161019215143, -5.76984937048366E-05, 0.47625,103.980224609375
0.0488308333333333, 218.167310014682, 0.000330134025858298, 0.4825,108.489791870117
0.0494988816666667, 218.174651819245, 0.000300937992354172, 0.48875,106.502395629883
0.050164785, 218.181693529126, 0.000192217453247333, 0.49625,108.995742797852
0.05083146, 218.189796486585, 0.000106658750771372, 0.5025,108.564743041992
0.0514982616666667, 218.196570127129, -6.41006988189587E-06, 0.5075,108.564743041992
0.0521650233333333, 218.203438313575, -0.000273653146537328, 0.515,111.039207458496
0.0528307233333333, 218.209896034892, -0.000518106367877652, 0.5225,107.405975341797
0.0534976483333333, 218.217004790997, -0.000536025967783964, 0.52875,108.867744445801
0.0541642433333333, 218.223311313871, -0.000423188135467543, 0.535,107.812683105469
0.0548309233333333, 218.229860367633, -0.000270999779757866, 0.54125,107.812683105469
0.0554976466666667, 218.236963177413, -0.000406198488861284, 0.54875,105.584701538086
0.056164335, 218.243445672187, 1.20390034875443E-05, 0.555,112.712379455566
0.0568322883333333, 218.24988567538, 9.99210892679792E-05, 0.56125,102.73722076416
0.057497655, 218.256916202563, 3.41778914628593E-05, 0.5675,103.657913208008
0.05816485, 218.263780073999, 0.000122206969877322, 0.575,103.657913208008
0.05883082, 218.27017789683, 0.000382469397169762, 0.58125,104.41722869873
0.059498985, 218.2774374946, -4.29827328339822E-05, 0.5875,109.964866638184
0.0601643916666667, 218.284091429529, -0.000341242751537907, 0.59375,123.915222167969
0.0608308166666667, 218.29039048109, -0.000442933143733939, 0.60125,109.635078430176
0.0614976866666667, 218.297013576291, -0.000355376541612773, 0.6075,109.635078430176
0.0621652316666667, 218.304052022019, -0.000339630332549356, 0.61375,109.480667114258
0.06283076, 218.310030176951, 9.95011103287965E-05, 0.62125,104.289527893066
0.0634981616666667, 218.316476840269, 0.000276669211343657, 0.6275,106.781044006348
0.0641652033333333, 218.323714354676, 0.000240095048424659, 0.63375,109.443313598633
0.0648307633333333, 218.330099030524, -0.000219276377857981, 0.64125,109.443313598633
0.06549826, 218.336512030502, -0.00012117080558085, 0.6475,105.214401245117
0.0661644216666667, 218.342993395726, -0.000248494910228156, 0.6525,111.557609558105
0.06683079, 218.349654746262, -0.000278728891568116, 0.66,107.67650604248
0.06749764, 218.355617288494, -0.000271917733641439, 0.66625,109.039253234863
0.0681644083333333, 218.362177819332, 1.79052088701365E-05, 0.6725,109.039253234863
0.0688308633333333, 218.368731473046, -0.000177156993357434, 0.68,106.833869934082
0.0694975683333333, 218.37572674842, -0.000195628565529161, 0.68625,107.119300842285
0.0701646016666667, 218.382286107172, -0.000573210599977595, 0.6925,107.188468933105
0.07083074, 218.388876717061, -0.000564865019195098, 0.69875,107.522094726563
0.071498045, 218.395344768846, -0.000595941958240976, 0.70625,107.522094726563
0.072164425, 218.401866699965, -0.000788415290502187, 0.7125,109.070915222168
0.07283136, 218.408080118839, -0.000764426995418844, 0.71875,114.4853515625
0.0734982933333333, 218.414279698558, -0.000291722738905219, 0.725,104.941673278809
0.0741642816666667, 218.420536055899, -0.000580734222165853, 0.7325,114.769874572754
0.074830905, 218.426993675259, -0.000550437243958448, 0.74,114.769874572754
0.0754977033333333, 218.432649536874, -0.00027724396619635, 0.745,105.715187072754
0.0761648333333333, 218.439011951636, -0.000309517845107314, 0.75125,129.551788330078
0.0768315233333333, 218.444361965579, -0.000217818451061711, 0.75875,103.620719909668
0.0774978583333333, 218.450386085976, 0.000208050657968647, 0.765,116.657012939453
0.078164505, 218.456183736776, 0.000345964230709552, 0.77125,116.657012939453
0.078831295, 218.462343311435, 0.000300525513058259, 0.7775,106.105346679688
0.079497665, 218.468017601818, 0.000471267936845604, 0.785,107.514373779297
0.0801644866666667, 218.474549355186, 0.000724918696220763, 0.79125,108.533630371094
0.08083086, 218.480522527661, 0.000810202912488419, 0.7975,104.836860656738
0.0814974483333333, 218.486274965897, 0.00076415372549873, 0.80375,104.836860656738
0.08216411, 218.491789278578, 0.000880445884289714, 0.81,108.044578552246
0.08283135, 218.497643619646, 0.000727315575842251, 0.8175,103.409172058105
0.0834980483333333, 218.503283086207, 0.000250177541942432, 0.82375,107.824104309082
0.0841642216666667, 218.508433410891, 0.000174725331859712, 0.83,101.580383300781
0.0848310916666667, 218.513832199209, -0.000162513228985461, 0.83625,101.580383300781
0.0854977183333333, 218.519103189816, -0.00038203770249282, 0.84375,102.49633026123
0.0861642883333333, 218.524551734334, -0.000156603525795174, 0.85,107.82430267334
0.0868308966666667, 218.529970925472, 4.63302810609558E-05, 0.8575,105.71556854248
0.0874978416666667, 218.535901392113, 5.65702666835789E-05, 0.86375,103.468971252441
0.0881646416666667, 218.541729611655, 0.000507888597421103, 0.87125,103.468971252441
0.088830765, 218.548047408408, 0.000515196230346513, 0.8775,107.555358886719
0.0894977, 218.553634621662, 0.000318217124391513, 0.8825,107.812545776367
0.090164435, 218.55935976367, 0.000433994808984655, 0.89125,107.988105773926
0.0908308066666667, 218.564891380697, 0.000150960525512454, 0.8975,110.875946044922
0.0914983283333333, 218.571118578419, 4.94696233258187E-05, 0.90375,110.875946044922
0.0921643216666667, 218.576459536173, 0.000154338355906214, 0.91,106.085029602051
0.09283223, 218.583246325565, 4.62822834375433E-05, 0.91625,129.594207763672
0.093497785, 218.590048123411, -0.000291799235092293, 0.92375,107.944343566895
0.0941642316666667, 218.596907821614, -0.000311676236684922, 0.93,105.229667663574
0.0948315233333333, 218.603197439664, -0.000549619785052402, 0.93625,105.229667663574
0.0954980516666667, 218.610660308985, -0.000752241607568892, 0.94375,112.771873474121
0.0961647816666667, 218.616545458279, -0.000654548514587674, 0.95,103.769309997559
0.0968313116666667, 218.623091991843, -0.000553030613676763, 0.95625,105.231674194336
0.0974976966666667, 218.629364082028, -0.00022795344199736, 0.9625,107.373794555664
0.0981643283333333, 218.636296818758, 2.59397779864769E-06, 0.97,107.373794555664
0.0988309333333333, 218.642264708937, 0.00014207047204405, 0.97625,107.906623840332
0.09949919, 218.648950987378, 0.000226982706953428, 0.9825,103.075347900391
0.100165525, 218.655190396179, 0.0004367861687242, 0.99,108.240692138672
0.100830843333333, 218.661386224844, 0.000266793707266009, 0.99625,106.130332946777
0.101497681666667, 218.667262083934, 0.000109244620825163, 1.0025,106.130332946777
0.102164896666667, 218.6741425086, 0.000211362491561139, 1.00875,102.993759155273
0.102831365, 218.680901318846, 0.000328472109300677, 1.01625,108.568305969238
0.103497658333333, 218.68707791839, 0.000259771060083488, 1.0225,111.317436218262
0.104165601666667, 218.694105961673, 0.000485137740161734, 1.02875,108.68627166748
0.104830766666667, 218.700742796192, 0.000893153245980778, 1.03625,108.68627166748
0.105498336666667, 218.70737041322, 0.000732554812675502, 1.04125,109.171699523926
0.106164765, 218.713630288578, 0.000577504600673057, 1.04875,104.67391204834
0.106832288333333, 218.720721204964, 0.000557960582382969, 1.055,106.584884643555
0.10749762, 218.726951317974, 0.000319085580833541, 1.0625,111.934761047363
0.108164758333333, 218.733286184858, 0.000203036409859647, 1.07,111.934761047363
0.10883225, 218.739667137203, 0.000385367251563192, 1.075,108.139114379883
0.109498078333333, 218.745557313348, 0.000548599552566925, 1.08125,126.562103271484
0.110164363333333, 218.751483024375, 0.000863678226495138, 1.09,104.443000793457
0.11083076, 218.757226114817, 0.00140578849686552, 1.09375,102.790504455566
0.111498098333333, 218.763410449693, 0.00143604797698409, 1.10125,102.790504455566
0.112165533333333, 218.768915581388, 0.00109475661972119, 1.10875,108.677627563477
0.11283133, 218.775125523292, 0.000909581920860219, 1.115,108.474647521973
0.11349804, 218.780794470642, 0.000460624471515996, 1.1225,103.016510009766
0.114164918333333, 218.787183103054, -3.86014528869185E-05, 1.13,108.604545593262
0.114830706666667, 218.793042112572, -7.6180565347386E-05, 1.135,108.604545593262
0.115497688333333, 218.799460162066, 0.000131968479551543, 1.14125,112.757530212402
0.116165605, 218.805533858155, 0.000241492978266053, 1.1475,105.178810119629
0.116830791666667, 218.811909350601, 0.000336195221477076, 1.15625,107.112434387207
0.117497616666667, 218.818385871481, 0.000716346626895882, 1.16125,107.868759155273
0.11816468, 218.825056633342, 0.000269040594617204, 1.1675,107.868759155273
0.118831406666667, 218.831042352039, 0.000286733705917369, 1.17375,104.549949645996
0.119499365, 218.83758664765, 9.37054015419363E-05, 1.18125,105.469749450684
0.120164475, 218.843900791564, 5.3097941222447E-05, 1.1875,106.615142822266
0.120831428333333, 218.850264677723, -0.0002657365440704, 1.19375,102.686195373535
0.121498918333333, 218.856011545877, 0.000257963650986276, 1.20125,102.686195373535
0.12216423, 218.86232758922, 0.000170731032599976, 1.2075,106.921234130859
0.12283231, 218.868548152679, 0.000136645244669811, 1.215,113.207458496094
0.123497645, 218.874162630222, 0.000285395773094614, 1.22125,111.069496154785
0.124165533333333, 218.879533344588, 0.000340080026382899, 1.2275,109.839218139648
0.124830865, 218.885170409373, 6.24994689761244E-05, 1.23375,109.839218139648
0.125498856666667, 218.890731521028, 0.000138590646982156, 1.24125,104.860733032227
0.126164826666667, 218.896251550266, 3.34774266815215E-05, 1.2475,133.577880859375
0.126830753333333, 218.902463327589, 6.17270077596679E-05, 1.255,106.558662414551
0.12749751, 218.908278566471, -2.50436338891743E-05, 1.26,110.139442443848
0.128164363333333, 218.91456041691, 0.00010139701511458, 1.26625,110.139442443848
0.128832253333333, 218.920289657752, 1.83476865903516E-05, 1.275,102.026969909668
0.129498008333333, 218.926395756533, 0.000317716149683333, 1.28125,111.515739440918
0.13016448, 218.931557465741, 0.000342811389146314, 1.2875,105.676330566406
0.13083232, 218.937468706129, 0.000308559109607387, 1.29375,110.656814575195
0.13149759, 218.942887370529, 0.000166303254975158, 1.3,110.656814575195
0.132164353333333, 218.948717181513, 0.000202142454830289, 1.3075,105.053901672363
0.132831583333333, 218.953796458759, 0.00026044602629875, 1.3125,106.356971740723
0.133497571666667, 218.959999985406, -0.000131064308538796, 1.3225,102.896873474121
0.13416427, 218.964843433634, 5.31129404452255E-05, 1.3275,107.64241027832
0.134830841666667, 218.970382347675, 0.000184110360572479, 1.3325,107.64241027832
0.1354975, 218.975498314271, 0.000149354106327787, 1.33875,104.60034942627
0.13616451, 218.981506500721, -9.92959042367464E-05, 1.34625,110.135681152344
0.136830816666667, 218.98629773224, 4.75497198771078E-05, 1.3525,109.279594421387
0.13749901, 218.99227426995, -0.000261578752923184, 1.35875,112.03116607666
0.13816431, 218.99760957754, -0.000156080052029658, 1.36625,112.03116607666
0.138830761666667, 219.003754494663, -0.000196089042405977, 1.37375,101.852149963379
0.139497581666667, 219.008962250472, -0.000242960188159938, 1.38,107.495407104492
0.140164366666667, 219.01508129217, -0.000271496254820361, 1.38625,105.77645111084
0.14083077, 219.021096106296, -0.000347645929899374, 1.3925,113.11279296875
0.141497601666667, 219.026932827359, -0.000432000192866978, 1.39875,113.11279296875
0.142164301666667, 219.032353306268, -0.000397575422021676, 1.405,115.493881225586
0.142830851666667, 219.037848240624, -0.000140404339413194, 1.4125,129.901260375977
0.143498236666667, 219.043382106044, -0.000145012107987658, 1.41875,108.820274353027
0.144164953333333, 219.048169136262, -1.21412819619243E-05, 1.42625,105.900352478027
0.144831281666667, 219.054231642274, -0.000242241724243253, 1.43125,105.900352478027
0.145497588333333, 219.059977787126, -0.000120764325897535, 1.44125,108.207878112793
0.14616427, 219.065937108797, -0.00040620298861324, 1.445,110.577621459961
0.14683079, 219.071688942658, -0.00042598399504406, 1.45125,102.089500427246
0.147497975, 219.077689952659, -0.000386005003134552, 1.4575,106.937850952148
0.148164881666667, 219.082219651743, -0.000136536033697061, 1.46625,106.937850952148
0.148832238333333, 219.087638192999, 5.29689476600045E-05, 1.4725,105.313369750977
0.149498895, 219.092621353777, 7.06365602453145E-05, 1.47875,104.67554473877
0.150164318333333, 219.098110872935, 4.91771381309458E-05, 1.48625,107.095794677734
0.150831285, 219.103225200341, 0.000256763711272383, 1.4925,107.021430969238
0.151498226666667, 219.109450346119, 0.000344077325576459, 1.49625,107.021430969238
0.152164326666667, 219.114444828466, 0.000305859245235187, 1.505,103.158790588379
0.152830703333333, 219.120057399298, 0.000486739659785733, 1.51125,108.539260864258
0.153497996666667, 219.125401873257, 0.000253661867032585, 1.5175,102.269958496094
0.154164488333333, 219.131621481952, -0.000187021997836734, 1.52375,110.430114746094
0.154830885, 219.136223160583, -0.00036012980279059, 1.53125,110.430114746094
0.155497591666667, 219.141978509093, -0.000732477100221492, 1.5375,112.576171875
0.156164283333333, 219.146889395724, -0.000429783304195135, 1.54375,111.170219421387
0.156832186666667, 219.151862400384, 1.11735470218482E-05, 1.55,107.268272399902
0.157498063333333, 219.156262852755, 1.57093191824474E-05, 1.5575,109.403869628906
0.158164825, 219.162043951797, 0.00028109998885979, 1.56375,109.403869628906
0.158831311666667, 219.167170820702, 0.000300062036438907, 1.57125,127.570709228516
0.15949888, 219.172962836091, -0.000106210556947249, 1.57625,107.818153381348
0.160164433333333, 219.178136256049, -0.000202277731577778, 1.58375,104.734512329102
