Time (min), Depth (µm), Load (N), Position (µm), Acoustic (aJ)
8.53166666666667E-06, 217.010104426802, 1.82650792703204E-05, 0,113.162055969238
0.000664871666666667, 217.010031713026, -6.65976581762582E-05, 0,106.959205627441
0.00133105, 217.009690888048, 9.64246533897644E-05, 0.00375,106.959205627441
0.00199791, 217.007958577282, -5.61176845215892E-05, 0.01,112.827331542969
0.00266514333333333, 217.005131178043, -0.000263585763592661, 0.01875,108.461944580078
0.00333145333333333, 217.001998048238, -0.000492337773580412, 0.02875,107.986915588379
0.00399761, 216.999346448065, -0.000808466394782191, 0.03625,104.590858459473
0.0046645, 216.997757615825, -0.000941427216314629, 0.0425,104.590858459473
0.00533095166666667, 216.997585799157, -0.00104064723259341, 0.04875,104.69709777832
0.00599823166666667, 216.999443988357, -0.00116055120996381, 0.0575,102.865447998047
0.00666488833333333, 217.001297332135, -0.00100015826632303, 0.06375,127.524757385254
0.00733091333333333, 217.003436491094, -0.000583086215405571, 0.07,107.847969055176
0.007997845, 217.005208254679, -0.000311695847031237, 0.0775,107.847969055176
0.00866486833333333, 217.006693894581, -0.000141556392939019, 0.08375,106.954048156738
0.009331125, 217.008524910779, 0.000199206990891433, 0.09,109.523612976074
0.0099976, 217.010982954967, 0.000317191064664341, 0.09625,112.814834594727
0.010664895, 217.013184572314, 0.000227437072909829, 0.10375,109.536529541016
0.0113308983333333, 217.015634415924, 3.57976987443537E-05, 0.11,109.536529541016
0.0119975666666667, 217.018292390125, -3.32738318642019E-05, 0.11625,102.371726989746
0.0126665116666667, 217.021437173674, -0.000132540345799487, 0.12375,104.233062744141
0.0133309333333333, 217.024496997462, -0.000164680731417307, 0.13125,111.358772277832
0.0139980966666667, 217.028516821267, -7.86690517078E-05, 0.13625,108.705032348633
0.01466421, 217.032735041008, -0.000104736242396633, 0.14375,108.705032348633
0.01533092, 217.037181455827, -0.000274961192201091, 0.15,102.650733947754
0.0159978333333333, 217.041717381018, -0.000455255136246201, 0.15625,100.389846801758
0.01666477, 217.04638001051, -0.000478307478353133, 0.1625,105.240798950195
0.01733094, 217.050690001471, -0.000583239207737211, 0.17,108.348930358887
0.0179975683333333, 217.055635652444, -0.000562951226773074, 0.1775,108.348930358887
0.0186644066666667, 217.060591931661, -0.000156740130351214, 0.18375,106.416084289551
0.0193309066666667, 217.065412178064, 7.2388360768025E-05, 0.19,102.164123535156
0.01999793, 217.070589516255, 0.000181045903028673, 0.19625,112.35897064209
0.02066524, 217.076182504203, 0.000128634035593897, 0.20375,112.564086914063
0.0213315683333333, 217.081823696265, 5.84630602064662E-05, 0.21,112.564086914063
0.0219989733333333, 217.087656844752, -0.000261362875286967, 0.215,105.684257507324
0.0226655766666667, 217.094026868129, -0.000394691178340711, 0.2225,127.213348388672
0.0233316066666667, 217.100583406835, -0.000396564584239191, 0.23,110.841506958008
0.02399826, 217.106776524829, -0.000171799373952923, 0.23625,108.907539367676
0.0246650266666667, 217.112985657025, -0.000141859377817256, 0.2425,108.907539367676
0.0253315566666667, 217.119532663128, 0.000110504446249875, 0.25,102.520812988281
0.0259984216666667, 217.125503333431, -0.000200698422382696, 0.25625,105.267822265625
0.0266649666666667, 217.131680323055, -0.000395946615257525, 0.26125,107.353843688965
0.027331685, 217.137715756704, -0.000681173788611116, 0.26875,106.652099609375
0.0279982583333333, 217.144794479258, -0.000848365890719581, 0.27625,106.652099609375
0.0286649033333333, 217.150987872428, -0.00113106119125539, 0.28125,111.197204589844
0.02933227, 217.157736698186, -0.00105365907906586, 0.2875,110.022926330566
0.0299989266666667, 217.164282818627, -0.000826954466249879, 0.29625,101.277877807617
0.030664925, 217.170763634852, -0.000743455160340911, 0.30125,107.997215270996
0.03133163, 217.176145590873, -0.000460780858746746, 0.3075,107.997215270996
0.03199827, 217.182470438272, -0.000329807437431199, 0.315,108.93579864502
0.0326651566666667, 217.188192558443, -0.00039006991051038, 0.32125,107.10277557373
0.0333321283333333, 217.194368368981, -0.000480870849647145, 0.32875,108.173271179199
0.0339994183333333, 217.200609546155, -0.000293464262870303, 0.335,108.281372070313
0.034665485, 217.207775476632, -0.000262744305896163, 0.34125,108.281372070313
0.0353321533333333, 217.214383647585, -0.000278586510163896, 0.34875,104.712188720703
0.035998245, 217.221168492699, -9.68256398611132E-05, 0.35375,105.133285522461
0.036664925, 217.228280849876, -0.000180911416296771, 0.3625,109.558135986328
0.0373317583333333, 217.23561215946, -0.000554355158657741, 0.36875,111.224746704102
0.037998465, 217.242185295808, -0.000921652209730201, 0.375,111.224746704102
0.038665665, 217.24928347922, -0.0010064114523717, 0.38125,105.184860229492
0.0393315933333333, 217.256109760273, -0.000823093660219524, 0.3875,128.153823852539
0.0399982383333333, 217.262484005055, -0.000634589128609464, 0.395,107.088661193848
0.0406650166666667, 217.26960902808, -0.00057334420489737, 0.40125,110.291221618652
0.0413334066666667, 217.27579863151, -0.000204985207177371, 0.4075,110.291221618652
0.04199825, 217.282893670916, -9.83495633948888E-05, 0.415,111.801788330078
0.0426665183333333, 217.289713928142, -0.000149228507770724, 0.42125,105.536026000977
0.043331575, 217.297290752854, -0.000255129188489339, 0.4275,105.101943969727
0.0439989466666667, 217.303187706833, 0.000149078008632211, 0.43375,110.013412475586
0.044666615, 217.310876135523, -0.000288793497534664, 0.44,110.013412475586
0.0453329933333333, 217.317427076989, -0.000182355843773412, 0.44625,104.487480163574
0.045998245, 217.324757084651, -0.000427598025541137, 0.45375,109.36009979248
0.0466654683333333, 217.330959047417, -0.000398377993246558, 0.46,106.483184814453
0.0473317033333333, 217.338138198585, -0.000347449551344162, 0.4675,104.946640014648
0.0479982416666667, 217.344540740726, 4.92474926854032E-06, 0.47375,104.946640014648
0.0486655066666667, 217.350917530486, -0.000141466397687364, 0.48,104.974754333496
0.0493329883333333, 217.3566948392, -0.000171884869792687, 0.4875,109.7802734375
0.04999881, 217.36295864906, -0.000151053916109554, 0.49375,111.989654541016
0.0506657116666667, 217.369483952872, -0.000246813606194907, 0.49875,109.226852416992
0.0513316183333333, 217.375289477765, -0.000272249328582444, 0.5075,109.226852416992
0.05199831, 217.382053494682, 1.19683954777227E-05, 0.51375,111.079879760742
0.0526654466666667, 217.388585444186, 0.000382227797735461, 0.51875,108.605865478516
0.05333322, 217.394545378613, 0.000662488720518448, 0.52625,103.74552154541
0.0539999466666667, 217.400971177194, 0.000386706572789991, 0.5325,104.82689666748
0.054665935, 217.407757133549, 0.000528261962640882, 0.54,104.82689666748
0.0553316266666667, 217.413865807762, 0.000587655979363053, 0.54625,109.478988647461
0.0559982083333333, 217.420409905906, 0.000661836253360523, 0.55125,126.947113037109
0.056664945, 217.42716496983, 0.000594072657065403, 0.55875,106.97087097168
0.0573331366666667, 217.433551400622, 0.000865350531024475, 0.565,107.024635314941
0.057998955, 217.439461997142, 0.000649478374012909, 0.5725,107.024635314941
0.0586649183333333, 217.445344255621, 0.000674786602826169, 0.57875,106.501678466797
0.059332075, 217.451347065965, 0.000689503863600172, 0.585,104.963638305664
0.0599982866666667, 217.457196394007, 0.000704801595224507, 0.59125,104.361099243164
0.0606655583333333, 217.462363144146, 0.000927457911417221, 0.59875,109.049827575684
0.0613320983333333, 217.469119345921, 0.00110799334333376, 0.605,109.049827575684
0.061999875, 217.474754238494, 0.000984198561402439, 0.61125,107.853744506836
0.062664905, 217.481092878944, 0.000736123021948116, 0.6175,104.435020446777
0.0633315633333333, 217.487498127867, 0.000292890785028817, 0.62375,108.985046386719
0.0639982683333333, 217.493783919941, 0.000298083524226822, 0.63125,105.875366210938
0.0646659133333333, 217.499100480918, 0.000421269336701646, 0.6375,105.875366210938
0.06533216, 217.505512236215, 0.000252614808023702, 0.64375,104.152786254883
0.065998235, 217.511488775186, 0.000433537220478793, 0.65125,108.773803710938
0.0666648983333333, 217.517260038098, 0.000898971342240852, 0.6575,105.290992736816
0.06733219, 217.523492937069, 0.000674377123357809, 0.6625,104.596557617188
0.0679995016666667, 217.529623137784, 0.00065588155239563, 0.67,104.596557617188
0.0686665266666667, 217.536202238958, 0.000371983312318374, 0.6775,102.35530090332
0.069331575, 217.542491643168, 8.43007321532272E-06, 0.68375,102.700843811035
0.0699988066666667, 217.549099108016, -0.000360318904892032, 0.69,113.216987609863
0.0706649366666667, 217.554303910139, -0.000351851830190363, 0.69625,105.294319152832
0.071333165, 217.559817410409, -0.000588868425085343, 0.70375,105.294319152832
0.0719982983333333, 217.564524382328, -0.00036095787279409, 0.71,110.45735168457
0.0726655883333333, 217.569448490586, -0.000342049822514745, 0.71625,128.976425170898
0.073332125, 217.574147444988, -0.000472517769263886, 0.7225,111.054351806641
0.073998765, 217.579567202227, -0.000590752330454646, 0.73,106.531585693359
0.0746661233333333, 217.585931970673, -0.000636066554359214, 0.73625,106.531585693359
0.0753331166666667, 217.59176007149, -0.000655807062831146, 0.74375,109.426208496094
0.07599823, 217.597890865813, -0.00078994832503898, 0.75,101.297103881836
0.076665495, 217.604271077036, -0.000601406295297585, 0.75625,113.209884643555
0.0773320883333333, 217.610836030064, -0.000539048427508241, 0.7625,112.062675476074
0.077999935, 217.616722657713, -0.000506734050638389, 0.77,112.062675476074
0.0786649033333333, 217.623304300789, -0.000403996711017596, 0.77625,107.754173278809
0.0793318266666667, 217.629229684756, -0.000355072168458018, 0.7825,109.020874023438
0.0799983883333333, 217.635627613994, -0.000673477675286517, 0.79,106.793724060059
0.0806656833333333, 217.641806057701, -0.000643378687121596, 0.79625,101.661727905273
0.0813323166666667, 217.648519220199, -0.000718649406330267, 0.8025,101.661727905273
0.0819990316666667, 217.654763147371, -0.00077158474738178, 0.80875,101.594749450684
0.082664905, 217.661531849152, -0.000693138687637551, 0.81625,109.389495849609
0.0833321033333333, 217.667940124022, -0.000752121724988213, 0.8225,105.588157653809
0.0839987966666667, 217.674486527733, -0.000745708047113415, 0.82875,102.326866149902
0.0846648966666667, 217.680164687003, -0.000917929396638676, 0.835,102.326866149902
0.0853318483333333, 217.686317651703, -0.000474998644630702, 0.8425,107.418571472168
0.0859987716666667, 217.692375118008, -0.000513435713998612, 0.84875,107.041122436523
0.086665415, 217.698812325029, -0.000144460247221349, 0.855,110.561019897461
0.087333095, 217.704894603782, -9.71031259394782E-05, 0.8625,109.559577941895
0.0879987583333333, 217.711576157814, -3.55087197351546E-05, 0.86875,109.559577941895
0.08866564, 217.718250984172, -0.000310336915373107, 0.87375,106.227119445801
0.089332265, 217.724309386547, -0.000302406813692821, 0.8825,131.405731201172
0.08999888, 217.73064981565, -0.00041372822213999, 0.88875,104.477249145508
0.090665765, 217.737568107999, -0.000370722382295864, 0.895,103.223533630371
0.0913324933333333, 217.744258499438, -0.000360378901846908, 0.9,103.223533630371
0.0919982816666667, 217.751367333456, -0.000655328586818982, 0.90875,107.727592468262
0.092665335, 217.758698031534, -0.00083324215041104, 0.915,106.142509460449
0.093333025, 217.765332237609, -0.000964062579416201, 0.92125,105.440147399902
0.0939987766666667, 217.771774920492, -0.00112963176302278, 0.92875,101.882820129395
0.0946651916666667, 217.778114668723, -0.00109618344309153, 0.935,101.882820129395
0.0953321616666667, 217.783726080158, -0.000852600178053871, 0.94125,113.676651000977
0.0959990983333333, 217.789664244372, -0.000589351400743192, 0.9475,110.468902587891
0.096665505, 217.79567604704, -0.000408892465034977, 0.95625,112.860145568848
0.0973318966666667, 217.802113622447, -0.000154059764975002, 0.9625,104.910568237305
0.0979982266666667, 217.807942939677, -0.000178748524903446, 0.96625,104.910568237305
0.0986660616666667, 217.814291270079, 0.000194243740084619, 0.97375,103.047286987305
0.099334535, 217.821508689986, 5.75871042274391E-05, 0.98125,104.080093383789
0.100003138333333, 217.828153655354, 0.000306801086452614, 0.9875,113.557846069336
0.100668331666667, 217.834876201893, 4.59761873814268E-05, 0.99375,108.409065246582
0.101334465, 217.841346717864, 9.07609379078825E-05, 1,108.409065246582
0.10200199, 217.847851542242, -9.27083465877687E-05, 1.0075,105.252861022949
0.102668445, 217.853301229466, 5.80760796466634E-05, 1.01375,109.749015808105
0.103335128333333, 217.859255724087, 6.20658792394604E-05, 1.02125,107.364921569824
0.104002801666667, 217.864955719418, 0.000227749057185707, 1.0275,111.249473571777
0.104668048333333, 217.871176879654, 0.000213379778937021, 1.03375,111.249473571777
0.105334831666667, 217.877298608945, 0.000113475796960319, 1.04,123.78874206543
0.106001188333333, 217.883825605693, 0.000226652612191876, 1.0475,103.128807067871
0.106668465, 217.890217139716, 0.000288695495814028, 1.05375,102.419792175293
0.107334495, 217.896959142933, 5.70186327085715E-05, 1.06,104.965316772461
0.108002053333333, 217.903817676514, 0.000187521077697733, 1.0675,104.965316772461
0.10866839, 217.910353561846, 0.000246106635017769, 1.07375,108.040153503418
0.109335016666667, 217.916988879768, -0.000193516783149668, 1.08,107.90283203125
0.11000114, 217.923232564334, -0.000354481198073101, 1.0875,110.673904418945
0.110668055, 217.929411294412, -0.000389490939584452, 1.09375,107.652862548828
0.111335013333333, 217.935360768392, -0.000499670905369456, 1.10125,107.652862548828
0.112001858333333, 217.941710340824, -0.000855876013566955, 1.10625,105.865226745605
0.112668166666667, 217.947467859988, -0.000337029574686877, 1.11375,103.535743713379
0.113334538333333, 217.953479652587, -0.000253071291804241, 1.12125,103.959320068359
0.114001686666667, 217.95942498344, -0.000242397827901552, 1.12875,111.63639831543
0.114667883333333, 217.96602122988, -0.000443188242402853, 1.13375,111.63639831543
0.115335898333333, 217.971953156669, -0.000533117725312546, 1.13875,104.097808837891
0.116001883333333, 217.978989913298, -0.00108828633979062, 1.1475,112.926391601563
0.116669413333333, 217.985699226753, -0.00129668137233419, 1.155,109.642555236816
0.11733471, 217.992364763318, -0.00152636183576136, 1.15875,110.016105651855
0.118001146666667, 217.998681693761, -0.00145648484562073, 1.16625,110.016105651855
0.11866839, 218.004792399046, -0.0012931025521129, 1.175,110.627540588379
0.119335158333333, 218.010477495613, -0.0010768239155668, 1.17875,108.167442321777
0.120002761666667, 218.016563417062, -0.00142638885728336, 1.18625,106.990684509277
0.120667803333333, 218.021486675431, -0.000840657777935993, 1.19375,111.181686401367
0.121334498333333, 218.026949582404, -0.000624776621378007, 1.19875,111.181686401367
0.122001245, 218.03271809047, -0.000323203269114679, 1.205,125.963516235352
0.122667876666667, 218.038143379278, -0.0002328523073414, 1.21375,101.251350402832
0.123335293333333, 218.043369854557, 0.000256834096241484, 1.22,109.560173034668
0.124001166666667, 218.049573846778, 3.91425306312087E-05, 1.22625,109.503639221191
0.124668143333333, 218.05545822083, -6.09189434078356E-05, 1.2325,109.503639221191
0.125334535, 218.061301672294, -0.000268676507952498, 1.24,103.996940612793
0.126001881666667, 218.067338048883, -0.000251566867372725, 1.245,103.720260620117
0.126668538333333, 218.072552352121, -0.000328742490934853, 1.25125,106.325805664063
0.12733512, 218.077504339382, -0.000197997058149855, 1.26,111.895889282227
0.128001738333333, 218.083103615698, -0.000484772153763912, 1.26625,111.895889282227
0.128668416666667, 218.089034618037, -0.000198241545870094, 1.27125,104.692581176758
0.129335261666667, 218.094287772663, -0.000400612880968732, 1.2775,107.532035827637
0.130001176666667, 218.101025381336, -0.000734965586773193, 1.28375,115.79907989502
0.13066788, 218.107428008332, -0.00110622993855115, 1.29125,115.79907989502
0.131335026666667, 218.113665055858, -0.00121376553716687, 1.3,102.471794128418
0.132001141666667, 218.118701795047, -0.00130063517386884, 1.30375,101.786422729492
0.132669523333333, 218.124228999143, -0.00116856380767756, 1.3125,105.619018554688
0.133335071666667, 218.129441790285, -0.000865342038197497, 1.3175,108.558746337891
0.134001146666667, 218.134918892523, -0.000353728236022666, 1.325,108.976089477539
0.134667818333333, 218.139849294114, 0.000129291002440015, 1.33125,108.976089477539
0.135335025, 218.146511377315, -0.000242384328666939, 1.33875,101.249542236328
0.136001761666667, 218.151965164938, -0.000147463096450532, 1.34375,110.948036193848
0.136668366666667, 218.157657429132, 6.312179596603E-06, 1.35,105.400856018066
0.137335001666667, 218.16383136073, -0.000172672330189414, 1.3575,107.989852905273
0.138001141666667, 218.170088902572, -0.000489853898513568, 1.36375,107.989852905273
0.138667885, 218.174971971871, -0.000232598820159757, 1.37,130.117492675781
0.139335001666667, 218.180644492822, -0.000215501178932702, 1.3775,101.354293823242
0.140002961666667, 218.186091969554, -0.00039304276120899, 1.385,108.666648864746
0.140669671666667, 218.19152640365, -0.000358015020626054, 1.39125,106.663154602051
0.14133708, 218.196644380465, -0.000440876858557367, 1.39625,106.663154602051
0.142001873333333, 218.202365989874, -9.91370238128696E-05, 1.40375,104.167144775391
0.1426696, 218.208175950763, -0.000167760076961089, 1.41,115.664001464844
0.143336125, 218.213766810579, -0.000153320302286704, 1.41625,110.19034576416
0.144001343333333, 218.21976746575, -0.000388496489620076, 1.42375,103.731460571289
0.144668, 218.225444360091, -0.000122465352095017, 1.43,103.731460571289
0.145334688333333, 218.230893428572, -0.000258708008774389, 1.43625,109.042930603027
0.146001371666667, 218.236423419484, -0.000264797702914321, 1.4425,105.341369628906
0.146668256666667, 218.242185455293, -0.000396203102585531, 1.45,109.214164733887
0.14733472, 218.246694780265, -0.000333402756990955, 1.45625,107.741905212402
0.148001675, 218.251598363463, -0.000476096589612698, 1.4625,107.741905212402
0.148668, 218.256436581507, -0.000537824489067658, 1.46875,109.795852661133
0.149334733333333, 218.262139618473, -0.000406783571090202, 1.47625,106.371688842773
0.150001318333333, 218.266999934682, -0.000364827678477135, 1.4825,113.704788208008
0.150668106666667, 218.27290939415, -0.000154383748879901, 1.48875,100.942428588867
0.151335236666667, 218.278346222449, 3.58666950331082E-05, 1.495,100.942428588867
0.152001595, 218.284327630039, -7.52567233715773E-05, 1.5025,103.891738891602
0.152668021666667, 218.290415189811, -0.000184676227377859, 1.50875,109.62020111084
0.153334661666667, 218.297094280207, -0.000283191279059587, 1.515,102.187019348145
0.154003461666667, 218.303398059525, -0.000307356565243769, 1.5225,106.608070373535
0.154668033333333, 218.309392765102, -0.00046894344887957, 1.53,106.608070373535
0.155334728333333, 218.315774184068, -0.000370042916519934, 1.535,126.411224365234
0.156001868333333, 218.320923274075, -0.000426092101185217, 1.5425,110.779884338379
0.156668561666667, 218.326621574557, -0.000487155534023263, 1.54875,110.029472351074
0.157334751666667, 218.33177641253, -0.000913861601019417, 1.555,107.372337341309
0.158001811666667, 218.337859403527, -0.000900432775562862, 1.56,107.372337341309
0.158668116666667, 218.3426091684, -0.000959460810688129, 1.56875,102.588569641113
0.159335486666667, 218.348080868522, -0.000854004107677894, 1.575,114.746810913086
0.160001661666667, 218.352720932878, -0.000306528606845646, 1.58125,108.444892883301
