Time (min), Depth (µm), Load (N), Position (µm), Acoustic (aJ)
7.44E-06, 217.100309683512, -6.06903968078944E-05, 0,106.520027160645
0.000666366666666667, 217.099903266528, 0.000168289601774168, 0.00125,102.598411560059
0.00133303666666667, 217.099870783747, 6.74781654484786E-05, 0.005,102.598411560059
0.00199975333333333, 217.099242633869, 0.000341385407354052, 0.01125,111.82837677002
0.00266638166666667, 217.09695779714, 0.000229588522786034, 0.02,109.202476501465
0.00333414166666667, 217.094218301625, 0.000654127198636907, 0.03,109.848411560059
0.00400008666666667, 217.092069471307, 0.000285079735467034, 0.03625,106.804992675781
0.00466657833333333, 217.089977354969, 0.000197292144966512, 0.0425,106.804992675781
0.00533297166666667, 217.088813467385, -0.000240598860217605, 0.04875,110.580039978027
0.00599997833333333, 217.089803000278, -0.000293504202823561, 0.0575,130.398559570313
0.00666653333333333, 217.091217525174, -0.000865932450385497, 0.06375,101.869323730469
0.00733300333333333, 217.093543544309, -0.000466905993045472, 0.07,101.538352966309
0.00799962166666667, 217.095210167833, -0.00023920393028878, 0.0775,101.538352966309
0.00866676666666667, 217.097629885902, -0.000130160907371479, 0.08375,106.378089904785
0.00933318, 217.099807333635, -0.000130781876201952, 0.09,108.635688781738
0.00999984, 217.102306964068, 1.08335106250698E-05, 0.0975,105.99934387207
0.0106664816666667, 217.104708227918, -0.000325416599889578, 0.10375,107.496963500977
0.0113330683333333, 217.107868333085, -0.000539491847104721, 0.11,107.496963500977
0.0119998683333333, 217.110070408182, -0.0004628816951914, 0.1175,105.405860900879
0.0126662683333333, 217.11333699895, -0.000446709507512441, 0.125,105.528823852539
0.013333205, 217.116881131705, -0.000502130223788997, 0.13125,106.606689453125
0.01399982, 217.120589713407, -0.000398888909462439, 0.135,102.83650970459
0.01466658, 217.124321844599, -0.000416795010049121, 0.1425,102.83650970459
0.0153329483333333, 217.128381265602, -0.000428956399193638, 0.15125,107.983543395996
0.0159999116666667, 217.133153074825, -0.000733733590556185, 0.15875,105.445152282715
0.016832935, 217.139449556806, -0.000539667338344919, 0.16625,114.929382324219
0.0174997416666667, 217.144080347073, -0.000685849995745009, 0.1725,111.214698791504
0.01816655, 217.148845192376, -0.000827087401537393, 0.1775,108.508514404297
0.0188330733333333, 217.153225794982, -0.000601491233004195, 0.18375,108.508514404297
0.0194998133333333, 217.157593775385, -0.00079900581203492, 0.19375,109.720611572266
0.0203330616666667, 217.162441553554, -0.000454446118923454, 0.19875,111.666282653809
0.020999625, 217.166780089094, -0.000537924425890776, 0.2075,106.332084655762
0.0216681016666667, 217.171755139256, -0.000598422387143777, 0.21375,133.907745361328
0.0223329183333333, 217.176507983048, -0.000608975857051698, 0.21875,110.750946044922
0.02299979, 217.181653351141, -0.00035805946028876, 0.22625,110.750946044922
0.0236664033333333, 217.186552099532, -0.000531966725098331, 0.23375,107.566528320313
0.0243334766666667, 217.19214615711, -0.00068853186102437, 0.24,103.780502319336
0.02499964, 217.197286345478, -0.000101194362386067, 0.245,112.189666748047
0.0256665516666667, 217.203533891517, -0.000153924213836842, 0.25375,110.113342285156
0.026332975, 217.209785906797, -0.00025385969416225, 0.25875,110.113342285156
0.0269996733333333, 217.216401394137, -0.000334405648474868, 0.265,108.101409912109
0.0276664816666667, 217.22234787614, -0.00022333922721876, 0.2725,108.124145507813
0.0283330216666667, 217.228638602257, -0.000441431272665959, 0.28,116.638565063477
0.0289997516666667, 217.234726855387, -0.000267942486807405, 0.28625,107.434188842773
0.029666855, 217.240899164958, -0.000465988039204408, 0.2925,107.434188842773
0.0303335016666667, 217.24704593584, -0.000415634068412221, 0.29875,110.961212158203
0.030999845, 217.253698898096, -0.000120931870987938, 0.305,112.458595275879
0.0316666266666667, 217.259812538936, -0.000239758902424256, 0.3125,107.905418395996
0.03233299, 217.26591092306, -0.000181495828914683, 0.31875,108.27392578125
0.0330011116666667, 217.271848899049, -1.05584149336606E-05, 0.325,108.27392578125
0.0336666816666667, 217.278178566475, 0.000304175276339294, 0.3325,103.92822265625
0.0343330033333333, 217.284774816994, 2.83751295179979E-05, 0.33875,106.754768371582
0.035001545, 217.291696440822, 0.000376558640604104, 0.34375,106.592567443848
0.0356678466666667, 217.298623648783, 0.000156269205502304, 0.35125,107.598220825195
0.0363337216666667, 217.305218799523, 0.00026155791695812, 0.35875,107.598220825195
0.0370000933333333, 217.312020285383, -5.05029085818935E-05, 0.365,108.506103515625
0.0376667816666667, 217.318922130598, 9.85911025525096E-05, 0.3725,103.994361877441
0.0383330833333333, 217.325425434895, 4.64102235395978E-05, 0.37875,125.988418579102
0.038999775, 217.332109986634, 0.000342606345924574, 0.38375,104.723770141602
0.0396664333333333, 217.338861186219, 0.000407445089144497, 0.39125,104.723770141602
0.0403332133333333, 217.345795234493, 0.000542835788635294, 0.39875,106.576454162598
0.040999785, 217.352754585656, 0.000642457784739168, 0.405,103.792282104492
0.0416667483333333, 217.359564440427, 0.000451382382276842, 0.41125,107.378494262695
0.0423329833333333, 217.36664031816, 0.000512285323161231, 0.4175,107.002410888672
0.0430010966666667, 217.374000170267, 0.000360174963478015, 0.42375,107.002410888672
0.04366794, 217.380085159801, 0.000548306013826648, 0.43125,111.590637207031
0.0443332016666667, 217.386651749634, 0.000750281368797809, 0.43625,112.329315185547
0.0449996783333333, 217.392786262493, 0.000956558507701407, 0.44375,107.465599060059
0.0456664316666667, 217.398938354729, 0.000902210237585722, 0.45125,109.822731018066
0.046333025, 217.405411431123, 0.000933995141056207, 0.4575,109.822731018066
0.0469999083333333, 217.412166732586, 0.00106619700071307, 0.46375,104.565589904785
0.0476665483333333, 217.418820490499, 0.00085548308465949, 0.47125,105.852684020996
0.0483330383333333, 217.426048288724, 0.000590926373077883, 0.47625,102.347793579102
0.04900113, 217.433161751341, 0.000532420311793728, 0.48375,108.681617736816
0.04966818, 217.439735082903, 0.00117438506657174, 0.49,108.681617736816
0.0503330066666667, 217.446563885192, 0.000676335083092264, 0.49625,106.881942749023
0.05099985, 217.453321401613, 0.000858028456818154, 0.50375,110.696243286133
0.0516664166666667, 217.460092556552, 0.00106929734502847, 0.51,99.2224655151367
0.0523329983333333, 217.466602525106, 0.000973462658680442, 0.51625,108.46883392334
0.053000445, 217.47296271596, 0.000604496191513361, 0.5225,108.46883392334
0.05366647, 217.479047926727, 0.000620005412499809, 0.53,105.493988037109
0.054333005, 217.485509470632, 0.000503324773267128, 0.53625,105.975288391113
0.0550014433333333, 217.491137027547, 0.000766581050136061, 0.5425,124.426200866699
0.05566641, 217.496939164453, 0.00119773589369868, 0.55,101.774406433105
0.0563332316666667, 217.503632114523, 0.00113812288801363, 0.555,101.774406433105
0.0570010933333333, 217.510627795326, 0.00152060067656447, 0.5625,109.578811645508
0.0576682016666667, 217.516539510288, 0.00164625386510773, 0.57,105.885528564453
0.0583330116666667, 217.524485659824, 0.00150343403879361, 0.57625,108.752395629883
0.0589997933333333, 217.531602931783, 0.00115507353656415, 0.58125,108.752395629883
0.0596681783333333, 217.539019278771, 0.00115559551036276, 0.58875,103.245223999023
0.0603330533333333, 217.545677008218, 0.00105443309162044, 0.595,113.458969116211
0.061000905, 217.552444062522, 0.000997440454314217, 0.60125,109.481430053711
0.0616663616666667, 217.558297307045, 0.000930809301134844, 0.60875,110.402885437012
0.06233311, 217.565014602134, 0.000808274455957304, 0.615,102.227851867676
0.0629998366666667, 217.570880860873, 0.00077663054535947, 0.62125,102.227851867676
0.0636681166666667, 217.576580703181, 0.000976676997250484, 0.6275,108.825965881348
0.0643333266666667, 217.58284280373, 0.0010153015571688, 0.635,102.425727844238
0.0649997983333333, 217.58935229491, 0.0011571809306908, 0.64125,106.805419921875
0.0656664016666667, 217.595180590055, 0.00123521901093358, 0.6475,105.375465393066
0.0663330933333333, 217.600804743396, 0.00129886381409471, 0.65375,105.375465393066
0.067001115, 217.607327132576, 0.00118332611742734, 0.66,110.788612365723
0.06766627, 217.612967956772, 0.000859831366227174, 0.6675,111.64949798584
0.0683330733333333, 217.619189787242, 0.000645987107433894, 0.67375,107.223640441895
0.0690016266666667, 217.624534699733, 0.000845138104243622, 0.68,107.260276794434
0.0696674016666667, 217.630417682384, 0.000735655603476166, 0.6875,107.260276794434
0.070333045, 217.635910238094, 0.00072614308127414, 0.69375,106.882133483887
0.0709996216666667, 217.641724307065, 0.00120219516969346, 0.7,102.291694641113
0.0716663133333333, 217.646983569153, 0.00121983728352141, 0.70625,128.696838378906
0.0723338466666667, 217.652626486652, 0.000982958681714033, 0.71375,104.627716064453
0.0729997383333333, 217.658585682398, 0.000707463019589106, 0.72,104.627716064453
0.0736681783333333, 217.664535806734, 0.000573308258040388, 0.72625,103.52205657959
0.07433404, 217.670051401015, 0.000342919830188618, 0.73375,108.254371643066
0.0750010066666667, 217.675101387912, 0.000413522783889203, 0.74,103.580513000488
0.0756664266666667, 217.681554676773, 0.000595918122363343, 0.74625,100.919143676758
0.0763329516666667, 217.686778410744, 0.00119735791266404, 0.75375,100.919143676758
0.0770000166666667, 217.69263421398, 0.0016252669192229, 0.76,107.817512512207
0.0776682633333333, 217.698422025813, 0.00211333340417396, 0.76625,104.132400512695
0.078333015, 217.704678878868, 0.00257911850826763, 0.77375,104.976470947266
0.07899973, 217.709815478436, 0.00305678901539437, 0.78,109.0283203125
0.0796677933333333, 217.715097620815, 0.00393726279010365, 0.78625,109.0283203125
0.08033309, 217.721301403815, 0.00434859012957895, 0.7925,107.687057495117
0.0809999483333333, 217.726607389034, 0.00497736604680493, 0.8,109.302696228027
0.0816678616666667, 217.731818474633, 0.0056679298605045, 0.80625,111.576461791992
0.0823329516666667, 217.737923809006, 0.00658362186625969, 0.8125,108.381469726563
0.0829998483333333, 217.743357080556, 0.00718820399871657, 0.82,108.381469726563
0.0836677083333333, 217.748032330408, 0.00810407599542141, 0.82625,104.559364318848
0.0843331033333333, 217.753769235456, 0.00935508815841245, 0.8325,101.590950012207
0.0849996716666667, 217.758888970854, 0.0102730945479257, 0.83875,111.42212677002
0.0856666466666667, 217.762843432816, 0.0118052870874652, 0.84125,107.450782775879
0.086333045, 217.767845005678, 0.0130214724997433, 0.8425,107.450782775879
0.0870000616666667, 217.771723982197, 0.0139133247029524, 0.8425,108.327224731445
0.08766629, 217.77485797224, 0.0142795748065788, 0.84375,108.461639404297
0.0883341416666667, 217.777659018297, 0.0148942139339024, 0.84625,124.515007019043
0.0889998666666667, 217.780458080638, 0.0148988292020776, 0.84875,110.558204650879
0.0896681333333333, 217.781725130217, 0.0149608930846414, 0.85125,110.558204650879
0.09033296, 217.782526096372, 0.0159730257462673, 0.855,111.875663757324
0.09100011, 217.785042091174, 0.0165438745731138, 0.85875,106.696723937988
0.0916666816666667, 217.786701199061, 0.0173186651562067, 0.86375,112.370880126953
0.0923330216666667, 217.789374548539, 0.017983218776366, 0.87,107.010704040527
0.0929998833333333, 217.793228366294, 0.0186693443130124, 0.87625,107.010704040527
0.093666715, 217.797464054663, 0.0191551669106524, 0.8825,108.503242492676
0.0943331483333333, 217.801101455527, 0.0196477871668569, 0.8875,111.17357635498
0.0950001983333333, 217.805439229501, 0.0204247331416786, 0.89625,108.517028808594
0.0956674083333333, 217.810172622873, 0.0209453074937688, 0.90375,100.113159179688
0.0963331183333333, 217.81416385043, 0.0222573860894254, 0.9125,100.113159179688
0.0970014733333333, 217.818813450331, 0.0234692262199634, 0.9225,105.609199523926
0.0976665216666667, 217.823712539819, 0.0250112627651043, 0.93125,105.548110961914
0.0983329833333333, 217.828706309328, 0.0266376985708812, 0.94125,110.748519897461
0.0989998983333333, 217.833965032253, 0.0285536348354229, 0.95125,112.601318359375
0.09966629, 217.841241387998, 0.0298389142771544, 0.9625,112.601318359375
0.100334605, 217.84821478609, 0.0310637557546515, 0.97375,111.013229370117
0.100999808333333, 217.855036658064, 0.0330174586221829, 0.985,105.035606384277
0.101666791666667, 217.862360001609, 0.034744402879556, 0.99625,104.731079101563
0.10233301, 217.869261214678, 0.0368070422753082, 1.0075,114.392997741699
0.102999751666667, 217.875513072736, 0.0392406910356899, 1.01875,114.392997741699
0.103666325, 217.882338446904, 0.0423321227563056, 1.03125,109.698791503906
0.104332973333333, 217.889833926269, 0.044909194312654, 1.0425,123.567886352539
0.104999873333333, 217.896699800153, 0.0479158472916109, 1.05625,103.442802429199
0.105666466666667, 217.902650310895, 0.0515181548514463, 1.06875,104.904899597168
0.106333228333333, 217.909891588187, 0.0548842887740288, 1.08125,104.904899597168
0.10699984, 217.915454869106, 0.0584337539880831, 1.09375,104.252868652344
0.107668211666667, 217.921593205629, 0.0623764364512435, 1.10625,112.483421325684
0.108333033333333, 217.92826819589, 0.0663037656855978, 1.11875,108.747802734375
0.108999866666667, 217.934932597167, 0.0701791180307006, 1.13,106.412620544434
0.109666555, 217.940323561072, 0.0741995790871181, 1.1425,106.412620544434
0.110333198333333, 217.947200213263, 0.0781407811246374, 1.15375,103.837059020996
0.111001185, 217.95287025563, 0.0819352410328692, 1.165,101.61499786377
0.11166637, 217.958696996668, 0.0860322657435861, 1.1775,106.576942443848
0.112332973333333, 217.9641234211, 0.0899258016753327, 1.18875,104.049446105957
0.11300052, 217.969968128034, 0.0939497185581917, 1.2,104.049446105957
0.113666513333333, 217.975507544506, 0.0978679447497699, 1.21125,110.346961975098
0.114333051666667, 217.980877810807, 0.101951437140183, 1.22125,105.204391479492
0.115000111666667, 217.986441699996, 0.105433014264174, 1.2325,104.362480163574
0.115666445, 217.992066281862, 0.108791126589645, 1.24375,111.119132995605
0.116333096666667, 217.996411811052, 0.112851752628619, 1.255,111.119132995605
0.116999778333333, 218.001725309048, 0.116233892247272, 1.265,108.777572631836
0.117666535, 218.006222111804, 0.119697374280181, 1.275,110.1328125
0.11833288, 218.010491256868, 0.123508519350322, 1.28625,99.9252777099609
0.118999851666667, 218.015266305217, 0.127147032091652, 1.2975,109.303062438965
0.11966667, 218.019980705019, 0.130745328852974, 1.3075,109.303062438965
0.120333081666667, 218.02381693855, 0.13446667493365, 1.3175,110.443519592285
0.120999668333333, 218.027508933726, 0.138289702406976, 1.32875,124.209579467773
0.121666555, 218.032177552656, 0.141906223252901, 1.34,113.472190856934
0.122333023333333, 218.035931193195, 0.145920837602996, 1.35,106.113052368164
0.123000081666667, 218.040464507922, 0.149050404908068, 1.35875,106.113052368164
0.12366651, 218.044952425244, 0.152498782699664, 1.36875,106.579650878906
0.124336008333333, 218.04946752497, 0.155725204639849, 1.37875,108.800476074219
0.125002625, 218.052991893849, 0.159336058770422, 1.39,109.637428283691
0.125670431666667, 218.056700889361, 0.162690862262128, 1.4,106.884002685547
0.126335876666667, 218.060438980308, 0.165850009581458, 1.41,106.884002685547
0.127002203333333, 218.064669387737, 0.169357248916506, 1.42,110.913536071777
0.127668738333333, 218.068821593021, 0.17316732604026, 1.4325,103.929794311523
0.128336748333333, 218.073370142702, 0.176676999753019, 1.44,112.738914489746
0.129002873333333, 218.078575667342, 0.179809479911793, 1.45,109.086486816406
0.129670405, 218.081933632449, 0.183968151526047, 1.46,109.086486816406
0.130335595, 218.085811109214, 0.187577943709951, 1.47,108.514518737793
0.131003263333333, 218.089653859018, 0.190867555976181, 1.48,108.417442321777
0.131670355, 218.09362058909, 0.194072058017396, 1.49,109.530136108398
0.132335361666667, 218.09711677471, 0.19731267974435, 1.49875,106.283447265625
0.133003705, 218.10160575582, 0.200155758439497, 1.51,106.283447265625
0.133669451666667, 218.105173114441, 0.203628749994759, 1.52,104.06763458252
0.134335373333333, 218.108887042521, 0.207003751471901, 1.53,101.810554504395
0.135002688333333, 218.112618636564, 0.210092738315272, 1.54,108.083976745605
0.135668755, 218.115830872073, 0.214028639619057, 1.55,103.682884216309
0.136335523333333, 218.119587604183, 0.217598200823688, 1.55875,103.682884216309
0.13700254, 218.123099237869, 0.220583998850172, 1.57,102.74893951416
0.137668795, 218.127543433352, 0.223766862978204, 1.57875,128.878173828125
0.138336006666667, 218.130560547182, 0.227515204702924, 1.59,107.526962280273
0.13900231, 218.134818675492, 0.230683995037858, 1.59875,107.781639099121
0.13966955, 218.138623094887, 0.233733874345567, 1.61,107.781639099121
0.140335858333333, 218.142195386122, 0.237194710511318, 1.62,112.518508911133
0.141003843333333, 218.145965392979, 0.240503623808043, 1.6325,108.65340423584
0.141669273333333, 218.150281183491, 0.244142247543779, 1.64,104.06324005127
0.142335248333333, 218.154336988725, 0.247223571272055, 1.65,112.293243408203
0.143002413333333, 218.157933179005, 0.250646261353879, 1.66,112.293243408203
0.143668915, 218.162419560302, 0.253769191492362, 1.67,113.097549438477
0.144340303333333, 218.167166925454, 0.258713022668894, 1.68,110.085060119629
0.145002061666667, 218.169500476999, 0.25983139949399, 1.69,107.12686920166
0.145669048333333, 218.17288604633, 0.26341107919041, 1.70125,108.460395812988
0.146335898333333, 218.176353575505, 0.266982599296673, 1.7125,108.460395812988
0.147003725, 218.180052646262, 0.270317828771558, 1.72125,108.782928466797
0.147669206666667, 218.184139739531, 0.273590472390082, 1.73,107.61149597168
0.148336418333333, 218.187457407038, 0.277198517161758, 1.74125,108.145851135254
0.149002595, 218.191682955852, 0.280220023894652, 1.75125,108.145851135254
0.149668716666667, 218.196055327061, 0.283208968763044, 1.7625,112.177642822266
0.150336783333333, 218.19910761631, 0.286968652918056, 1.7725,108.9873046875
0.151002095, 218.202448053198, 0.290565793237472, 1.78125,105.643760681152
0.151668961666667, 218.20627193586, 0.293826149473137, 1.79125,104.746032714844
0.152335336666667, 218.210012402534, 0.296910935027574, 1.80125,107.746025085449
0.15300212, 218.213709830202, 0.300577415364067, 1.8125,107.746025085449
0.153669431666667, 218.217587356792, 0.303800498471935, 1.8225,110.562530517578
0.154335943333333, 218.220610891346, 0.307267367334741, 1.8325,132.356628417969
0.155002683333333, 218.224769619157, 0.310405016233901, 1.8425,110.315986633301
0.155668835, 218.227860742512, 0.31370892728189, 1.8525,107.370620727539
0.15633758, 218.230800539777, 0.317445637090843, 1.86375,107.370620727539
0.157001925, 218.233966610975, 0.320594451429174, 1.8725,108.452095031738
0.157669353333333, 218.237259635116, 0.324120192334861, 1.88375,106.960494995117
0.158335358333333, 218.240081064895, 0.327191001591307, 1.89375,109.858192443848
0.159002138333333, 218.243818983073, 0.330944024580897, 1.90375,102.37328338623
0.15966881, 218.246539902578, 0.334482960323855, 1.91375,102.37328338623
0.160335628333333, 218.249632841879, 0.338296211288241, 1.92375,112.410797119141
0.16100243, 218.253172482288, 0.341252678288003, 1.93375,105.919944763184
0.16166952, 218.256649058806, 0.345366724143738, 1.94375,109.337821960449
0.162335436666667, 218.259109890039, 0.348662258112469, 1.95375,112.568817138672
0.16300189, 218.264269523315, 0.350951068147907, 1.9625,112.568817138672
0.163668871666667, 218.26702327042, 0.35452914742467, 1.9725,102.188690185547
