Time (min), Depth (µm), Load (N), Position (µm), Acoustic (aJ)
7.67333333333333E-06, 268.630978534737, 0.00108015261681038, 0,105.178070068359
0.000666198333333333, 268.631158335473, 0.00058505298516347, 0.00124999999999995,107.568389892578
0.00133279166666667, 268.630876344098, 0.000708342292507135, 0.00625000000000018,105.331474304199
0.00199944833333333, 268.630611860727, 0.00027666997496163, 0.0149999999999998,125.487815856934
0.00266653666666667, 268.631635854163, 0.000253052161269653, 0.0225,125.487815856934
0.00333343833333333, 268.631890572162, 0.000338889849705874, 0.0300000000000001,106.143615722656
0.00399944666666667, 268.633881372666, 0.000724616475045515, 0.0362499999999998,108.976715087891
0.00466611, 268.635544743347, 0.000392890137296241, 0.0462499999999998,100.681503295898
0.00533278166666667, 268.639278512781, 0.000630130220991069, 0.0512500000000001,104.635414123535
0.005999625, 268.642345645208, 0.000624223517649589, 0.0574999999999998,103.812561035156
0.006666105, 268.64615983099, 0.000514907508448386, 0.0649999999999999,103.812561035156
0.00733295333333333, 268.649274035291, 0.000586911391754155, 0.0712500000000001,101.975006103516
0.007999535, 268.652634341538, 0.000814392965559806, 0.0787499999999998,112.93270111084
0.00866626, 268.656023586936, 0.00125142451393333, 0.085,109.335708618164
0.00933289666666667, 268.659418461714, 0.00110336245093715, 0.0900000000000002,103.23078918457
0.00999954333333333, 268.663539249857, 0.0014980046284813, 0.0974999999999999,103.23078918457
0.0106662383333333, 268.667239941208, 0.00136544428689206, 0.105,102.781867980957
0.0113331283333333, 268.671318324439, 0.00161660367145083, 0.11125,108.662094116211
0.0119995216666667, 268.675167198202, 0.00113100606251387, 0.11875,111.433670043945
0.0126663016666667, 268.678629191317, 0.00093439443814394, 0.125,105.208427429199
0.013332925, 268.682463729823, 0.000560776704552193, 0.13,105.208427429199
0.013999565, 268.68584326263, 0.000367928391083896, 0.1375,105.691566467285
0.01466705, 268.690274753421, 0.000101426277211198, 0.145,103.563789367676
0.0153327683333333, 268.693157598554, 0.000131631760030004, 0.15125,104.368614196777
0.015999435, 268.697440011, 0.000298285389171429, 0.15625,103.44686126709
0.0166662066666667, 268.69974416844, 0.0002604977871764, 0.1625,103.44686126709
0.01733296, 268.703421877769, 0.000565078488399613, 0.17125,105.586067199707
0.01799948, 268.705795831523, 0.000574567011789933, 0.1775,100.486549377441
0.0186661066666667, 268.709843711264, 0.000472608133061956, 0.18375,126.306365966797
0.0193329483333333, 268.713219982601, 0.000140806799113773, 0.19,108.695114135742
0.0199995933333333, 268.717770058466, 0.000271072256025966, 0.19625,108.695114135742
0.020666135, 268.721758926572, -9.95062848140011E-06, 0.20375,110.044036865234
0.021332785, 268.725865108197, 0.000171180273508253, 0.21,106.559585571289
0.021999455, 268.729989431984, 0.000475288498480677, 0.21625,106.590538024902
0.0226660966666667, 268.733715622584, 0.000744320985246752, 0.2225,103.249931335449
0.0233329183333333, 268.737600507862, 0.000883987969912623, 0.23,103.249931335449
0.0239994866666667, 268.740737018523, 0.00131709271551829, 0.23625,103.919456481934
0.0246661633333333, 268.745014619153, 0.00116537833596255, 0.2425,105.39860534668
0.0253328483333333, 268.749095497438, 0.00121942662115508, 0.24875,102.582641601563
0.0259993983333333, 268.753057890166, 0.00104040011348577, 0.255,104.670074462891
0.0266667516666667, 268.757083039969, 0.000956534825937388, 0.26375,104.670074462891
0.0273327966666667, 268.761710228083, 0.000624733491946696, 0.27,105.372611999512
0.027999425, 268.766145612231, 0.000508520829191593, 0.275,107.559944152832
0.0286660916666667, 268.769672289444, 0.000259524335983637, 0.2825,111.96728515625
0.0293328383333333, 268.774354218423, 0.000533305584260591, 0.28875,104.642280578613
0.0299996433333333, 268.778466553908, 0.000565954444336132, 0.295,104.642280578613
0.0306660933333333, 268.783166746461, 0.000421489200696584, 0.30125,109.438171386719
0.03133307, 268.78679957798, 0.000566807901491618, 0.30875,102.079284667969
0.031999435, 268.791035015338, 0.000756992348730884, 0.315,107.54118347168
0.0326660966666667, 268.794447146546, 0.000802305072732303, 0.32125,106.253028869629
0.03333313, 268.798575244569, 0.000866914327497274, 0.3275,106.253028869629
0.03399947, 268.802291197555, 0.00137590776129328, 0.335,114.631958007813
0.03466617, 268.806194556701, 0.00137100900734207, 0.34125,106.117202758789
0.035332825, 268.810707431893, 0.00129795367681708, 0.3475,122.981254577637
0.0360001866666667, 268.814984048729, 0.00144831962410049, 0.355,102.00666809082
0.0366664366666667, 268.819425747664, 0.00149395033209666, 0.36125,102.00666809082
0.0373327766666667, 268.823375548255, 0.00147379434452252, 0.3675,109.597526550293
0.0379995966666667, 268.827725700698, 0.0014276851605567, 0.375,109.34578704834
0.038666065, 268.831724776514, 0.00155697416653359, 0.38125,107.83576965332
0.0393331316666667, 268.834804014702, 0.00106722176629822, 0.3875,106.714935302734
0.0399997733333333, 268.837038286417, 0.000882135562998296, 0.39375,106.714935302734
0.0406661433333333, 268.839143951042, 0.000856482351529779, 0.4,100.96688079834
0.0413329533333333, 268.842183450328, 0.000853735989479824, 0.4075,109.693344116211
0.0419994466666667, 268.844610438791, 0.000462491141304163, 0.41375,106.521308898926
0.0426662583333333, 268.848623758317, 0.00103615682666882, 0.42,100.860443115234
0.0433329683333333, 268.852580622459, 0.00107303097451098, 0.4275,100.860443115234
0.04399948, 268.857541272101, 0.000795592909943766, 0.43375,102.429275512695
0.04466625, 268.861201743701, 0.000961112596066294, 0.44125,102.927169799805
0.045332945, 268.864626102359, 0.00149195993215849, 0.44875,101.055603027344
0.0459994616666667, 268.867996977578, 0.00124203798544494, 0.45375,107.700225830078
0.046666295, 268.871291446861, 0.00153484127825589, 0.46,107.700225830078
0.0473328383333333, 268.874791010345, 0.00161344932981441, 0.46625,107.352233886719
0.0479994433333333, 268.877958189416, 0.00148809912602186, 0.47375,100.142608642578
0.0486661483333333, 268.881926672071, 0.00116969211929021, 0.48,105.202697753906
0.0493328683333333, 268.885112111431, 0.00112674627640096, 0.48625,111.526443481445
0.0499994666666667, 268.889125819525, 0.000944499430421491, 0.4925,111.526443481445
0.0506663183333333, 268.891930112505, 0.00116534683750757, 0.5,106.719009399414
0.051333195, 268.895383683042, 0.00114770172378831, 0.50625,108.543464660645
0.0519994416666667, 268.898663752566, 0.00157298586219513, 0.5125,119.849937438965
0.0526660966666667, 268.902161511516, 0.00170222537064546, 0.52125,107.077140808105
0.0533327816666667, 268.905502600142, 0.00177692311866833, 0.5275,107.077140808105
0.053999705, 268.90829850788, 0.00156645369031373, 0.5325,102.250732421875
0.0546661383333333, 268.911374660526, 0.00180567067471212, 0.54,110.308837890625
0.0553328066666667, 268.913570739039, 0.00148076299449028, 0.54625,100.150299072266
0.0559994616666667, 268.916335901559, 0.00131049754674819, 0.5525,101.474533081055
0.05666612, 268.918559092105, 0.00118192400490294, 0.55875,101.474533081055
0.0573328516666667, 268.921912093967, 0.00102579834693332, 0.56625,108.119079589844
0.05799949, 268.92411075707, 0.000957418281580939, 0.57375,104.197868347168
0.05866627, 268.927200486471, 0.000876626339687442, 0.57875,101.921127319336
0.05933274, 268.930039399168, 0.000723409035624589, 0.585,106.733543395996
0.06000027, 268.932419955692, 0.000721664623203535, 0.5925,106.733543395996
0.0606664233333333, 268.935102894583, 0.000927356791504846, 0.6,104.73575592041
0.0613330916666667, 268.937055238337, 0.00110329495431775, 0.60625,104.474632263184
0.0619994516666667, 268.939496847953, 0.0012782821648677, 0.61125,104.696670532227
0.06266631, 268.941146586338, 0.00151587623078546, 0.61875,105.156150817871
0.063332855, 268.943752391465, 0.00186783505223219, 0.625,105.156150817871
0.0639996016666667, 268.944991366186, 0.00232374765222454, 0.6325,106.126487731934
0.0646662733333333, 268.947992012013, 0.00227020634152283, 0.63875,104.107925415039
0.0653332066666667, 268.950166841472, 0.00228317319019942, 0.64625,108.141052246094
0.065999455, 268.952682701155, 0.0023443206188253, 0.65125,98.3690490722656
0.0666662666666667, 268.954752232808, 0.0022944811222097, 0.65875,98.3690490722656
0.0673331183333333, 268.956839297394, 0.00195784103128644, 0.66625,107.245010375977
0.06799948, 268.959091908341, 0.00198868698191046, 0.6725,106.453681945801
0.068666295, 268.960960335758, 0.00183019444284993, 0.67875,127.184051513672
0.0693328316666667, 268.963184925877, 0.00187657811306656, 0.685,105.450607299805
0.0699994433333333, 268.965010919627, 0.00159845008314633, 0.69125,105.450607299805
0.0706661033333333, 268.967399809164, 0.00161550872631764, 0.69875,102.931991577148
0.07133279, 268.969017249132, 0.00168933951786539, 0.705,102.291114807129
0.0719994983333333, 268.971213607899, 0.00161811259552804, 0.71125,100.93936920166
0.0726660966666667, 268.973063393952, 0.00145848311353604, 0.7175,98.9410247802734
0.0733329783333333, 268.97467207513, 0.00148662320009024, 0.725,98.9410247802734
0.0739995833333333, 268.977199486563, 0.00109451889510399, 0.73125,103.969795227051
0.0746663283333333, 268.979064086291, 0.000596707399668397, 0.73875,103.573707580566
0.0753329666666667, 268.981457790261, 0.000572246628334266, 0.745,108.136512756348
0.0759994333333333, 268.983627576504, 0.000465093510505135, 0.75,105.285018920898
0.07666624, 268.986040282618, 0.000396293466277331, 0.7575,105.285018920898
0.07733287, 268.987462965574, 0.000767251833434512, 0.765,108.373123168945
0.077999515, 268.989280777922, 0.000836222869065541, 0.7725,110.425170898438
0.078666115, 268.990831755921, 0.000944487431068773, 0.7775,106.958145141602
0.079333095, 268.991782566605, 0.000930329642203455, 0.78375,103.222412109375
0.079999455, 268.993523039025, 0.00114715425133861, 0.79125,103.222412109375
0.080666295, 268.994605557418, 0.00111481887550586, 0.7975,108.720802307129
0.0813327866666667, 268.996783314499, 0.00110066558643501, 0.805,106.879638671875
0.0819995183333333, 268.998137795172, 0.00130762669097276, 0.81125,103.36743927002
0.0826662483333333, 269.000658376589, 0.00148904107867463, 0.8175,106.343704223633
0.0833329516666667, 269.002488420782, 0.00143085000153641, 0.8225,106.343704223633
0.0839994166666667, 269.005339839643, 0.00133586877236513, 0.83125,97.5821151733398
0.084666265, 269.007487173738, 0.00149937555957717, 0.8375,138.126953125
0.0853329666666667, 269.009422190634, 0.00106937265816879, 0.84375,108.700531005859
0.085999435, 269.011917503453, 0.000740605671798498, 0.85,105.2958984375
0.0866661183333333, 269.013821554831, 0.000565879448137223, 0.8575,105.2958984375
0.087333015, 269.0163811699, 0.000463751077951678, 0.86375,101.739112854004
0.0879996416666667, 269.018453997155, 0.000143548661390519, 0.87,100.037788391113
0.0886669566666667, 269.021708173071, 0.000284945059212157, 0.87625,101.249496459961
0.0893328016666667, 269.023641570748, 0.000558652811129589, 0.8825,104.992607116699
0.0899994383333333, 269.026812148249, 0.00056180115298338, 0.89,104.992607116699
0.0906662583333333, 269.029154191451, 0.000887701783330204, 0.89625,103.160293579102
0.09133298, 269.032186309871, 0.00127895563105228, 0.90375,104.505760192871
0.0919994983333333, 269.034864921323, 0.00152415431496981, 0.91,103.249313354492
0.092666175, 269.037631732967, 0.00148652870489535, 0.91625,101.926071166992
0.0933328416666667, 269.040660355443, 0.00167235137118354, 0.9225,101.926071166992
0.0939993916666667, 269.042499330131, 0.00162576971094568, 0.92875,99.3524551391602
0.0946662016666667, 269.044645523194, 0.00175303081874679, 0.93625,106.19775390625
0.0953329816666667, 269.04649211978, 0.00177450823997525, 0.9425,104.569175720215
0.0959994583333333, 269.049208848383, 0.00168719912542313, 0.95,107.200088500977
0.09666618, 269.050816754053, 0.00197997241970351, 0.955,107.200088500977
0.0973328183333333, 269.05349078436, 0.00214706102700689, 0.96125,104.761428833008
0.0979996133333333, 269.056234561068, 0.00201234829349515, 0.96875,102.850357055664
0.0986660766666667, 269.058224332779, 0.00179359628116173, 0.97625,107.63639831543
0.09933296, 269.060740442784, 0.00193650910278886, 0.9825,108.113380432129
0.0999994466666667, 269.062794338545, 0.00150807362265819, 0.9875,108.113380432129
0.100666115, 269.065651330945, 0.00143163446212684, 0.995,105.542419433594
0.101333011666667, 269.066958643613, 0.00138121299473651, 1.00125,119.51717376709
0.10199947, 269.069428300984, 0.00156747813887244, 1.00875,97.4351348876953
0.102666118333333, 269.071198396288, 0.00160100895464588, 1.015,102.521949768066
0.103332908333333, 269.074052161659, 0.00178820855179131, 1.02125,102.521949768066
0.103999441666667, 269.07606125388, 0.00140357237166287, 1.0275,101.742378234863
0.10466631, 269.078976203254, 0.00133417985716825, 1.035,105.995094299316
0.105332795, 269.081685600653, 0.00121082155334454, 1.04125,106.872184753418
0.105999525, 269.083317343266, 0.00129602027394247, 1.04875,111.614036560059
0.106666245, 269.085689362178, 0.000856447853225996, 1.05375,111.614036560059
0.107332995, 269.087665340313, 0.000843317512789451, 1.06,105.133407592773
0.107999445, 269.089989952181, 0.000878921224470762, 1.06875,108.35969543457
0.108666211666667, 269.091961442193, 0.000969756661868802, 1.07375,103.403656005859
0.109333051666667, 269.094870570382, 0.000901421594227262, 1.08,103.598907470703
0.109999416666667, 269.096911033115, 0.00110997711868198, 1.0875,103.598907470703
0.110666301666667, 269.099147464126, 0.00125849815860932, 1.09375,101.438125610352
0.111333008333333, 269.101415362914, 0.00110259748932145, 1.1,105.647911071777
0.111999791666667, 269.102910415027, 0.00127112452438261, 1.1075,100.900749206543
0.112666351666667, 269.104770487853, 0.00153850409418, 1.11375,100.81713104248
0.11333307, 269.105921003347, 0.00168474524865307, 1.12,100.81713104248
0.113999546666667, 269.10823449587, 0.0016474121238585, 1.12625,107.660980224609
0.114666116666667, 269.109846519915, 0.0016900414826349, 1.1325,109.750991821289
0.11533281, 269.1124237036, 0.00142656921656688, 1.14,106.524032592773
0.115999451666667, 269.114329707626, 0.00105894068218004, 1.14625,108.348518371582
0.116666141666667, 269.117203951568, 0.00107037010808825, 1.1525,108.348518371582
0.11733303, 269.119483715774, 0.00102201103713497, 1.16,103.979248046875
0.117999478333333, 269.122259456553, 0.00103772574780717, 1.16625,131.319641113281
0.118666498333333, 269.12517841175, 0.00108972063617282, 1.1725,100.618339538574
0.119332975, 269.127901357783, 0.000943450983114835, 1.17875,102.721786499023
0.119999443333333, 269.131402156916, 0.000734830961889521, 1.185,102.721786499023
0.12066611, 269.134157128786, 0.000967943252925198, 1.19125,102.923622131348
0.121333188333333, 269.137267211624, 0.00106783373551851, 1.19875,105.192314147949
0.121999425, 269.140328819045, 0.00136713470194958, 1.205,107.244270324707
0.122666603333333, 269.144191796892, 0.00180774057077119, 1.2125,107.19506072998
0.123332818333333, 269.14704671554, 0.00223076282279532, 1.21875,107.19506072998
0.123999483333333, 269.150373046391, 0.00220499711695405, 1.225,101.526412963867
0.124666288333333, 269.154205318004, 0.00214461914967456, 1.2325,107.146728515625
0.125332953333333, 269.157812116485, 0.00182817854415439, 1.2375,105.324142456055
0.125999665, 269.16204880849, 0.00153438530108852, 1.245,106.757209777832
0.126666161666667, 269.165797881995, 0.00116328894088624, 1.2525,106.757209777832
0.127332785, 269.17060771123, 0.00142644622278706, 1.25875,106.214782714844
0.127999481666667, 269.174579745191, 0.00119115454127464, 1.265,104.361679077148
0.128666255, 269.17883790801, 0.00120010459171918, 1.27125,101.162651062012
0.129333458333333, 269.182765149778, 0.00134280142423223, 1.2775,107.299377441406
0.12999956, 269.187098161222, 0.00144342237015871, 1.285,107.299377441406
0.130666215, 269.191649658785, 0.00126266794925804, 1.29125,103.653861999512
0.131332815, 269.195527051578, 0.00155458328663097, 1.2975,101.78337097168
0.131999448333333, 269.200347587753, 0.00179256433306602, 1.305,104.30884552002
0.13266611, 269.203884661372, 0.00177139289647959, 1.31125,104.30884552002
0.133332805, 269.208989313407, 0.0017772471024457, 1.3175,99.5272750854492
0.133999556666667, 269.212506805056, 0.00178141089326927, 1.325,110.206871032715
0.134666353333333, 269.217570616363, 0.00192687958654714, 1.33125,122.892333984375
0.135332785, 269.221902516369, 0.00171654065165814, 1.3375,102.942024230957
0.13600018, 269.227364543197, 0.00155065348403556, 1.34375,104.424522399902
0.1366661, 269.231404835116, 0.00171345530665054, 1.35125,104.424522399902
0.137332851666667, 269.236052120547, 0.00162548772515786, 1.3575,104.639724731445
0.137999528333333, 269.240904121952, 0.00133698621630061, 1.36375,102.050979614258
0.13866611, 269.245310360051, 0.00146676119784792, 1.37,115.039733886719
0.139333078333333, 269.249975214737, 0.00151964854133978, 1.3775,115.039733886719
0.139999453333333, 269.254200993857, 0.00146094898978635, 1.38375,104.865127563477
0.140666285, 269.259739954851, 0.00167864955494305, 1.39,106.841987609863
0.141333028333333, 269.263782651534, 0.00166540971998256, 1.3975,105.080070495605
0.141999705, 269.268516300211, 0.00154376433012493, 1.40375,103.820358276367
0.142666233333333, 269.272498879598, 0.0014524159184747, 1.41,106.291358947754
0.143332853333333, 269.277308699493, 0.00154872308107351, 1.4175,106.291358947754
0.143999593333333, 269.28124688548, 0.00115994710886944, 1.42375,105.66773223877
0.144666131666667, 269.285824364819, 0.00134831814714385, 1.43,106.035293579102
0.145333056666667, 269.290250760294, 0.00142198094711593, 1.4375,101.837219238281
0.145999456666667, 269.294671883255, 0.00159582521510056, 1.44375,101.045341491699
0.146666501666667, 269.29933536949, 0.00150270239251996, 1.45,101.045341491699
0.147333015, 269.30359472691, 0.00163883405477224, 1.45625,112.323921203613
0.147999436666667, 269.307780067093, 0.00171392778292258, 1.46375,105.580787658691
0.148666128333333, 269.31243375589, 0.00148343586028698, 1.47,107.393936157227
0.14933312, 269.316902739889, 0.00113765972829319, 1.4775,104.946212768555
0.14999966, 269.321698535666, 0.000944977906497417, 1.4825,104.946212768555
0.150666128333333, 269.326208537006, 0.000749096745396889, 1.49,104.499488830566
0.15133312, 269.331808513728, 0.000301943705407344, 1.49625,123.054023742676
0.151999436666667, 269.33593564674, 0.000354264077411013, 1.5025,106.708892822266
0.152666256666667, 269.341981025645, 0.000596986385713674, 1.51,102.725646972656
0.153332798333333, 269.346133128623, 0.00063322756537264, 1.5175,102.725646972656
0.153999595, 269.351874134887, 0.00107474238857391, 1.52375,104.998115539551
0.154666328333333, 269.355752227262, 0.00155846659163364, 1.53,109.05924987793
0.155332815, 269.361170123707, 0.00146021402674374, 1.53625,107.084663391113
0.15599949, 269.36471262183, 0.0014386991074052, 1.5425,107.143600463867
0.15666624, 269.369931649532, 0.00167625117539716, 1.54875,107.143600463867
0.157333023333333, 269.37449999237, 0.00194378073765612, 1.555,107.270454406738
0.157999456666667, 269.379384966685, 0.00143782615123247, 1.56375,108.930213928223
0.158666293333333, 269.384581431532, 0.00151996802534395, 1.57,104.196937561035
0.159332985, 269.389498180774, 0.00162557472083701, 1.575,100.541984558105
0.160000265, 269.39461648127, 0.00139665171942478, 1.5825,100.541984558105
0.160666433333333, 269.398844012319, 0.00101010913508225, 1.58875,102.237274169922
0.161332986666667, 269.404162212593, 0.00132708821352694, 1.59625,107.95068359375
0.161999451666667, 269.408539511471, 0.00140513229344608, 1.6025,103.158714294434
