Time (min), Depth (µm), Load (N), Position (µm), Acoustic (aJ)
7.405E-06, 268.763774068244, -0.000321846546779668, 0,102.947532653809
0.000667703333333333, 268.763394725673, -0.000490936053555811, 0.00124999999999995,103.481834411621
0.00133208666666667, 268.762724771848, -0.000311639559430155, 0.00500000000000023,101.621170043945
0.00199886666666667, 268.761788448956, -0.000204241953902039, 0.0149999999999998,107.892959594727
0.00266577, 268.761817419111, 9.51130098288057E-05, 0.0225,107.892959594727
0.00333214666666667, 268.762395816504, 0.000114483036866862, 0.0300000000000001,102.589889526367
0.00399922333333333, 268.764000107458, -2.11971480550175E-05, 0.0375000000000002,107.85823059082
0.004665825, 268.76680738745, -0.000222599531840372, 0.0449999999999999,124.113632202148
0.005332135, 268.769470810765, -0.000130321166890095, 0.0512500000000001,103.314140319824
0.00599900166666667, 268.772615115496, -0.000168194264533601, 0.0574999999999998,103.314140319824
0.00666567833333333, 268.775569094181, -0.000177703786865567, 0.0649999999999999,105.994209289551
0.00733208166666667, 268.778633523587, 9.99952645903197E-05, 0.0712500000000001,106.963653564453
0.00799877666666667, 268.781976929663, -2.47924674447413E-05, 0.0787499999999998,107.708106994629
0.00866558666666667, 268.785136778181, -8.18301024830577E-05, 0.08625,105.297546386719
0.00933217833333333, 268.788498703755, -0.000182238059144271, 0.0912500000000002,105.297546386719
0.00999899, 268.79144452297, -0.000579500605067253, 0.0987499999999999,109.440322875977
0.010665685, 268.795071406503, -0.000703059898782251, 0.105,110.804092407227
0.01133231, 268.79670317122, -0.000695137296723981, 0.11125,105.314071655273
0.0119988866666667, 268.800313675624, -0.00060998507384632, 0.11875,104.090911865234
0.01266921, 268.80221119535, -0.000449091155369839, 0.12625,104.090911865234
0.0133321533333333, 268.806057257581, -0.000257073800190981, 0.13125,102.528770446777
0.013999205, 268.808000494332, -0.000240933110945745, 0.13875,99.1089248657227
0.0146655933333333, 268.812250224494, -0.000205966867242088, 0.14375,102.748779296875
0.015332055, 268.814728239225, -0.000210601634455811, 0.15125,102.718879699707
0.0159992816666667, 268.819120950707, -0.000219586183182874, 0.15625,104.817543029785
0.016665495, 268.821922496659, -4.89892520413916E-05, 0.16375,104.817543029785
0.0173321916666667, 268.825950982542, -0.000162073072002455, 0.17,106.950157165527
0.0179988633333333, 268.829863748821, -0.000160598646037749, 0.17625,110.114700317383
0.0186655483333333, 268.833954965764, -0.000586521752367879, 0.18375,106.014434814453
0.0193320666666667, 268.83782284315, -0.0005633134180805, 0.19,105.195281982422
0.0199987983333333, 268.841409924184, -0.000678762619229328, 0.19625,105.195281982422
0.0206657983333333, 268.84551931809, -0.000393056969884827, 0.2025,109.722785949707
0.02133238, 268.848823203164, -0.000446820269440733, 0.21,124.08952331543
0.0219987516666667, 268.85314228021, -7.54929207953344E-05, 0.21625,105.004653930664
0.0226655466666667, 268.856715601114, -9.94587170126289E-05, 0.2225,107.987716674805
0.0233323833333333, 268.86053071794, 0.000134093051936965, 0.22875,107.987716674805
0.02399887, 268.863972684489, 0.00029326055708523, 0.23625,101.09757232666
0.02466621, 268.867633670843, 0.000532843523101774, 0.24375,101.459213256836
0.025332105, 268.871069677089, 0.000443137528906912, 0.24875,108.313217163086
0.0259989533333333, 268.874723817759, 0.000190908698057329, 0.255,109.83186340332
0.02666579, 268.878769752951, 9.90518119281295E-05, 0.2625,109.83186340332
0.02733202, 268.882048134014, -0.00017864123980889, 0.27,101.290878295898
0.027999235, 268.886121167626, -0.00036180153987747, 0.275,103.559783935547
0.0286657333333333, 268.889498474168, -0.000463557928768499, 0.2825,102.950714111328
0.0293324633333333, 268.892972767032, -0.000456425786977016, 0.28875,100.684135437012
0.0299987716666667, 268.896923108445, -0.000616023770556541, 0.29625,100.684135437012
0.030832085, 268.900852707178, -0.000800283515382741, 0.30375,100.478691101074
0.0314987783333333, 268.904871765024, -0.000645747777556884, 0.31125,108.463897705078
0.0321657933333333, 268.908323497616, -0.00067668972336396, 0.31625,109.557357788086
0.03283211, 268.912458150626, -0.000603908879068525, 0.32375,107.911117553711
0.03349871, 268.915791691812, -0.000673200898606868, 0.33,114.708953857422
0.03416565, 268.919974333217, -0.000832062419155614, 0.33625,114.708953857422
0.03483251, 268.923139722644, -0.00101113542452393, 0.34375,104.82177734375
0.035498885, 268.926944158828, -0.00096120893227169, 0.35,105.068153381348
0.0361657066666667, 268.930572979202, -0.00116028793275257, 0.35625,107.921478271484
0.0368322633333333, 268.934203030848, -0.00105465573850214, 0.3625,128.778060913086
0.0374987983333333, 268.938045846685, -0.000707969152204278, 0.36875,128.778060913086
0.0381653933333333, 268.941519359317, -0.00064360588508395, 0.37625,108.410041809082
0.038832095, 268.945483721324, -0.000501741510805987, 0.3825,105.892036437988
0.0394989216666667, 268.94744026847, -0.0002801201426003, 0.38875,103.352348327637
0.04016569, 268.949653525622, -0.000441083057620584, 0.395,105.486351013184
0.04083228, 268.951521215179, -0.00054876264897902, 0.4025,105.486351013184
0.0414988166666667, 268.954340667219, -0.000627219208172817, 0.40875,102.34188079834
0.0421653766666667, 268.95678217196, -0.00072118348842866, 0.415,102.812385559082
0.042832065, 268.960714039438, -0.000829788533292685, 0.4225,103.10994720459
0.0434990633333333, 268.96464838667, -0.000698965104438718, 0.42875,106.643768310547
0.0442011833333333, 268.967930100696, -0.000645725278627073, 0.43625,106.643768310547
0.0448321933333333, 268.971598657462, -0.000669443587296576, 0.4425,106.281982421875
0.0454990166666667, 268.97460048368, -0.000328236225821506, 0.45,108.784492492676
0.0461657733333333, 268.977810211646, 4.29321307521314E-05, 0.455,106.314521789551
0.0468320983333333, 268.980531824447, 0.000273461551497808, 0.46125,99.567497253418
0.047498755, 268.983743172899, 0.000255814937875398, 0.46875,99.567497253418
0.0481655283333333, 268.985965013633, 0.000468391760377892, 0.475,105.969032287598
0.0488322866666667, 268.98911253537, -0.000104315473101796, 0.48125,104.86198425293
0.0494988166666667, 268.991885518401, -0.000474817863134116, 0.48875,106.668998718262
0.0501654083333333, 268.99480804362, -0.000750544513659653, 0.495,110.581733703613
0.05083211, 268.998015598743, -0.000825021772731476, 0.50125,110.581733703613
0.0514988016666667, 269.000818115505, -0.000932288884815254, 0.50875,107.631256103516
0.0521655966666667, 269.003601656867, -0.000453461935803572, 0.515,109.098556518555
0.0528322316666667, 269.00597619778, -0.000219907167068934, 0.52125,110.722778320313
0.053498795, 269.008442413091, 8.76448849284849E-05, 0.52875,123.644119262695
0.0541655866666667, 269.010329585125, 9.39430685817235E-05, 0.535,123.644119262695
0.0548321583333333, 269.012814031025, 0.00032826729872652, 0.54125,111.004081726074
0.0554987133333333, 269.014955544344, 0.000363302538910218, 0.5475,106.483917236328
0.056165505, 269.017289289187, 4.31961175533753E-05, 0.55375,103.26985168457
0.0568320883333333, 269.02006138387, -0.000175914376733669, 0.56125,105.800468444824
0.0574988483333333, 269.022175631096, -0.00019325500575656, 0.56875,105.800468444824
0.05816557, 269.024714227546, -0.000323163480554507, 0.575,104.271118164063
0.05883221, 269.026624782615, -0.000737703658611682, 0.58125,102.316619873047
0.0594987616666667, 269.029397114379, -0.000822228913003766, 0.5875,98.8461074829102
0.0601658916666667, 269.03120699658, -0.000716203738538426, 0.59375,102.233459472656
0.0608320766666667, 269.034179892858, -0.000801708443714615, 0.6,102.233459472656
0.06149882, 269.03595858, -0.000867993114314327, 0.6075,104.966621398926
0.062165415, 269.038349484561, -0.000705191291699346, 0.61375,101.579116821289
0.0628321416666667, 269.040208251428, -0.000377928729781823, 0.6225,103.135269165039
0.0634989033333333, 269.041865573228, -0.0003767152907483, 0.6275,102.111557006836
0.06416561, 269.04359647297, -0.000381512049797575, 0.63375,102.111557006836
0.0648322516666667, 269.045484248013, -0.000538278175572396, 0.64,108.683822631836
0.065499055, 269.04756712721, -0.000437930215929821, 0.6475,106.68408203125
0.0661660533333333, 269.049416035306, -0.000582407458943341, 0.655,98.6857681274414
0.0668320866666667, 269.051975366746, -0.000553803895663517, 0.66125,108.410781860352
0.0674989333333333, 269.053922880766, -0.000112595057125533, 0.66625,108.410781860352
0.0681655, 269.055826216896, 0.000170872704562972, 0.6725,103.792022705078
0.06883217, 269.057626353409, 0.000290289206353532, 0.68,104.714942932129
0.0694990466666667, 269.058913684204, 0.000628535716588981, 0.6875,107.663238525391
0.0701655783333333, 269.060928243384, 0.000879318620016267, 0.6925,124.349784851074
0.0708320833333333, 269.06224481247, 0.000672516507444004, 0.69875,124.349784851074
0.07149883, 269.064584169717, 0.000498591243541593, 0.70625,107.946769714355
0.0721654733333333, 269.066144367414, 0.000231957136300155, 0.71375,108.12825012207
0.0728324883333333, 269.068540031366, -0.000188551242020288, 0.72,105.185890197754
0.0734990016666667, 269.070013036693, -0.000375167368466581, 0.72625,104.030403137207
0.0741660433333333, 269.072154345213, -0.000631667984696774, 0.7325,104.030403137207
0.0748322616666667, 269.073832374396, -0.000575602300820547, 0.74,102.573402404785
0.0754990583333333, 269.075601968441, -0.000287903251625304, 0.74625,106.054916381836
0.0761654466666667, 269.077696092442, 0.000179185287029851, 0.75375,108.405792236328
0.0768322383333333, 269.079453553504, -8.00406923086514E-05, 0.76,103.688491821289
0.0774987316666667, 269.081787271885, 0.000173521571547969, 0.765,103.688491821289
0.0781663466666667, 269.083277804883, 0.000305055964717859, 0.7725,104.600288391113
0.078832485, 269.085489903754, 0.000359645722704977, 0.78,103.997894287109
0.0794987283333333, 269.087408672381, 6.35650945415593E-05, 0.78625,105.744255065918
0.0801655733333333, 269.089871785415, 0.000304078013794394, 0.79125,101.541862487793
0.0808321016666667, 269.091916039782, 0.000396170388076159, 0.8,101.541862487793
0.0814987716666667, 269.094657755578, 4.29246312363857E-05, 0.80625,104.317405700684
0.0821655016666667, 269.097735297892, -6.74788232847032E-05, 0.8125,101.880004882813
0.0828320433333333, 269.100249314475, -0.000181929074610929, 0.81875,109.282775878906
0.0834987133333333, 269.103214281711, -2.05866786528587E-05, 0.825,103.471084594727
0.0841662516666667, 269.105580866643, -0.000345288869188939, 0.8325,103.471084594727
0.0848321266666667, 269.109055236704, -9.56249095152625E-05, 0.83875,106.920768737793
0.0854990333333333, 269.111252206223, -0.00030601334193083, 0.845,101.353019714355
0.0861656016666667, 269.114052042244, -8.11071387506546E-05, 0.85125,101.294677734375
0.08683245, 269.116142087488, -0.000284651414945181, 0.85875,124.306304931641
0.0874989016666667, 269.119761841958, -0.000214531437008715, 0.865,124.306304931641
0.08816561, 269.122167315781, -0.000437639230531827, 0.8725,106.521621704102
0.0888322066666667, 269.125090847963, -0.000221866068573384, 0.8775,99.4602432250977
0.0894989516666667, 269.128041512046, -0.000409865125553275, 0.885,106.479797363281
0.09016578, 269.131156831838, -0.00048115354481242, 0.8925,104.287826538086
0.0908321366666667, 269.13398664266, -0.000393008972218906, 0.89875,104.287826538086
0.091499335, 269.136684498607, -0.000331515060992109, 0.905,106.034965515137
0.0921653883333333, 269.139704796958, -0.000235285894462266, 0.91125,106.675514221191
0.092832165, 269.142569996089, -0.000153959979374938, 0.91875,100.784240722656
0.09349881, 269.145733487406, -0.00012160060473048, 0.925,106.479286193848
0.09416558, 269.148657081402, -0.000130460659710819, 0.93125,106.479286193848
0.0948321466666667, 269.15120037623, 6.57009872743722E-05, 0.93625,102.329795837402
0.0954989533333333, 269.153478834042, 9.19301697775025E-05, 0.945,103.022300720215
0.0961657616666667, 269.155836240583, 0.000209611258778444, 0.95125,103.732894897461
0.0968321083333333, 269.158767184731, -2.12016477432108E-05, 0.95625,103.685096740723
0.0974989366666667, 269.160456729791, 0.000154934505090921, 0.96375,103.685096740723
0.0981655433333333, 269.163490011112, 0.000120718223737672, 0.97125,104.268295288086
0.0988321166666667, 269.166223588492, -0.00017733630523799, 0.9775,105.580223083496
0.0994988266666667, 269.16891937839, -0.000221171603447151, 0.98375,106.955955505371
0.100165485, 269.17068862264, 0.000195475968800429, 0.99,107.677032470703
0.100832093333333, 269.172876750711, 8.28601254444697E-05, 0.99625,107.677032470703
0.101498886666667, 269.175026049347, -0.000151119122023815, 1.00375,104.20378112793
0.102165695, 269.176949860695, -6.91572388832355E-05, 1.01,104.528541564941
0.102832225, 269.179356747165, -0.000158942729028962, 1.01625,107.777114868164
0.103498776666667, 269.181390044054, -0.000113192027059284, 1.02375,126.027442932129
0.104165656666667, 269.184711335064, -2.23060055391233E-06, 1.03,126.027442932129
0.104832095, 269.187206623601, 0.000100145257221933, 1.03625,100.571350097656
0.105499188333333, 269.190363988071, 0.000315960417021158, 1.0425,104.857612609863
0.106165496666667, 269.19268015933, 0.000216270924319139, 1.04875,107.021545410156
0.106832083333333, 269.196106443714, -7.04366746117554E-05, 1.05625,107.972686767578
0.107498765, 269.198866940999, -0.000270613619947107, 1.06375,107.972686767578
0.10816544, 269.202027149328, -0.000296379325745868, 1.06875,105.825248718262
0.108832243333333, 269.205556617801, -0.000467301740504112, 1.075,104.051864624023
0.109499025, 269.208878000289, -0.000319169181060976, 1.0825,107.411674499512
0.110165775, 269.212290664781, -0.000309926645336552, 1.08875,107.296661376953
0.110832123333333, 269.21459561368, 0.000109284298120023, 1.095,107.296661376953
0.111498793333333, 269.217929743796, 0.000397745309039645, 1.10125,107.38045501709
0.112165475, 269.220643608941, 0.000423869496855802, 1.10875,105.840438842773
0.112832115, 269.224547120892, 0.000110172253536785, 1.115,101.033493041992
0.113499166666667, 269.22759194893, 9.00177658870455E-05, 1.12125,106.860275268555
0.11416566, 269.231996848143, -0.000321545061740818, 1.12875,106.860275268555
0.114832096666667, 269.235801569479, -0.000755870746023277, 1.135,103.308120727539
0.115498946666667, 269.239556934954, -0.00091738713323338, 1.14125,101.803558349609
0.11616549, 269.243421419734, -0.000641667982308605, 1.14875,106.66162109375
0.116832115, 269.246923615369, -0.000630768029821024, 1.155,109.446441650391
0.117499101666667, 269.251427705769, -0.000785986233399142, 1.16125,109.446441650391
0.1181655, 269.254348469182, -0.000856046214338223, 1.1675,113.960090637207
0.11883209, 269.258527940639, -0.000610073569279841, 1.17375,106.894332885742
0.119499005, 269.261915442259, -0.000935635216669021, 1.18,126.706871032715
0.120165733333333, 269.266516590356, -0.000818390605754443, 1.18625,111.875030517578
0.120832151666667, 269.26984263319, -0.000760327022211758, 1.1925,111.875030517578
0.121498743333333, 269.274450039816, -0.000631071014635498, 1.20125,101.307807922363
0.122165546666667, 269.278553613647, -0.000814378307274344, 1.2075,105.092224121094
0.122832221666667, 269.28242737157, -0.000665740273201039, 1.21375,101.223907470703
0.12349872, 269.286947585649, -0.000944676762502154, 1.22,103.768577575684
0.124165765, 269.290784091216, -0.000899731520043296, 1.22625,103.768577575684
0.124832076666667, 269.295594468187, -0.000782557405596926, 1.2325,106.848770141602
0.125498858333333, 269.299356399777, -0.00109617365299817, 1.24,106.102363586426
0.126165678333333, 269.304708142418, -0.000985686202667987, 1.24625,106.030769348145
0.126832031666667, 269.308744111112, -0.000791871937777722, 1.25375,103.898025512695
0.127498908333333, 269.313418654576, -0.000517783204976846, 1.26,103.898025512695
0.128165461666667, 269.317472787336, -0.000206751327768754, 1.26625,105.280868530273
0.12883211, 269.322425741493, 5.20576725006259E-05, 1.27375,107.519027709961
0.129498955, 269.32687602319, 0.000208208829206349, 1.27875,106.602760314941
0.130165578333333, 269.33086477643, 0.000446621853975811, 1.28625,105.098281860352
0.130832096666667, 269.335789236527, 0.000541537086473352, 1.29375,105.098281860352
0.131498901666667, 269.340020259463, 0.000365942406412558, 1.3,108.5478515625
0.132165775, 269.34479810143, 0.00077799870925411, 1.30625,104.492874145508
0.132832353333333, 269.348727674749, 0.000711844532119989, 1.31375,110.34236907959
0.133498913333333, 269.353959007412, 0.00069972514083751, 1.32,102.573036193848
0.134165815, 269.358434556835, 0.000689551151867377, 1.32625,102.573036193848
0.134832181666667, 269.363414832072, 0.000811066048301922, 1.3325,105.925430297852
0.135498751666667, 269.368084867604, 0.000699198667308205, 1.33875,101.18091583252
0.136165608333333, 269.372471776686, 0.000609954649914563, 1.34625,123.237678527832
0.136832088333333, 269.377235101895, 0.000445607904887922, 1.35375,103.334869384766
0.137498938333333, 269.381691747768, 0.000173020596648502, 1.35875,103.334869384766
0.138165455, 269.386649304143, 9.97897749470734E-05, 1.36625,108.40022277832
0.13883211, 269.391004346972, -4.04321818542729E-05, 1.3725,103.404113769531
0.139498753333333, 269.39635251399, 4.27056422097477E-05, 1.37875,107.776565551758
0.14016543, 269.400256533311, 0.000385015448333754, 1.385,97.6347045898438
0.140832303333333, 269.404830863164, 0.00053606386136943, 1.3925,97.6347045898438
0.141498766666667, 269.409135237482, 0.000467646297928219, 1.39875,102.310653686523
0.142165451666667, 269.413428945487, 0.000473912983168989, 1.405,102.31901550293
0.142832096666667, 269.418362649737, 0.000580073150851877, 1.4125,104.582992553711
0.143499015, 269.422891214643, 0.000584131946967223, 1.41875,99.1886444091797
0.144165456666667, 269.428299151729, 0.000732080015687505, 1.425,99.1886444091797
0.144832121666667, 269.432412687469, 0.000974815823288541, 1.43125,103.905723571777
0.145498886666667, 269.437783330116, 0.00100410635207258, 1.43875,105.371208190918
0.146165483333333, 269.441989227656, 0.00103559277054431, 1.445,103.692268371582
0.146832133333333, 269.447150538401, 0.00086402838807771, 1.45125,108.099212646484
0.14749894, 269.451515879675, 0.000804005902945558, 1.45875,108.099212646484
0.148165745, 269.456654883669, 0.000521006117713378, 1.465,104.029647827148
0.14883214, 269.461417500843, 0.000699590147619963, 1.4725,104.888374328613
0.149498965, 269.465763032233, 0.00038458946976072, 1.48,100.464256286621
0.150165636666667, 269.471089090644, 0.000286557393821858, 1.485,107.159629821777
0.15083214, 269.475631491958, 2.76688975165963E-05, 1.49125,107.159629821777
0.151498766666667, 269.480889248368, 0.000295906424221421, 1.49875,107.039764404297
0.15216556, 269.485619230402, 0.000100331247720412, 1.505,104.96263885498
0.152832205, 269.491029147635, 0.00042737032090185, 1.5125,125.213912963867
0.153499566666667, 269.495462419073, 0.000685924334001422, 1.51875,102.877960205078
0.15416544, 269.500403056435, 0.000944430349498836, 1.52375,102.877960205078
0.154832086666667, 269.505501991594, 0.000717329756555375, 1.53125,107.556991577148
0.155499236666667, 269.509814920725, 0.00087887464232914, 1.5375,103.939331054688
0.156165463333333, 269.515103300567, 0.000744098911992457, 1.545,102.011978149414
0.156832081666667, 269.51971241169, 0.000537710778661764, 1.55125,104.17554473877
0.157498888333333, 269.525223349065, 0.000516206358815298, 1.5575,104.17554473877
0.158165783333333, 269.529661618819, 0.000376692366481068, 1.56375,106.42463684082
0.15883214, 269.535308493234, 0.000148990303703122, 1.57,105.310974121094
