Time (min), Depth (µm), Load (N), Position (µm), Acoustic (aJ)
8.405E-06, 268.695863775415, 6.33897861292898E-05, 0,107.645011901855
0.000667628333333333, 268.695858988536, 6.42264751667238E-06, 0.00124999999999995,102.911529541016
0.001333035, 268.695750219809, -0.000136044696498925, 0.00625000000000018,112.854629516602
0.00199967, 268.695220752786, -0.000199049031876106, 0.0149999999999998,112.854629516602
0.002666445, 268.696049941609, -0.000366548618572255, 0.0225,103.450721740723
0.003333095, 268.696550742538, -0.000547538527625493, 0.0300000000000001,123.040481567383
0.00399957, 268.698578845307, -0.000369117989500117, 0.0375000000000002,109.243026733398
0.00466680333333333, 268.700107295727, -0.000149698510679731, 0.04375,102.47721862793
0.00533343833333333, 268.702673161025, 0.00020847299872925, 0.0500000000000001,102.47721862793
0.005999605, 268.70432293021, 0.000410044874035935, 0.0562499999999999,101.021995544434
0.00666656166666667, 268.706500279863, 0.000451970768160937, 0.06375,108.19979095459
0.00733327, 268.708476518567, 0.000754529570905985, 0.0712500000000001,110.724983215332
0.00799978666666667, 268.711239940633, 0.000503157197103202, 0.0787499999999998,105.55883026123
0.00866643666666667, 268.714828390073, 0.000295863109284163, 0.085,105.55883026123
0.00933314666666667, 268.717379251705, 3.18298714043092E-05, 0.0912500000000002,99.166862487793
0.00999965, 268.721788333283, 0.000175956132064959, 0.0987499999999999,107.68709564209
0.0106664783333333, 268.724695628835, -0.000413665751843333, 0.105,103.495544433594
0.0113329733333333, 268.729589843345, -0.000527514533377583, 0.11125,103.032371520996
0.0119995883333333, 268.73184562705, -0.000667517501152291, 0.11875,107.705520629883
0.01266649, 268.736359721023, -0.000465464150069652, 0.125,107.705520629883
0.0133332233333333, 268.738956048302, -0.000621559809529947, 0.13125,111.335800170898
0.0139996166666667, 268.743046121306, -0.000494012216125301, 0.1375,103.932418823242
0.0146664816666667, 268.745712139227, -0.000347352582658705, 0.14375,100.786674499512
0.0153330066666667, 268.749672748604, -8.16049309096245E-05, 0.15125,106.040061950684
0.0159996333333333, 268.753233923633, -0.000221568900671102, 0.1575,106.040061950684
0.0166667283333333, 268.756885428092, -0.000564625669275455, 0.1625,104.89444732666
0.0173330716666667, 268.760880432454, -0.000538523980325348, 0.17,104.502769470215
0.01799985, 268.763685904121, -0.000440248916569395, 0.1775,108.422027587891
0.01866647, 268.767774718692, -0.00053264427564438, 0.18375,102.982635498047
0.019333065, 268.770799087698, -0.00058516113776613, 0.19,102.982635498047
0.0199995433333333, 268.774497314017, -2.69056783773066E-05, 0.19625,121.700157165527
0.020666255, 268.777709230834, 2.77456216328384E-07, 0.20375,100.495582580566
0.0213334416666667, 268.782111891583, -0.000353809758362451, 0.20875,107.346000671387
0.0219996983333333, 268.785590872267, -0.00037933847606299, 0.21625,101.358154296875
0.022666645, 268.789614854704, -0.000318132550406634, 0.2225,101.358154296875
0.0233330466666667, 268.793875820599, -0.000243611793484609, 0.23,101.274482727051
0.0239996266666667, 268.797764408047, -0.000331499878941403, 0.235,104.078285217285
0.02466647, 268.801913456857, -4.54930136351925E-06, 0.2425,104.986518859863
0.0253330966666667, 268.805922989382, -0.000223988279179893, 0.25,105.289489746094
0.0259996583333333, 268.809999586087, -0.00011215239657739, 0.255,105.289489746094
0.0266663133333333, 268.813390601823, -0.000368765507137827, 0.2625,104.225425720215
0.027333525, 268.816933323054, -8.81326030178156E-05, 0.26875,102.007514953613
0.0279996266666667, 268.820556377073, -4.87175827902032E-05, 0.275,102.625198364258
0.0286664866666667, 268.823932636153, 4.04229397771061E-05, 0.2825,103.962814331055
0.029333275, 268.828271609752, -6.36568323971429E-05, 0.29,103.962814331055
0.02999958, 268.831949079282, -0.000284511739105241, 0.295,106.97713470459
0.0306663316666667, 268.836150240418, -0.000322131349524597, 0.30125,108.254623413086
0.0313332, 268.839437377922, -0.000577502522509104, 0.3075,105.951080322266
0.0319996283333333, 268.84316060579, -0.000474178712340367, 0.315,103.352806091309
0.03266645, 268.845775417932, -0.000143236835202775, 0.32125,103.352806091309
0.033333125, 268.849508790727, -0.000106031203982481, 0.32875,100.271682739258
0.03399969, 268.85245428851, -2.35548466653138E-05, 0.335,103.259300231934
0.034666465, 268.85545287143, 0.000253557734285137, 0.34125,110.657958984375
0.0353329366666667, 268.859082902722, 0.00027438418819506, 0.3475,103.221572875977
0.0359997383333333, 268.862096214336, 8.73135845695637E-05, 0.355,103.221572875977
0.036666275, 268.865729009415, 6.70436027195195E-05, 0.36125,128.555633544922
0.0373330566666667, 268.869027578367, 0.00016154485597549, 0.3675,105.783187866211
0.0379998566666667, 268.872883686443, 0.000101808856468123, 0.37375,100.686195373535
0.0386663266666667, 268.875789755826, 6.46242242107285E-05, 0.38,110.539329528809
0.0393329583333333, 268.878482498722, -0.000120751464605291, 0.3875,110.539329528809
0.03999971, 268.879497758057, 1.11579097504295E-05, 0.39375,105.896087646484
0.0406662816666667, 268.881431724481, -4.83141030194563E-05, 0.4,106.71443939209
0.0413330033333333, 268.883885437463, -0.000327924058547667, 0.4075,102.718078613281
0.0419996483333333, 268.885945593859, -0.000257637588938678, 0.41375,104.427688598633
0.0426663166666667, 268.889554264838, -0.000242206364021199, 0.42,104.427688598633
0.0433332166666667, 268.892971599152, -0.000293770773998101, 0.4275,102.345878601074
0.0439996366666667, 268.896480793691, -0.000249173514085815, 0.43375,100.000198364258
0.0446663383333333, 268.898814633379, 8.9522973555628E-05, 0.44,99.7760620117188
0.0453337933333333, 268.902426987379, -9.80291059095845E-05, 0.44625,100.840682983398
0.0459996883333333, 268.905264601081, -1.60222250794154E-05, 0.45375,100.840682983398
0.0466663933333333, 268.908902814883, 0.000229864924245473, 0.46,104.150657653809
0.0473330333333333, 268.912478164388, 0.000104192236684965, 0.4675,102.117218017578
0.0479995916666667, 268.915830460828, -2.59442266860397E-05, 0.4725,103.071662902832
0.0486668083333333, 268.919407492307, 0.000338615461840376, 0.48,100.235610961914
0.0493331716666667, 268.922026927224, 0.000320887852321444, 0.48625,100.235610961914
0.0500010483333333, 268.925637885438, 0.000377616502890181, 0.4925,103.401573181152
0.050666735, 268.927755056988, 0.000460830823120022, 0.5,106.874588012695
0.0513329833333333, 268.931870294317, 0.000517587972273675, 0.50625,104.497764587402
0.051999765, 268.934137461069, 0.000582168728411221, 0.51375,106.148216247559
0.0526662816666667, 268.938022290585, 0.000604553604031179, 0.52,106.148216247559
0.053333305, 268.940203073838, 0.000451486292472415, 0.52625,124.602333068848
0.0540004716666667, 268.943689878185, 0.000439260406557304, 0.5325,105.480766296387
0.054666475, 268.946689017269, 0.000212746284098025, 0.54,105.380958557129
0.0553330283333333, 268.949124468827, 7.66641193935642E-05, 0.54625,101.113830566406
0.055999605, 268.951666253722, 0.000118904997685759, 0.55375,101.113830566406
0.0566662966666667, 268.954411679731, 0.00018091338306789, 0.56,104.892211914063
0.05733312, 268.957819186395, -9.63131921159543E-05, 0.565,101.265640258789
0.0579996416666667, 268.959242505822, 0.000169209470951384, 0.5725,100.942474365234
0.0586662983333333, 268.962465177232, -2.37543366747095E-05, 0.57875,103.793991088867
0.0593330783333333, 268.964424333483, -9.84640840715457E-05, 0.58625,103.793991088867
0.0599998516666667, 268.96711986966, -0.000505024662964381, 0.5925,102.68669128418
0.0606663783333333, 268.968957851954, -0.000425933635620481, 0.59875,108.651672363281
0.0613331283333333, 268.9715255027, -0.000667562498841881, 0.605,104.758583068848
0.0619996933333333, 268.973661077251, -0.000566094095500039, 0.61125,99.3125
0.062666295, 268.975772424904, -0.000697040518176328, 0.62,99.3125
0.0633331733333333, 268.978199050346, -0.000319305491396253, 0.62625,107.861328125
0.063999705, 268.979511070126, -0.000299651978603472, 0.6325,98.6576232910156
0.0646663666666667, 268.981741832062, -0.000221591399494643, 0.6375,100.368194580078
0.0653329766666667, 268.983296703557, -8.75986298027312E-05, 0.645,102.177131652832
0.0659996583333333, 268.985549789971, 0.000142248325190685, 0.65125,102.177131652832
0.06666628, 268.986811725537, -5.74906421126451E-05, 0.65875,104.455291748047
0.0673330916666667, 268.989382024826, -4.92920539216673E-05, 0.66625,105.742584228516
0.0679996433333333, 268.990648509006, 0.000275186647835819, 0.67125,103.478401184082
0.06866649, 268.992482749002, -0.000123673317831682, 0.6775,100.932403564453
0.0693329683333333, 268.994345710561, 0.000107175586854397, 0.685,100.932403564453
0.0699996316666667, 268.996251262326, 1.08234264809784E-05, 0.6925,127.929306030273
0.07066635, 268.998014968514, 0.000332321777981602, 0.69875,103.252632141113
0.071333135, 269.000082013864, 0.000333602713634525, 0.70375,105.915481567383
0.0719996416666667, 269.002608761044, 0.000304769661878495, 0.71125,114.674201965332
0.0726663166666667, 269.004406073623, -9.55302314499291E-05, 0.71875,114.674201965332
0.0733333016666667, 269.006217952675, 0.000289825912519599, 0.725,100.075569152832
0.0739996483333333, 269.008113679357, 0.000182141821409207, 0.73,103.774864196777
0.074666375, 269.010290319611, 2.05474380876268E-05, 0.7375,107.926132202148
0.075333155, 269.012706477399, 0.000303079246820974, 0.745,109.326797485352
0.0759997033333333, 269.014976141542, 0.000309728412848337, 0.75125,109.326797485352
0.0766664683333333, 269.018321153694, -8.91585514796767E-05, 0.7575,109.282737731934
0.077332965, 269.02071215578, -0.000261496895087137, 0.765,103.787719726563
0.0779997266666667, 269.023848526978, -8.24838867374581E-05, 0.77125,101.282257080078
0.078666425, 269.02571232909, 2.87382582595787E-06, 0.77625,111.690574645996
0.0793329616666667, 269.02842786932, 7.26773196495738E-05, 0.785,111.690574645996
0.0799996483333333, 269.03072840659, 3.87490238242588E-05, 0.79125,106.162490844727
0.0806664316666667, 269.033631642754, 0.000106773607029308, 0.7975,105.469917297363
0.0813331516666667, 269.035853002271, -0.000110637472590034, 0.80375,107.107612609863
0.0819997033333333, 269.038623602305, -0.000194981236086815, 0.81,105.1591796875
0.0826662983333333, 269.041419548071, -0.000160601462952357, 0.8175,105.1591796875
0.08333317, 269.043869758846, -0.000175267726296649, 0.8225,104.084686279297
0.0839996066666667, 269.046219756648, -2.38023342556137E-05, 0.83,108.681785583496
0.084666365, 269.048698897336, -0.000219708994092251, 0.8375,106.95223236084
0.0853333216666667, 269.051540086527, -0.00017542071862829, 0.84375,123.971145629883
0.085999605, 269.054025156098, -0.000193704800228355, 0.85,123.971145629883
0.0866665733333333, 269.056558757697, 8.22783374339009E-05, 0.85625,107.088485717773
0.0873331366666667, 269.059189473666, -0.000134991749291534, 0.86375,103.626945495605
0.0879997333333333, 269.061830377059, -7.40768089906652E-05, 0.87,103.117713928223
0.0886664566666667, 269.064328663611, -0.000191789396446584, 0.87625,101.846992492676
0.0893329133333333, 269.066799973084, 1.64976415186995E-05, 0.88375,101.846992492676
0.0899997816666667, 269.069596510532, 0.000108021544366613, 0.88875,101.271171569824
0.090666305, 269.072131779221, 0.000470017861641526, 0.89625,104.276725769043
0.091332975, 269.074402881186, 0.00071686046302383, 0.90375,103.30982208252
0.0919997966666667, 269.077196729258, 0.000814588054245069, 0.91,102.605972290039
0.0926663783333333, 269.079521871225, 0.000649333854784425, 0.91625,102.605972290039
0.0933329416666667, 269.082283441262, 0.000429245409573916, 0.92125,106.526527404785
0.0939996216666667, 269.084293944269, 0.000224268705361737, 0.92875,108.341217041016
0.0946664216666667, 269.086877800979, 0.000230496392546769, 0.93625,104.430656433105
0.0953330933333333, 269.088353548141, 0.000398921432748506, 0.9425,103.667663574219
0.09599971, 269.091531838508, 0.000590560806913982, 0.95,103.667663574219
0.0966662733333333, 269.093223883946, 0.000807070431860695, 0.95625,105.454193115234
0.0973334066666667, 269.096442896738, 0.000563931144467657, 0.96125,100.886512756348
0.0979995983333333, 269.098461951426, 0.000491171299135122, 0.96875,100.57869720459
0.0986662983333333, 269.101265785856, 0.000283589225766894, 0.97625,107.592247009277
0.0993335883333333, 269.103890792224, -0.000212932334448103, 0.9825,107.592247009277
0.099999595, 269.105615009425, -0.000452494301480493, 0.9875,104.902938842773
0.100667, 269.107475650361, -0.000246785634010746, 0.995,102.797996520996
0.101332986666667, 269.109476218837, -0.000410692901102216, 1.00125,106.384162902832
0.101999651666667, 269.112447001069, -0.000550163395650005, 1.00875,124.031379699707
0.10266683, 269.113224969778, -0.000270089963459934, 1.01375,124.031379699707
0.103333108333333, 269.116093622528, -0.000299740474143264, 1.02125,105.487442016602
0.103999686666667, 269.117894110947, -0.00027516270866317, 1.0275,97.4146347045898
0.104666263333333, 269.120696486784, -0.000237193615815347, 1.03375,104.748497009277
0.105332991666667, 269.122157437983, -0.000304948212564047, 1.04,107.723121643066
0.105999683333333, 269.124886355448, -0.000411351368021516, 1.0475,107.723121643066
0.106666405, 269.127211456596, -0.000167624110177385, 1.055,101.533905029297
0.107332926666667, 269.130100816265, -0.00017643616757682, 1.06,105.351097106934
0.107999731666667, 269.133101270803, -2.58572310068884E-05, 1.0675,107.411750793457
0.10866642, 269.135572618367, 8.80380481200995E-05, 1.07375,103.026962280273
0.109332965, 269.138665277763, 0.00029781601119727, 1.08,103.026962280273
0.109999681666667, 269.140669114009, 0.000195233163832522, 1.0875,109.660118103027
0.110666306666667, 269.144063871158, 0.00021679458084882, 1.09375,101.183692932129
0.11133296, 269.145763831327, 0.000187730540713434, 1.1,103.224334716797
0.111999788333333, 269.149395617764, 0.000183484254005172, 1.10625,108.937469482422
0.112666433333333, 269.15149161394, 0.000135321673148719, 1.11375,108.937469482422
0.113333108333333, 269.155666743214, 0.000388043979148228, 1.12,102.814994812012
0.113999693333333, 269.158373694762, 0.000242365296411395, 1.12625,107.196868896484
0.114666261666667, 269.162531467984, 0.000131802849839799, 1.1325,105.462585449219
0.115333071666667, 269.165761767046, 0.000399042926646424, 1.14,107.786849975586
0.115999716666667, 269.169610574454, 0.000331547816840742, 1.14625,107.786849975586
0.116666306666667, 269.173691599987, 0.000316158589849062, 1.1525,108.091720581055
0.11733298, 269.17701577626, 0.000191211865827256, 1.15875,101.462440490723
0.11799959, 269.181319711896, 0.000382567754216754, 1.16625,104.429122924805
0.118666605, 269.184785215059, 0.000189497451915521, 1.1725,126.761161804199
0.119333125, 269.189482599415, 0.000409668392968209, 1.17875,126.761161804199
0.119999673333333, 269.192723401201, 0.000280274392283088, 1.185,109.383728027344
0.120666421666667, 269.197893970901, 0.000894304550171398, 1.19125,102.828269958496
0.121333488333333, 269.201597729454, 0.000794201078270316, 1.1975,107.894515991211
0.121999863333333, 269.206286812454, 0.00104884178796417, 1.205,101.287170410156
0.122666611666667, 269.21010844683, 0.00102079619664737, 1.2125,101.287170410156
0.123333091666667, 269.214843747569, 0.00086184468063443, 1.21875,104.519271850586
0.123999661666667, 269.218968465056, 0.000765359027010375, 1.225,96.8790893554688
0.124666316666667, 269.223232778595, 0.00105257660038716, 1.23125,109.125648498535
0.125332951666667, 269.227417952463, 0.00106867979154356, 1.2375,109.125648498535
0.12599972, 269.231587742742, 0.00127907122380794, 1.245,106.019775390625
0.126666466666667, 269.235973634461, 0.00141069261257196, 1.25125,107.510589599609
0.127333118333333, 269.240218394846, 0.00127089363453735, 1.25875,105.275131225586
0.127999761666667, 269.245040659806, 0.000982377126393555, 1.265,111.734451293945
0.128666455, 269.249775973222, 0.000851481701125723, 1.27125,102.692161560059
0.129333453333333, 269.254277174579, 0.000609434358910798, 1.2775,102.692161560059
0.129999676666667, 269.258877741048, 0.000589926338785133, 1.285,106.65306854248
0.130666421666667, 269.263415636073, 0.00068246119087213, 1.29125,105.893005371094
0.131333211666667, 269.267871142045, 0.00119282105605455, 1.2975,108.094871520996
0.131999616666667, 269.272491978495, 0.00109884177653342, 1.305,108.814926147461
0.132666501666667, 269.277240038813, 0.00120033567861137, 1.31125,108.814926147461
0.133333136666667, 269.281861318735, 0.00135745128687842, 1.3175,107.050369262695
0.133999625, 269.285607117018, 0.00138734778518514, 1.325,100.769508361816
0.13466649, 269.290604230495, 0.00107833930635836, 1.33125,101.164779663086
0.135332993333333, 269.294596124693, 0.00103866479914523, 1.3375,122.46785736084
0.135999786666667, 269.300011371642, 0.000950679218559712, 1.34375,122.46785736084
0.136666265, 269.304399988048, 0.000741913704603519, 1.35125,107.033531188965
0.137333095, 269.310166992434, 0.000775291528087822, 1.3575,104.942924499512
0.137999831666667, 269.314075901103, 0.00048748148444423, 1.36375,101.461982727051
0.138666311666667, 269.318889452458, 0.000500500830517443, 1.37,104.776206970215
0.139332965, 269.322632229381, 0.00081876684433393, 1.3775,104.776206970215
0.139999635, 269.327296109457, 0.000700854766932379, 1.38375,99.7812194824219
0.140666271666667, 269.331660274315, 0.00053156577014684, 1.39,99.6548233032227
0.141333011666667, 269.336478139272, 0.000611289765737693, 1.39625,104.485092163086
0.141999673333333, 269.341599130603, 0.000438120463840796, 1.40375,107.956130981445
0.142666273333333, 269.346374007624, 0.000243170755964724, 1.41,107.956130981445
0.14333316, 269.351254366732, 0.00061362514841614, 1.4175,109.542556762695
0.144000031666667, 269.355231643598, 0.000728991853659027, 1.42375,100.448219299316
0.14466627, 269.360207471687, 0.00103853730548593, 1.43,98.5739288330078
0.145333161666667, 269.364388782678, 0.00125788478791371, 1.43625,105.573150634766
0.14599958, 269.369120026136, 0.00140371646296093, 1.44375,105.573150634766
0.146666628333333, 269.373899679527, 0.00116801680190455, 1.45125,101.859100341797
0.147332995, 269.379228322227, 0.000917499385139147, 1.45625,104.016304016113
0.147999611666667, 269.383858054985, 0.000669800326837566, 1.4625,106.717620849609
0.148666268333333, 269.388890406024, 0.000753364129517129, 1.47,111.525749206543
0.149333116666667, 269.393747083641, 0.000869689286602476, 1.47625,111.525749206543
0.149999985, 269.398216304216, 0.00112149513868532, 1.4825,107.514907836914
0.150666433333333, 269.402962087453, 0.00127187608521277, 1.49,108.209754943848
0.151333011666667, 269.407621998059, 0.0016758987915477, 1.49625,101.287002563477
0.151999675, 269.412302370744, 0.00155047959119009, 1.50375,123.72891998291
0.15266629, 269.417981126162, 0.00137804075262636, 1.51,123.72891998291
0.153332938333333, 269.422810883047, 0.00116773031630102, 1.51625,104.435005187988
0.153999706666667, 269.427827390316, 0.00113285106827651, 1.5225,105.864524841309
0.154666461666667, 269.432523011812, 0.00105646590502368, 1.52875,103.18278503418
0.155332985, 269.438001831113, 0.000923274095133141, 1.53625,106.510665893555
0.155999581666667, 269.442239790392, 0.000894460542394353, 1.54375,106.510665893555
0.156666611666667, 269.447325739903, 0.000888964818381874, 1.55,105.945030212402
0.157333108333333, 269.452463449616, 0.00097332508104709, 1.555,105.660118103027
0.157999673333333, 269.457509465181, 0.000680467790936372, 1.5625,106.805671691895
0.158666291666667, 269.462477932009, 0.000851114219540654, 1.56875,107.003158569336
0.15933295, 269.467051462809, 0.000477755972955687, 1.57625,107.003158569336
