Time (min), Depth (µm), Load (N), Position (µm), Acoustic (aJ)
9.42666666666667E-06, 268.944820753381, -0.00118537496313106, 0,102.015441894531
0.000666495, 268.944772934067, -0.00137726632468129, 0.00124999999999995,106.71240234375
0.001332335, 268.944974458436, -0.00124791732174952, 0.00500000000000023,106.71240234375
0.00199908166666667, 268.944972774449, -0.00125023170550758, 0.0137499999999999,103.53173828125
0.00266579, 268.945334832369, -0.00101789787538597, 0.02125,106.592666625977
0.003332315, 268.945461022773, -0.000861346238800817, 0.0300000000000001,101.849327087402
0.00399920833333333, 268.94626253069, -0.000818592386256438, 0.0362499999999998,101.849327087402
0.004666005, 268.948320109843, -0.000981686694236325, 0.04375,100.25203704834
0.00533236, 268.949825248898, -0.00100262564247649, 0.0500000000000001,116.36238861084
0.00599907833333333, 268.952937612777, -0.0011944840056261, 0.0574999999999998,106.157043457031
0.00666577, 268.955321450726, -0.00133993469976862, 0.0649999999999999,110.397087097168
0.007332575, 268.958757759384, -0.00108679841448503, 0.0712500000000001,106.287666320801
0.00799907666666667, 268.961761196161, -0.00103894181829186, 0.0787499999999998,106.287666320801
0.00866576833333333, 268.965865149304, -0.00130306955143037, 0.085,102.508453369141
0.009332415, 268.969138394231, -0.00161666479986871, 0.0912500000000002,104.27082824707
0.00999916333333333, 268.972373793759, -0.0014138959847607, 0.0974999999999999,106.588264465332
0.01066607, 268.976087323701, -0.00181645776453558, 0.105,106.588264465332
0.011332385, 268.978634402804, -0.00183661975178608, 0.11125,107.460670471191
0.0119992483333333, 268.981487950993, -0.00159763225588515, 0.1175,109.053665161133
0.0126659666666667, 268.983397166395, -0.00114126367881044, 0.125,99.1101226806641
0.0133323733333333, 268.986375245882, -0.0012123091102525, 0.13125,106.828834533691
0.0139992266666667, 268.988533503294, -0.00065054832691689, 0.1375,106.828834533691
0.0146657483333333, 268.991401358269, -0.000676444526181243, 0.1425,126.833885192871
0.015332345, 268.994820548295, -0.00055327071308039, 0.15,103.462142944336
0.01599907, 268.997632243364, -0.000901185737634551, 0.1575,106.757843017578
0.0166657533333333, 269.001199883114, -0.000846901964246952, 0.16375,106.171157836914
0.017333795, 269.003830488071, -0.000732052732986951, 0.17,103.382133483887
0.0179991316666667, 269.007461232544, -0.000407889015439165, 0.17625,103.382133483887
0.018665945, 269.009434931296, -0.000621826269566701, 0.1825,104.892448425293
0.0193328633333333, 269.013164176336, -0.000286104132569525, 0.19,101.381256103516
0.019999185, 269.015553113339, -0.000735573056177766, 0.19625,107.791603088379
0.0206658366666667, 269.019091989853, -0.00117225662202597, 0.2025,104.756935119629
0.0213324466666667, 269.021840934196, -0.00150528939414303, 0.20875,104.756935119629
0.0219990933333333, 269.025302521486, -0.00159889819229404, 0.21625,110.816925048828
0.0226658466666667, 269.028287819848, -0.00173968562068043, 0.2225,113.743072509766
0.0233324033333333, 269.031000988302, -0.00153825473837393, 0.22875,104.441825866699
0.0239990833333333, 269.034455804191, -0.00147719130547212, 0.23625,104.441825866699
0.02466597, 269.037130210399, -0.00110733688286702, 0.2425,101.890151977539
0.025332405, 269.040478515682, -0.000865262542034092, 0.25,105.983734130859
0.025999075, 269.043436005474, -0.00104308161034624, 0.255,106.229499816895
0.0266657916666667, 269.047296144897, -0.000854476583779904, 0.2625,107.899658203125
0.027332485, 269.050100499635, -0.000879463828749612, 0.26875,109.460807800293
0.0279995733333333, 269.053966997303, -0.00101369508646415, 0.275,109.460807800293
0.02866597, 269.057311840543, -0.000905180037021812, 0.2825,98.3635940551758
0.02933241, 269.060466470007, -0.000717002489016679, 0.28875,102.385612487793
0.029999205, 269.063844942634, -0.000876784963297804, 0.29625,104.461380004883
0.0306657416666667, 269.067055856113, -0.00101683442875027, 0.3025,124.571365356445
0.0313330416666667, 269.07067671481, -0.00093593599218163, 0.3075,124.571365356445
0.0319990916666667, 269.073567109115, -0.00103527450255203, 0.315,109.256683349609
0.0326669783333333, 269.077858361675, -0.000825760526212344, 0.32125,104.752914428711
0.0333323866666667, 269.080736962535, -0.000630537832031117, 0.3275,105.441055297852
0.0339990666666667, 269.084786272102, -0.000329339460911112, 0.335,101.391716003418
0.0346658133333333, 269.087835508087, -0.000391401843593014, 0.34125,101.391716003418
0.0353324866666667, 269.091456303845, -0.000289379967997592, 0.3475,103.485328674316
0.0359990816666667, 269.094365618979, -0.000316357612947981, 0.35375,107.191612243652
0.0366661616666667, 269.098236001142, -0.000556183566739107, 0.36125,109.062843322754
0.037332475, 269.101805973182, -0.000865544527843158, 0.3675,111.695541381836
0.0379992566666667, 269.104903767768, -0.000741923737185119, 0.37375,111.695541381836
0.0386659633333333, 269.107977899198, -0.000466656063633249, 0.38,102.861671447754
0.0393330083333333, 269.109530745313, -0.000530365363564978, 0.3875,104.76766204834
0.0399990683333333, 269.111214991797, -0.000276012639420316, 0.39375,103.348152160645
0.0406661766666667, 269.112727928771, 7.54047092318207E-05, 0.4,102.439437866211
0.0413329533333333, 269.114258484387, 0.000104962224559641, 0.4075,102.439437866211
0.04199922, 269.116798856882, -7.98569921539918E-05, 0.41375,105.517890930176
0.04266606, 269.119685024638, 5.60916792785795E-05, 0.42,107.637588500977
0.0433326316666667, 269.12272363951, 0.000354654682733217, 0.4275,96.2495422363281
0.04399919, 269.124797161307, 0.000629887858066319, 0.43375,100.287254333496
0.044665895, 269.128012577221, 0.000807280947805431, 0.44,100.287254333496
0.0453326283333333, 269.12950563027, 0.00111935977241703, 0.44625,100.108154296875
0.0459990716666667, 269.132339677666, 0.00139878073740667, 0.45375,99.6688766479492
0.0466661766666667, 269.134602617422, 0.0013562998711887, 0.46,107.557518005371
0.0473324166666667, 269.137562844221, 0.0013256924085448, 0.46625,122.469429016113
0.0479990766666667, 269.139885466042, 0.00132783580087838, 0.47375,122.469429016113
0.0486669216666667, 269.142792063154, 0.00107270761571096, 0.48,105.52156829834
0.0493330583333333, 269.145613534059, 0.000729280365693986, 0.48625,107.505805969238
0.050000585, 269.148000330987, 0.000701335269333463, 0.4925,107.645980834961
0.05066574, 269.150390261577, 0.000713748645820235, 0.49875,104.068283081055
0.0513323516666667, 269.153071754162, 0.000456456069377597, 0.50625,104.068283081055
0.0519994116666667, 269.155546895235, 0.000432634265903016, 0.5125,102.598327636719
0.0526659416666667, 269.1576903398, 0.000579419892998231, 0.52,109.794593811035
0.0533324033333333, 269.159752263212, 0.000690751800937478, 0.52625,107.831169128418
0.053999235, 269.162203451772, 0.000515172120163225, 0.5325,107.297012329102
0.054665825, 269.164121860047, 0.000620436832807335, 0.54,107.297012329102
0.0553325283333333, 269.166420323351, 0.00077003631859316, 0.54625,114.293632507324
0.055999145, 269.168281585327, 0.000638153942897952, 0.5525,105.583869934082
0.056666195, 269.171130029702, 0.000460381372221054, 0.55875,102.17253112793
0.0573326683333333, 269.173019592263, 0.000236382623432375, 0.565,109.888862609863
0.0579993316666667, 269.17563842543, 8.0931931571752E-05, 0.57375,109.888862609863
0.0586664166666667, 269.177867043065, -0.000206647123628722, 0.57875,101.999290466309
0.0593334933333333, 269.180499818019, 0.000231824352384473, 0.585,103.436477661133
0.059999165, 269.18273685352, -0.000141041918932464, 0.5925,105.336074829102
0.06066596, 269.184816145296, -7.19553891011296E-05, 0.59875,108.261161804199
0.0613324066666667, 269.186875766795, 0.000129341999933488, 0.60625,108.261161804199
0.0620005366666667, 269.188619736929, 0.000182023853782105, 0.6125,102.714729309082
0.0626657466666667, 269.190635324991, -5.56542078809826E-05, 0.61875,105.428840637207
0.0633324233333333, 269.192009807367, 0.000253514762899451, 0.625,104.8408203125
0.063999055, 269.194133771944, 0.000327471548139582, 0.6325,125.700782775879
0.064665795, 269.195344850946, 0.000360936367239274, 0.63875,125.700782775879
0.0653330483333333, 269.197683585299, 0.000262127330289491, 0.645,104.160980224609
0.0659992183333333, 269.199199651751, -0.000127010123738274, 0.65125,98.1765289306641
0.066666345, 269.201348240793, -0.000251256382957488, 0.65875,103.672180175781
0.0673328383333333, 269.203002020803, -0.000309225471199006, 0.665,107.748199462891
0.06799922, 269.20518863941, -0.000442352784361459, 0.6725,107.748199462891
0.068666425, 269.207249334423, -0.000462094792736541, 0.6775,107.484085083008
0.0693330133333333, 269.209075750258, -0.000444074697873957, 0.685,102.731636047363
0.0700000433333333, 269.211463574591, -0.000292868792775939, 0.6925,105.369201660156
0.0706658233333333, 269.213743048984, -0.000336066623007444, 0.69875,103.230628967285
0.071332685, 269.216449557431, -0.000345094669542202, 0.705,103.230628967285
0.0719993033333333, 269.218486364658, -0.000243843755281342, 0.71,104.745643615723
0.072666395, 269.220943578011, 9.96446640039274E-07, 0.7175,105.526779174805
0.0733323816666667, 269.222957781927, -7.47752474043363E-05, 0.725,102.970542907715
0.0739991083333333, 269.224940773727, 0.00016334229223643, 0.73125,105.017356872559
0.0746661933333333, 269.227201660568, 0.000228151036947034, 0.73875,105.017356872559
0.0753325, 269.229026812559, 0.000265029684562401, 0.745,101.714057922363
0.075999185, 269.231757741132, 0.000125010217619257, 0.75,104.702407836914
0.076666015, 269.233779075878, -0.000120281461653775, 0.7575,101.707611083984
0.0773324166666667, 269.236421531477, -7.152491066987E-05, 0.765,104.067924499512
0.0779991816666667, 269.23863925603, -0.000439400932604496, 0.77125,104.067924499512
0.0786662716666667, 269.241296535584, -0.000264761704537356, 0.7775,103.875579833984
0.0793324366666667, 269.243504561295, -0.000139237509471517, 0.785,109.14338684082
0.07999961, 269.245979368, 0.000166201148659138, 0.79,104.668037414551
0.0806659433333333, 269.248473212199, -7.62646725493122E-05, 0.7975,124.03636932373
0.08133241, 269.250347972745, 0.000233943745991358, 0.80375,124.03636932373
0.0819991, 269.25311868745, 7.85215526731429E-05, 0.81,103.007026672363
0.0826663533333333, 269.255317781699, 7.66061195394334E-06, 0.8175,113.482986450195
0.0833323733333333, 269.25822914599, -5.44422983150883E-06, 0.8225,105.013328552246
0.0839991366666667, 269.260188773105, 0.000448900948883142, 0.83,104.045280456543
0.08466574, 269.263133838179, 0.000618156947331809, 0.8375,104.045280456543
0.085332395, 269.26517681916, 0.000588903916700358, 0.84375,106.190536499023
0.0859994033333333, 269.267989485324, 0.000479263923785544, 0.85,107.036697387695
0.086666325, 269.270534050147, 0.000366709577308864, 0.85625,100.86531829834
0.0873326883333333, 269.272892914825, 0.000114591740886376, 0.8625,107.440673828125
0.0879995133333333, 269.275385136964, 0.000127632085901234, 0.87,107.440673828125
0.0886658633333333, 269.277672671024, 0.000210694913723837, 0.87625,103.842414855957
0.0893327016666667, 269.280390665534, 0.000449883399537309, 0.88375,100.134414672852
0.0899999216666667, 269.282264854296, 0.000603190699064356, 0.89,105.968276977539
0.090665765, 269.285961335916, 0.000585589083195298, 0.895,98.1400146484375
0.09133267, 269.288016059953, 0.000226099139980803, 0.9025,98.1400146484375
0.0919991933333333, 269.291034947037, 0.000494674149718869, 0.91,109.959648132324
0.0926657266666667, 269.29284480652, 0.000545125615597267, 0.91625,103.043991088867
0.0933325316666667, 269.295534329065, 0.000565826075814809, 0.9225,101.899559020996
0.0939994716666667, 269.29709419162, 0.000826208497102018, 0.92875,106.064163208008
0.0946658016666667, 269.298808144075, 0.00125780431850296, 0.93625,106.064163208008
0.095332405, 269.300525915859, 0.00122346954312185, 0.9425,103.692138671875
0.0959991466666667, 269.302415183139, 0.00133417748236056, 0.95,104.385932922363
0.0966663816666667, 269.304698653582, 0.00119990722661154, 0.955,123.566871643066
0.0973324083333333, 269.306192776042, 0.00112037072165611, 0.9625,101.255867004395
0.0979991816666667, 269.309044814688, 0.00102042924159058, 0.96875,101.255867004395
0.098666085, 269.311700404588, 0.00067366315929935, 0.975,104.980133056641
0.099332955, 269.313775215615, 0.00056634654968901, 0.98125,104.745391845703
0.0999999, 269.316027214324, 0.00077959833827924, 0.98875,106.774871826172
0.100665898333333, 269.318474415638, 0.000686589509995798, 0.995,109.009346008301
0.101332405, 269.321018985747, 0.00061853492828143, 1.00125,109.009346008301
0.10199954, 269.32241505455, 0.000619904359474145, 1.0075,101.716239929199
0.102665838333333, 269.325364772956, 0.000668048941237759, 1.015,109.164474487305
0.103332483333333, 269.327083012847, 0.000364698178216505, 1.02125,102.515525817871
0.103999255, 269.329520284894, 0.000504435659329328, 1.02875,101.873580932617
0.10466574, 269.331215065974, 0.000600598829206683, 1.03375,101.873580932617
0.105332403333333, 269.333568249222, 0.000539301408097966, 1.04,104.584129333496
0.105999226666667, 269.335450408747, 0.00012508821360321, 1.0475,104.900939941406
0.106666158333333, 269.337136567191, 0.000433325731137934, 1.055,102.151718139648
0.10733276, 269.339590158741, 0.000498566454225454, 1.06,107.199317932129
0.107999096666667, 269.341238741245, 0.000522941729868601, 1.06625,107.199317932129
0.108665853333333, 269.34398489755, 0.000805920516159135, 1.07375,107.112617492676
0.109332686666667, 269.345612017848, 0.00117730186204054, 1.08,107.085182189941
0.110000688333333, 269.349107070905, 0.00099672293233756, 1.08625,106.012130737305
0.110666455, 269.351458723141, 0.000647865955066866, 1.09375,104.261428833008
0.111332921666667, 269.354904704423, 0.000515034127033109, 1.1,104.261428833008
0.111999695, 269.358011370868, 0.000495896588256303, 1.10625,104.09733581543
0.112665775, 269.361386177455, 0.000460661858063209, 1.11375,106.454704284668
0.113332543333333, 269.364784432498, 0.000679871347382122, 1.12,122.786781311035
0.113999798333333, 269.368264918394, 0.000491810793459189, 1.12625,111.666374206543
0.114665783333333, 269.372409904831, 0.000613318190250465, 1.1325,111.666374206543
0.115332585, 269.375547445295, 0.000519356909843429, 1.14,104.995483398438
0.115999188333333, 269.380271301366, 0.000272752796526259, 1.14625,106.092781066895
0.116666358333333, 269.383611089421, -0.000121446903233918, 1.1525,108.956115722656
0.11733276, 269.387790844656, 0.000161629378164082, 1.15875,105.283760070801
0.117999218333333, 269.391505937423, 2.5028239509823E-05, 1.16625,105.283760070801
0.118666141666667, 269.395864501356, -0.000193236297286259, 1.1725,104.161407470703
0.11933241, 269.400032170546, -0.000128151566442948, 1.17875,104.507591247559
0.119999081666667, 269.40403503688, -0.000118597046336376, 1.185,101.051277160645
0.120666541666667, 269.408512382558, -8.67371466457273E-05, 1.19125,102.253143310547
0.121332376666667, 269.412373138257, -6.81920781569869E-05, 1.19875,102.253143310547
0.1219993, 269.417223092274, 0.000168433036426235, 1.205,103.844024658203
0.122665883333333, 269.421173909942, 0.000173162298898617, 1.2125,103.688514709473
0.123333063333333, 269.426305789993, 0.000498998432496101, 1.21875,105.322143554688
0.123999091666667, 269.429887728807, 0.000335896624915451, 1.225,103.263313293457
0.124666016666667, 269.434603519637, 0.000144018762706096, 1.23125,103.263313293457
0.125332408333333, 269.438210071602, 9.12154149595613E-05, 1.2375,105.802307128906
0.12599907, 269.44235728823, 0.000144651730910541, 1.245,102.131072998047
0.12666597, 269.446573319039, 6.93630125665227E-05, 1.25125,105.83390045166
0.12733251, 269.451015628855, 0.000207371080587341, 1.25875,107.063598632813
0.127999203333333, 269.455584713087, 0.000685194580024465, 1.265,107.063598632813
0.128665758333333, 269.459923593534, 0.000858942852868545, 1.27125,104.818878173828
0.129332685, 269.464880080904, 0.00081619350011863, 1.27875,106.684791564941
0.129999216666667, 269.468764227989, 0.000803228151387697, 1.285,128.913055419922
0.13066596, 269.473636440563, 0.000936407961904264, 1.29125,107.687446594238
0.131332485, 269.478279194736, 0.000800480289413338, 1.2975,107.687446594238
0.13199917, 269.483628332933, 0.000493133727101674, 1.30375,100.401832580566
0.132665986666667, 269.488140970173, 0.000960505751532808, 1.31125,103.324432373047
0.133332706666667, 269.492959294403, 0.00120965073723543, 1.3175,105.316558837891
0.13399982, 269.498247810241, 0.00123766932989171, 1.325,106.812133789063
0.134665953333333, 269.502652486915, 0.000981081718003625, 1.33125,106.812133789063
0.135332548333333, 269.507323847804, 0.00113541496599253, 1.3375,103.168235778809
0.135999268333333, 269.511427416893, 0.000768357902867103, 1.34375,108.910293579102
0.136665916666667, 269.516298710435, 0.000454386173339782, 1.35125,109.738227844238
0.137332663333333, 269.520446089408, 0.000461305325823494, 1.3575,99.0726165771484
0.137999256666667, 269.525074077984, 0.000801299248265042, 1.36375,99.0726165771484
0.138665808333333, 269.529503257178, 0.00109356406806644, 1.37,102.56999206543
0.139332413333333, 269.534095907693, 0.00130435148045829, 1.3775,109.383689880371
0.139999198333333, 269.539400336741, 0.00137704532911708, 1.38375,110.158180236816
0.140666441666667, 269.543846626246, 0.00118700787451184, 1.39,102.492881774902
0.141332748333333, 269.548714759297, 0.00096986528138194, 1.39625,102.492881774902
0.141999165, 269.553303374131, 0.000614690621419511, 1.40375,106.847778320313
0.142665766666667, 269.55873625178, 0.000201864857252817, 1.41,103.842475891113
0.143332541666667, 269.562635423492, 0.000276525107144346, 1.41625,102.174827575684
0.143999818333333, 269.567858589527, 0.000214326231299239, 1.42375,105.519096374512
0.14466591, 269.572968293274, -4.58477004534092E-05, 1.43,105.519096374512
0.145332376666667, 269.577714905912, -4.56932081973654E-05, 1.43625,104.801246643066
0.145999166666667, 269.58243041284, 0.000232994293631555, 1.44375,106.496040344238
0.146665763333333, 269.587581584887, 7.697663024023E-05, 1.45,119.6591796875
0.1473328, 269.592691349734, 0.000259862444079252, 1.45625,112.440361022949
0.147999215, 269.596831621452, 0.000440276382055368, 1.4625,112.440361022949
0.14866666, 269.601893178122, 0.00026235981859325, 1.47,107.505226135254
0.149332518333333, 269.606579911887, 0.000215991147641904, 1.4775,97.2507934570313
0.14999932, 269.611438496236, 0.000374482186820538, 1.48375,105.46369934082
0.150665765, 269.615601400684, 0.000112782831694727, 1.49,99.2956237792969
0.151332563333333, 269.619982804503, 9.2520349466699E-05, 1.49625,99.2956237792969
0.15199971, 269.624396306094, 0.000460996341290152, 1.5025,110.161613464355
0.152665776666667, 269.628651326846, 0.000584081658829958, 1.51,104.48030090332
0.153332403333333, 269.633602619557, 0.00033893997203976, 1.51625,105.260887145996
0.153999073333333, 269.637904213536, 0.000541819781617372, 1.5225,105.667083740234
0.154665923333333, 269.643206065146, 0.000753253661512043, 1.53,105.667083740234
0.15533274, 269.64755704722, 0.000703963137334307, 1.535,110.504417419434
0.155999113333333, 269.652590876403, 0.000771476246190321, 1.5425,101.731430053711
0.156666175, 269.656726474228, 0.000921236223887295, 1.55,104.853034973145
0.15733267, 269.661534934116, 0.00104368107357939, 1.55625,105.948822021484
0.15799933, 269.666428619865, 0.000732875685019948, 1.5625,105.948822021484
0.15866587, 269.670951244906, 0.000995022017660437, 1.56875,104.90291595459
0.159332948333333, 269.675537364891, 0.0010935475688555, 1.575,106.454963684082
0.159999785, 269.67979749923, 0.00113269860234563, 1.5825,105.815032958984
0.160667456666667, 269.685053485887, 0.00112200713932884, 1.59,107.25276184082
