Time (min), Depth (µm), Load (N), Position (µm), Acoustic (aJ)
8.59833333333333E-06, 268.962464737482, 0.000843825333938074, 0,111.256011962891
0.000665063333333333, 268.962430626346, 0.000895203753267719, 0.00124999999999995,107.127632141113
0.00133181166666667, 268.960823362209, 0.000949817510066543, 0.00500000000000023,106.287826538086
0.00199835666666667, 268.96098460784, 0.000463588432849537, 0.0137499999999999,106.287826538086
0.002664965, 268.959972299827, 0.000516913754394676, 0.0225,102.22087097168
0.00333193166666667, 268.96076763737, 0.000193813483397578, 0.0300000000000001,122.059768676758
0.003998345, 268.961185146821, -0.000288712279830161, 0.0375000000000002,103.832847595215
0.00466491333333333, 268.963934280563, -0.000500618635996874, 0.0449999999999999,102.291488647461
0.00533224666666667, 268.966198485525, -0.000577635267572257, 0.0512500000000001,102.291488647461
0.00599847333333333, 268.969256967942, -0.000609870148427482, 0.0574999999999998,107.632461547852
0.006664915, 268.972768139421, -0.000413924490598868, 0.0649999999999999,110.670379638672
0.00733156166666667, 268.977994952752, -0.000380894649639884, 0.07375,105.405364990234
0.008164925, 268.981616525041, -0.000248265311506837, 0.0800000000000002,108.420860290527
0.008831685, 268.984704282085, -0.000374257483050255, 0.08625,104.836181640625
0.00949855, 268.987739613181, -0.00052038014345296, 0.0925000000000001,104.836181640625
0.0101649033333333, 268.990624574757, -0.000655086877267093, 0.0999999999999998,108.860618591309
0.0108315783333333, 268.993761867642, -0.00049063963728418, 0.105,111.040267944336
0.01149873, 268.997301526849, -0.000493206008341982, 0.1125,109.59105682373
0.0121655583333333, 268.999776612171, -0.000271466146150945, 0.12,107.026016235352
0.0128317283333333, 269.003330893701, -0.000330377187108996, 0.12625,107.026016235352
0.0134983866666667, 269.005809220286, -0.000405836896834986, 0.1325,107.914611816406
0.0141650566666667, 269.009227944998, -0.000736477289125015, 0.13875,105.70841217041
0.0148316866666667, 269.011543679119, -0.000730645582046206, 0.145,103.657188415527
0.015498555, 269.014647773922, -0.000846670754229647, 0.1525,101.57593536377
0.016164915, 269.017410169402, -0.000682204015208238, 0.15875,101.57593536377
0.0168325216666667, 269.020398374815, -0.000930459545612207, 0.165,100.622749328613
0.0174984083333333, 269.023200898075, -0.000695190362923325, 0.17125,105.225128173828
0.0181648716666667, 269.02547542089, -0.000804050394999666, 0.17875,103.082717895508
0.018831585, 269.02851868557, -0.000674440405157968, 0.185,108.352737426758
0.0194998783333333, 269.030473125926, -0.000753796919206261, 0.19125,108.352737426758
0.0201651483333333, 269.033623432851, -0.000545101901739529, 0.1975,123.453887939453
0.0208317933333333, 269.035623463384, -0.000571085096598017, 0.205,104.455978393555
0.0214989666666667, 269.038466524541, -0.000759667624277046, 0.2125,106.450553894043
0.022165205, 269.04053045607, -0.000797626217654046, 0.2175,105.34334564209
0.022831665, 269.043199617912, -0.000643520958174432, 0.225,105.34334564209
0.0234989716666667, 269.045536722066, -0.000360456676214166, 0.2325,105.117172241211
0.0241649416666667, 269.048154488706, -0.00051809575818297, 0.2375,105.533988952637
0.0248317133333333, 269.051435038928, -7.75108883242659E-05, 0.24375,111.23950958252
0.0254985983333333, 269.054079345254, -0.000265866927397149, 0.25,100.470542907715
0.0261655083333333, 269.057925805613, -0.000454581448487428, 0.2575,100.470542907715
0.0268322983333333, 269.060993454459, -0.000768005705501289, 0.265,100.570343017578
0.0274990266666667, 269.064894375807, -0.000658094226205723, 0.27,108.022186279297
0.0281649083333333, 269.0677879373, -0.000790240588638413, 0.27625,107.151344299316
0.0288318116666667, 269.071546192942, -0.000821128537188226, 0.28375,105.882743835449
0.0294988916666667, 269.07487935594, -0.000971351991610823, 0.29,105.882743835449
0.0301656233333333, 269.078086688044, -0.000958635630352085, 0.29625,101.431007385254
0.03083303, 269.081440332034, -0.000776372285246686, 0.30375,104.613464355469
0.0314989283333333, 269.084886326973, -0.000819420122974104, 0.31125,103.23649597168
0.0321659583333333, 269.088348957001, -0.000881409009360246, 0.31625,105.247337341309
0.032831835, 269.09095355656, -0.000680282611750108, 0.32375,105.247337341309
0.0334989933333333, 269.094144807263, -0.000691110567887587, 0.33,104.098320007324
0.0341649766666667, 269.096686154039, -0.000888311662675522, 0.33625,103.388481140137
0.0348323466666667, 269.09980335449, -0.000891140520588911, 0.34375,101.529624938965
0.0354985183333333, 269.102886612613, -0.000568266738197959, 0.35,126.040512084961
0.03616508, 269.105856194037, -0.000423921488489418, 0.35625,126.040512084961
0.036832295, 269.109696628556, -0.000140336732654951, 0.3625,106.80590057373
0.0374990066666667, 269.11260283387, 0.000107383324630784, 0.37,101.940132141113
0.038165515, 269.115545387628, 0.000472674976393514, 0.37625,105.203948974609
0.0388319733333333, 269.117670284091, 0.000382898485794207, 0.3825,106.882431030273
0.0394985316666667, 269.119741141933, 0.000376864288857196, 0.38875,106.882431030273
0.0401650433333333, 269.120356915534, 0.000436070814965197, 0.395,104.381034851074
0.04083164, 269.121981639602, 0.000425068867575686, 0.4025,100.817314147949
0.0414983666666667, 269.123788313029, -4.81933609434753E-05, 0.40875,103.929206848145
0.0421651116666667, 269.125962245639, -0.000150525720890372, 0.415,100.178207397461
0.0428315733333333, 269.129122166014, -2.34956014473582E-05, 0.4225,100.178207397461
0.0434982966666667, 269.132004590712, -7.65539363849546E-05, 0.42875,104.205390930176
0.044164895, 269.135629616725, -0.000398023789300662, 0.435,106.068786621094
0.0448322833333333, 269.137912311077, -0.00034021219314274, 0.44125,106.035133361816
0.0454985766666667, 269.141387800119, -0.00040021817912771, 0.44875,106.393630981445
0.0461651533333333, 269.143688009881, -0.000696204312074977, 0.455,106.393630981445
0.04683229, 269.146954905678, -0.000698524695488136, 0.4625,103.994651794434
0.0474988316666667, 269.149166025093, -0.000566097847128275, 0.46875,99.5984954833984
0.048164955, 269.151816124157, -0.000409990188230246, 0.475,108.184226989746
0.0488318783333333, 269.154399162074, -0.000602679509605526, 0.48125,108.034339904785
0.0494987933333333, 269.156681956534, -0.00062177805030534, 0.48875,108.034339904785
0.0501652416666667, 269.159068997339, -0.000414980437548795, 0.495,105.199562072754
0.0508317366666667, 269.160733278359, -0.000473018522355371, 0.50125,102.177536010742
0.051498955, 269.16361931611, -0.000473589993616775, 0.5075,108.820747375488
0.0521649066666667, 269.164745104824, -9.49805108033294E-05, 0.515,123.165756225586
0.052832445, 269.167595452531, -8.74178906656035E-05, 0.52125,123.165756225586
0.05349839, 269.169421309858, -0.000245844433052388, 0.52875,107.704376220703
0.05416491, 269.171682439266, 1.86912795875731E-05, 0.535,103.649406433105
0.0548316333333333, 269.173461149067, -0.000175826450017852, 0.54125,102.916931152344
0.0554989233333333, 269.175189775846, -0.000214969983885967, 0.5475,105.228881835938
0.0561651633333333, 269.177156232508, 9.60228952663859E-05, 0.55375,105.228881835938
0.056831815, 269.178153530157, 0.000339834148855845, 0.56125,102.552627563477
0.0574982183333333, 269.18048697048, 0.000657981668623222, 0.56875,105.301834106445
0.05816507, 269.181497139252, 0.000956258186516837, 0.575,105.052291870117
0.058832275, 269.184602198527, 0.00107814056447269, 0.58,104.082214355469
0.0594988966666667, 269.185708315229, 0.000788421116787447, 0.5875,104.082214355469
0.06016498, 269.1883094948, 0.000260105653555545, 0.595,104.864189147949
0.060832345, 269.189954236148, -0.00026535095325365, 0.6,105.742118835449
0.0614984133333333, 269.192737355426, -0.000429117227429959, 0.60625,105.075675964355
0.062164915, 269.194156396449, -0.000355493425492368, 0.61375,102.36449432373
0.0628325133333333, 269.196424048617, -0.000325868413523893, 0.62,102.36449432373
0.0634984216666667, 269.199123516489, -0.000136246438063373, 0.6275,103.969383239746
0.06416506, 269.200867410064, -0.000252607593398162, 0.635,103.124969482422
0.0648318833333333, 269.203463079373, -0.00023885478420674, 0.64125,102.333961486816
0.0654990666666667, 269.205252241777, -0.000531442087839855, 0.64625,103.357345581055
0.06616514, 269.20755466603, -0.000543189497764056, 0.65375,103.357345581055
0.06683219, 269.209229517448, -0.000460318660286323, 0.66125,107.976211547852
0.06749894, 269.212160326742, -0.000249939227417176, 0.6675,104.824317932129
0.06816512, 269.214568476624, -0.000237245365024487, 0.67375,103.017761230469
0.0688316133333333, 269.216902753553, -9.58009696006901E-05, 0.67875,122.624610900879
0.06949863, 269.219196694615, 9.61398894123482E-05, 0.6875,122.624610900879
0.0701650333333333, 269.220731809043, 7.08286607502823E-05, 0.69375,103.47762298584
0.07083238, 269.223041043893, 0.000290018651073207, 0.7,110.203926086426
0.0714990683333333, 269.224139319715, 0.000304882904481238, 0.70625,98.9852752685547
0.0721649666666667, 269.226685796041, 0.000462620981460657, 0.71375,100.38835144043
0.072831775, 269.228496099752, 0.000590063580157075, 0.72,100.38835144043
0.0734988166666667, 269.23135291974, 0.000564483865026826, 0.72625,101.294311523438
0.074164935, 269.233596255641, 0.000266474333719499, 0.7325,105.772644042969
0.074831615, 269.235427301926, 0.00013202108715077, 0.74,100.929084777832
0.07549905, 269.238001657485, -8.39335656817208E-05, 0.74625,106.355926513672
0.07616552, 269.239774741229, -0.000691019072435226, 0.75375,106.355926513672
0.0768323783333333, 269.242813566414, -0.000832422969836372, 0.76,109.75212097168
0.0774989633333333, 269.244115207801, -0.000842128982328927, 0.76625,103.509338378906
0.0781653466666667, 269.247481613358, -0.000578032747602883, 0.7725,105.630752563477
0.0788316766666667, 269.248759349927, -0.000724113410143551, 0.77875,102.470741271973
0.07949899, 269.251554100218, -0.000305955413745587, 0.78625,102.470741271973
0.080165035, 269.252686771416, -0.0002269588816816, 0.7925,107.272605895996
0.0808319, 269.255224802562, -7.71329073108826E-05, 0.8,103.736618041992
0.081498555, 269.257367684553, -0.000169306277531678, 0.80625,100.462371826172
0.08216489, 269.259693104826, 8.37190132823062E-05, 0.81125,108.32341003418
0.0828318883333333, 269.262204363438, 0.000260135652064864, 0.81875,108.32341003418
0.083498565, 269.26435588059, 0.000442893972329609, 0.82625,106.611015319824
0.0841649283333333, 269.267451952788, 0.000541022043472788, 0.8325,105.223854064941
0.0848319683333333, 269.269260502191, 0.000433985919832128, 0.8375,112.44548034668
0.0854982783333333, 269.272219763395, 0.000255328393608529, 0.845,128.287246704102
0.0861650883333333, 269.274485483297, -8.87468238356685E-05, 0.8525,128.287246704102
0.0868315833333333, 269.277169118094, -7.67654256407974E-05, 0.85875,109.83479309082
0.0874991266666667, 269.279253078033, -0.000205610453930564, 0.865,104.962127685547
0.0881650416666667, 269.281294932693, -0.000241230664801566, 0.87125,111.866622924805
0.0888323083333333, 269.283392576446, 0.000169759191597983, 0.87875,107.128265380859
0.0894986166666667, 269.285101678733, -3.55159976342057E-05, 0.885,107.128265380859
0.0901651433333333, 269.288081122359, -0.000278665784476812, 0.89125,107.329772949219
0.09083232, 269.289249058029, -0.00017786334763378, 0.8975,106.799819946289
0.091498945, 269.291896996318, 8.49864497218707E-05, 0.905,103.2099609375
0.09216491, 269.29351584822, -0.000157186886185436, 0.91125,108.894859313965
0.0928315433333333, 269.296213068486, 0.000478329692435247, 0.9175,108.894859313965
0.09349865, 269.297137157059, 0.000980946946530297, 0.92375,103.794792175293
0.0941652083333333, 269.299274960963, 0.00113155438168514, 0.93125,114.909210205078
0.09483214, 269.301545885179, 0.000817348663887153, 0.9375,108.788703918457
0.0954990233333333, 269.303661969092, 0.000917225647182088, 0.945,107.113899230957
0.0961648983333333, 269.306480163959, 0.000532274482886456, 0.95,107.113899230957
0.09683214, 269.308379659865, 3.41454694739215E-06, 0.95625,101.529090881348
0.0974985683333333, 269.311585451701, 6.15606263322571E-05, 0.965,104.329208374023
0.098165195, 269.313089849482, 0.000292994501641877, 0.97125,104.476890563965
0.0988323583333333, 269.315951906754, 0.00069341438896507, 0.97625,104.658714294434
0.099498425, 269.316784950589, 0.000672779925442526, 0.98375,104.658714294434
0.100165355, 269.31984679346, 0.00107857554271967, 0.99125,105.072975158691
0.100832348333333, 269.321634318524, 0.000981516917888551, 0.9975,108.126640319824
0.101498303333333, 269.324472737973, 0.000868350602127817, 1.0025,106.469985961914
0.102164955, 269.326913785446, 0.000476042307358959, 1.00875,127.465057373047
0.102832338333333, 269.329184086924, 0.000374869389145814, 1.01625,127.465057373047
0.103498646666667, 269.331300620468, 0.000479406638390581, 1.02375,114.372184753418
0.104165383333333, 269.33339819557, 0.000518388180423144, 1.03,104.275512695313
0.104831763333333, 269.336330083702, 0.000742317932646765, 1.03625,103.738327026367
0.105498721666667, 269.338181422736, 0.000579772597147249, 1.0425,108.368743896484
0.106165153333333, 269.341564786897, 0.000888365596829307, 1.05,108.368743896484
0.106831883333333, 269.344178942635, 0.000419442650352664, 1.05625,100.507629394531
0.107498468333333, 269.347392539843, 0.000115971893315387, 1.0625,97.7226791381836
0.108165228333333, 269.349650450283, -8.3873568620574E-05, 1.06875,101.566535949707
0.108832266666667, 269.352601611129, -0.000170953194717741, 1.075,109.500625610352
0.109499013333333, 269.355650981653, -0.000331940108507223, 1.08125,109.500625610352
0.110165603333333, 269.358490596281, -0.000426795344028634, 1.09,101.964767456055
0.110831753333333, 269.362400947511, -0.000599951146584648, 1.095,112.07389831543
0.111498445, 269.365775289889, -0.000955443790584329, 1.10125,101.737075805664
0.112165136666667, 269.370044476489, -0.000893615396151844, 1.10875,106.687088012695
0.112832383333333, 269.37341696494, -0.00114155144255165, 1.115,106.687088012695
0.113498611666667, 269.377730625753, -0.000910311057532556, 1.12125,101.834716796875
0.114165456666667, 269.380656065795, -0.000371178137612743, 1.12875,107.56697845459
0.114831536666667, 269.384404009344, -1.52340163039189E-05, 1.135,105.86353302002
0.115498668333333, 269.388207778784, 5.76578224186115E-05, 1.14125,100.26171875
0.11616517, 269.392051148449, 0.000121010140278602, 1.1475,100.26171875
0.116832036666667, 269.396521950888, 8.22630530446133E-06, 1.155,103.410011291504
0.117498566666667, 269.400480433028, -0.00030717935218617, 1.16125,102.514579772949
0.118165163333333, 269.40509657337, -0.000612622510090034, 1.1675,124.653831481934
0.118832308333333, 269.408617724498, -0.000729064661321344, 1.17375,102.914070129395
0.119498496666667, 269.41261528079, -0.000586996297239522, 1.18,102.914070129395
0.120165056666667, 269.416623455115, -0.000680888581145262, 1.18625,103.160636901855
0.120832355, 269.421160066908, -0.000626340821020181, 1.1925,101.999794006348
0.121498456666667, 269.425419281773, -0.000567035299859057, 1.20125,105.150360107422
0.12216496, 269.429870937469, -0.000623894443872131, 1.2075,105.507835388184
0.122832313333333, 269.434894106168, -0.000491526092606505, 1.21375,105.507835388184
0.123498718333333, 269.438722223667, -0.000320551180472893, 1.22,100.796318054199
0.124164961666667, 269.443420694093, -0.000204034033000166, 1.2275,109.560974121094
0.124831933333333, 269.447088742839, 0.000223951469724508, 1.2325,104.002471923828
0.125498436666667, 269.451389740593, 0.000686681227256141, 1.24,101.970626831055
0.12616489, 269.455357886003, 0.000781078985770795, 1.2475,101.970626831055
0.126831976666667, 269.45989150218, 0.00113454673142225, 1.25375,106.281379699707
0.127498508333333, 269.464142588479, 0.00120331827708639, 1.26,104.034385681152
0.128165115, 269.468937603427, 0.000908470586994993, 1.26625,109.60636138916
0.128831841666667, 269.474118763419, 0.000825892234860913, 1.27375,108.35245513916
0.12949863, 269.478653439462, 0.000641750984083823, 1.28,108.35245513916
0.130165195, 269.484013922562, 0.000272970507521492, 1.28625,100.940002441406
0.130832246666667, 269.488437115621, -6.47135309352109E-05, 1.2925,105.702613830566
0.131498461666667, 269.493105771574, 0.000395466354707055, 1.29875,101.887496948242
0.132166301666667, 269.497111109796, 0.000297326284147396, 1.305,104.782608032227
0.13283172, 269.50199552416, 0.000355862343962124, 1.31375,104.782608032227
0.133498321666667, 269.506360681493, 0.000603685896031684, 1.32,100.314834594727
0.13416554, 269.511025691351, 0.000837725140518607, 1.32625,107.630584716797
0.134831776666667, 269.516114042494, 0.000716705219200899, 1.3325,124.955192565918
0.135498418333333, 269.520015191481, 0.000868713584003438, 1.34,106.35767364502
0.136165295, 269.525031256293, 0.000748188637845075, 1.34625,106.35767364502
0.136832331666667, 269.52843771294, 0.000803135377925185, 1.3525,100.90699005127
0.13749878, 269.532844167919, 0.000749555069188984, 1.35875,107.624626159668
0.138165101666667, 269.536274292444, 0.000993913795313157, 1.36625,107.980285644531
0.138832358333333, 269.541687387192, 0.00115193835789611, 1.3725,102.664024353027
0.13949842, 269.546289643538, 0.00124696008504753, 1.37875,102.664024353027
0.140164886666667, 269.551617027543, 0.000909811519687809, 1.385,108.564041137695
0.140831938333333, 269.556723980798, 0.00114645463336387, 1.3925,104.54931640625
0.14149824, 269.561280327207, 0.000638241160406339, 1.39875,107.664794921875
0.142165215, 269.566722905147, 0.000357071283264945, 1.405,107.259651184082
0.142831736666667, 269.570276418459, 0.000199477198985731, 1.41125,107.259651184082
0.143498526666667, 269.575395715935, 0.00044994811809463, 1.41875,106.526252746582
0.144165223333333, 269.578874642994, 0.000228808225728659, 1.425,104.748962402344
0.144831895, 269.584727449237, 0.000246103856976944, 1.43125,101.068962097168
0.145498395, 269.588686897103, 0.000116315376131258, 1.43875,107.117134094238
0.146164888333333, 269.593934078653, 0.00019340250413234, 1.445,107.117134094238
0.146831768333333, 269.598184435261, 4.28145680159885E-05, 1.45125,102.006645202637
0.14749843, 269.603060486816, -1.12727152322756E-05, 1.45875,106.74308013916
0.148165005, 269.607432542644, 7.32495393110012E-05, 1.465,103.517166137695
0.148831851666667, 269.611414609349, 9.25130717164267E-05, 1.4725,109.762451171875
0.149498955, 269.61659564899, 0.000254335443547302, 1.47875,109.762451171875
0.150165268333333, 269.620312849374, 0.000431787030359394, 1.485,106.738700866699
0.150831751666667, 269.625633405407, 0.000378536705055673, 1.49125,101.723831176758
0.151498253333333, 269.629515257553, 0.000280567625941747, 1.4975,124.039512634277
0.152165225, 269.63507965115, 0.000394587398879222, 1.505,106.577903747559
0.152831768333333, 269.639174886501, 0.000398497702457392, 1.5125,106.577903747559
0.153498375, 269.644107179631, 0.000677891668786517, 1.5175,104.312065124512
0.154165193333333, 269.648959845177, 0.000537159737603047, 1.52375,100.33666229248
0.154832096666667, 269.653636769851, 0.000640870528310332, 1.5325,101.894805908203
0.155498421666667, 269.658451240125, 0.00068035004526603, 1.5375,105.427909851074
0.156165191666667, 269.662436789506, 0.000558358172786232, 1.54375,105.427909851074
0.156832018333333, 269.668125001496, 0.000364776396178472, 1.55125,102.518043518066
0.157498376666667, 269.671841619935, 0.000439901622720027, 1.55875,102.459976196289
0.158165078333333, 269.67724774424, 0.000462368994224672, 1.56375,109.844802856445
0.158831788333333, 269.681005904722, 0.000176708342654777, 1.57,108.425323486328
0.159498428333333, 269.686483920018, 0.000375287868224356, 1.57625,108.425323486328
