Time (min), Depth (µm), Load (N), Position (µm), Acoustic (aJ)
1.09383333333333E-05, 268.500537831221, -0.000326669108286407, 0,101.349899291992
0.000667598333333333, 268.500611915014, -0.000371171872961288, 0.00124999999999995,107.066444396973
0.00133202333333333, 268.500996280208, -0.000301263384429444, 0.00750000000000013,99.5964736938477
0.00199882166666667, 268.501891224703, -0.000259614976382807, 0.0149999999999998,99.5964736938477
0.00266609833333333, 268.502291165223, -9.61876851428882E-05, 0.0225,101.118850708008
0.00333202833333333, 268.504142702702, 0.000237361061053902, 0.0300000000000001,106.370895385742
0.00399900166666667, 268.506722712224, 0.000171730357621534, 0.0375000000000002,103.232955932617
0.00466606666666667, 268.509588596592, 0.000572574723635865, 0.0449999999999999,109.055770874023
0.00533202, 268.513286741465, 0.000159048494645326, 0.0512500000000001,109.055770874023
0.005999725, 268.518036173415, -0.000310208935079515, 0.0574999999999998,105.370018005371
0.006666395, 268.522645401872, -0.000427920022547267, 0.06375,104.983993530273
0.00733199833333333, 268.526644470661, -0.000423756231702438, 0.0712500000000001,101.444137573242
0.00799881833333333, 268.53117767886, -0.000769535363587548, 0.0787499999999998,104.615325927734
0.00866543, 268.535067410336, -0.000951105743491118, 0.085,104.615325927734
0.00933270333333333, 268.53869632456, -0.000655877072495021, 0.0912500000000002,124.91219329834
0.00999866666666667, 268.542259535355, -0.000628222961575001, 0.09625,99.5996398925781
0.010665725, 268.545722197611, -0.000651233305777387, 0.10375,106.547241210938
0.011332065, 268.549199450134, -0.000731539272100467, 0.1125,104.117500305176
0.0119989733333333, 268.552687625955, -0.000538069989844206, 0.1175,104.117500305176
0.0126661233333333, 268.556110874193, -0.000277705567692344, 0.12375,105.574699401855
0.0133329316666667, 268.559770437173, -0.000549386921400909, 0.13,109.380546569824
0.013999195, 268.563317191842, -0.000480385887260561, 0.1375,106.022331237793
0.01466552, 268.566731878975, -0.000530141388067068, 0.14375,111.389663696289
0.01533202, 268.57018677297, -0.000422443797637047, 0.15125,111.389663696289
0.0159988183333333, 268.573967170578, -0.000909298343415227, 0.1575,105.739929199219
0.01666592, 268.577481472975, -0.000888195903351342, 0.1625,102.962539672852
0.01733235, 268.581520991391, -0.00102394508483828, 0.17,101.293167114258
0.0179991266666667, 268.584941867963, -0.00115602095082402, 0.17625,101.475814819336
0.0186656316666667, 268.589152574614, -0.00125540745873282, 0.18375,101.475814819336
0.0193319933333333, 268.592433431341, -0.000938798861658232, 0.19,107.886428833008
0.0199998566666667, 268.596687097632, -0.00101493953721208, 0.19625,103.430458068848
0.020665995, 268.599668070731, -0.00073135628132327, 0.2025,105.709602355957
0.0213320283333333, 268.603817820439, -0.000492182794775085, 0.20875,108.562492370605
0.0219987566666667, 268.606918894476, -0.000735596568376427, 0.21625,108.562492370605
0.0226658116666667, 268.611000518516, -0.00074906889170444, 0.22375,102.815658569336
0.0233320866666667, 268.614622152345, -0.00057313372871909, 0.22875,106.400199890137
0.0239986766666667, 268.618909281104, -0.000830042324450731, 0.235,106.392608642578
0.0246661083333333, 268.622847664893, -0.00104663444523962, 0.2425,107.772750854492
0.0253322066666667, 268.62662456162, -0.000925211044193677, 0.25,107.772750854492
0.025999295, 268.630843120029, -0.00133250508624723, 0.255,126.43359375
0.0266655066666667, 268.634150139281, -0.00137561592082084, 0.2625,102.995597839355
0.0273325583333333, 268.638137144112, -0.00127346355184484, 0.26875,103.497421264648
0.027999565, 268.64125351285, -0.000957897402379299, 0.275,100.633583068848
0.0286654366666667, 268.644822923245, -0.000512247286939375, 0.2825,100.633583068848
0.0293320416666667, 268.648221356969, -0.000340930392020566, 0.28875,104.69278717041
0.02999901, 268.651710465658, -0.000170334960867249, 0.29625,101.233985900879
0.0306659216666667, 268.655071835227, 0.000110723921868304, 0.30125,102.039764404297
0.0313325016666667, 268.658163529221, -0.000150933435352961, 0.3075,104.542434692383
0.0319991266666667, 268.662102978005, -0.000363081279391107, 0.315,104.542434692383
0.03266556, 268.664677704027, -4.52937415442749E-05, 0.32125,102.879432678223
0.0333323116666667, 268.668507380235, -6.84360791154021E-05, 0.3275,104.46134185791
0.03399898, 268.671279850386, -0.000541492817970063, 0.335,107.703338623047
0.0346655133333333, 268.675205534542, -0.000471122352594491, 0.34125,107.451667785645
0.0353320033333333, 268.677928753539, -0.000625733086683019, 0.3475,107.451667785645
0.0359988783333333, 268.681109467455, -0.000694347140221057, 0.35375,101.091773986816
0.0366655033333333, 268.683485972684, -0.000683007709819559, 0.36125,102.107986450195
0.0373320483333333, 268.68600450545, -0.000266756117678201, 0.3675,102.29369354248
0.03799974, 268.689345420367, -0.000238947514502137, 0.375,106.898910522461
0.0386658466666667, 268.692124685252, -0.000174992226883258, 0.38,106.898910522461
0.0393325233333333, 268.693796460816, -0.000219896971425736, 0.38625,106.239334106445
0.0399988916666667, 268.694909358503, -0.000332547313085479, 0.3925,106.059455871582
0.0406656916666667, 268.697238147849, -0.000403099269313845, 0.4,106.131439208984
0.0413323083333333, 268.698241482863, -0.000366973583876438, 0.4075,119.160430908203
0.0419994283333333, 268.699944376934, 0.000139519475514253, 0.41375,102.142158508301
0.0426656083333333, 268.703442370455, 0.000147005599528667, 0.42,102.142158508301
0.0433322866666667, 268.706599720407, 0.000308713977104895, 0.4275,101.402328491211
0.0439990483333333, 268.710027147994, 0.000271826329921854, 0.43375,103.475952148438
0.0446655666666667, 268.712524655985, 0.000152079844698814, 0.44,103.139320373535
0.04533234, 268.716206337596, -1.94710384906651E-05, 0.4475,103.139320373535
0.045999135, 268.718473539196, 2.77000921439476E-05, 0.455,100.141593933105
0.0466656066666667, 268.72216942579, -1.92265508129341E-05, 0.46,101.175804138184
0.0473320783333333, 268.724670265557, -0.000283172793077399, 0.46625,109.767181396484
0.0479995216666667, 268.728127684069, -0.000265080701843459, 0.4725,103.541969299316
0.0486655666666667, 268.730441731937, -0.000345773648726341, 0.48,103.541969299316
0.049332085, 268.733030318068, -0.000640706834551234, 0.48625,105.373229980469
0.0499988266666667, 268.735753308964, -0.000654297651928358, 0.4925,102.740966796875
0.0506660383333333, 268.737917657979, -0.000749572866367697, 0.5,104.070877075195
0.051332555, 268.740481515836, -0.000750553817139968, 0.50625,104.667663574219
0.051999105, 268.742431595435, -0.000934960554578943, 0.5125,104.667663574219
0.0526657233333333, 268.745589799627, -0.000630661839207305, 0.52,100.259735107422
0.053332505, 268.747590720572, -0.000687048506948337, 0.5275,109.358306884766
0.0539990766666667, 268.750421523402, -0.000230279449951685, 0.53375,104.491500854492
0.0546656583333333, 268.752270868395, -0.000139013534101132, 0.53875,102.526016235352
0.0553323616666667, 268.754759829599, -0.000105496217689834, 0.545,102.526016235352
0.05599945, 268.757039910066, -0.000117956091811853, 0.5525,104.618698120117
0.0566658083333333, 268.759174509619, -5.82515907169537E-05, 0.56,101.092903137207
0.0573326783333333, 268.761899497515, -0.000208515543119693, 0.56625,98.9115524291992
0.05799941, 268.76398763131, 9.92914960262795E-05, 0.5725,125.084197998047
0.0586658983333333, 268.766661435926, 0.000268130515448333, 0.57875,103.40210723877
0.0593326233333333, 268.768416961476, 0.000321602829584991, 0.585,103.40210723877
0.060000255, 268.770528464022, 0.000537456987439955, 0.5925,108.030960083008
0.0606660966666667, 268.771686053128, 0.000845436517977319, 0.6,104.589286804199
0.0613320583333333, 268.774204721813, 0.000546831516596882, 0.60625,112.939109802246
0.0619989533333333, 268.776257081426, 0.00030640709288384, 0.6125,112.939109802246
0.0626663433333333, 268.778179465438, 0.000234806689263801, 0.61875,106.62419128418
0.0633326233333333, 268.780765557261, 0.000173744756371413, 0.625,101.89575958252
0.0639988516666667, 268.783292239886, -0.000111522914983575, 0.63125,103.836715698242
0.0646656366666667, 268.785547702036, 0.000175201183137009, 0.63875,99.1649551391602
0.065332105, 268.787089146124, 0.000505582088420258, 0.64625,99.1649551391602
0.0659987066666667, 268.789436443199, 0.000649453361953607, 0.6525,100.974594116211
0.066666295, 268.790636452118, 0.000433462710956692, 0.6575,101.446472167969
0.0673320233333333, 268.792243555305, 0.000485909076631489, 0.665,104.844192504883
0.06799937, 268.793651601513, 0.000358689966734919, 0.6725,111.059524536133
0.0686673016666667, 268.795644760283, 0.000184685206839136, 0.67875,111.059524536133
0.0693335266666667, 268.797424010419, 9.32033018745134E-05, 0.685,106.823249816895
0.0699988433333333, 268.79875472999, 0.00019271730335759, 0.69125,109.157730102539
0.0706660883333333, 268.800603308771, 0.000201613356544861, 0.6975,100.753890991211
0.0713326516666667, 268.801992860102, 0.000282631787044505, 0.705,105.00422668457
0.0719991783333333, 268.803945546074, 0.000441217321460543, 0.71125,105.00422668457
0.0726657583333333, 268.805810990268, 0.000578005950707718, 0.71875,102.921890258789
0.073332045, 268.808170716964, 0.000794416580643816, 0.72375,104.674942016602
0.0739991383333333, 268.810013422312, 0.000751821720149944, 0.73,104.78572845459
0.0746660533333333, 268.811893864832, 0.000670197320085114, 0.73875,124.099014282227
0.075332335, 268.813356086447, 0.000665040579072787, 0.745,107.834938049316
0.075999065, 268.814151040031, 0.000745117056940914, 0.75125,107.834938049316
0.0766663783333333, 268.815640719117, 0.000835216031371938, 0.7575,103.550033569336
0.077332395, 268.816515565196, 0.000964131556087404, 0.765,103.351531982422
0.0779992633333333, 268.818247453784, 0.00109946825825718, 0.77125,105.928649902344
0.0786661666666667, 268.819207839147, 0.00122963921991071, 0.77625,105.928649902344
0.0793323133333333, 268.820974996449, 0.00136090212665734, 0.785,103.144416809082
0.0799989583333333, 268.822481298191, 0.00122823979014491, 0.79125,105.575050354004
0.0806655333333333, 268.824640816472, 0.00106679239943611, 0.7975,102.72917175293
0.08133214, 268.826760999534, 0.000625574561351702, 0.80375,102.61784362793
0.08199917, 268.828872949748, 0.000549895862620328, 0.81,102.61784362793
0.0826662633333333, 268.831781836463, -0.000155899686008582, 0.8175,103.823097229004
0.08333204, 268.833624176014, -7.89610505659312E-05, 0.82375,99.8984146118164
0.0839989083333333, 268.835966031582, 0.0002749446731388, 0.83,101.913269042969
0.08466636, 268.836766730512, 0.000538223448916291, 0.83625,102.13037109375
0.0853320983333333, 268.838758440501, 0.000303507738417227, 0.84375,102.13037109375
0.0859989233333333, 268.839305972926, 0.000593171688942057, 0.85,107.955940246582
0.0866662533333333, 268.841805608749, 0.000358479977275955, 0.8575,103.498687744141
0.0873320916666667, 268.842976819712, -2.47402739820149E-05, 0.86375,109.166954040527
0.08799923, 268.845374630349, -4.46772725295195E-05, 0.87,104.681770324707
0.0886658816666667, 268.847718862993, 4.16328922212521E-05, 0.875,104.681770324707
0.089331945, 268.849450883573, -6.92265394672059E-05, 0.88375,105.891662597656
0.089999125, 268.851310299993, -0.000121609908274558, 0.89,106.611694335938
0.0906655383333333, 268.852957091871, -0.000382527802658746, 0.89625,105.283599853516
0.091332545, 268.855120326188, -0.000183420303635459, 0.9025,122.448860168457
0.0919990866666667, 268.856293115942, -0.000187987574251034, 0.91,104.170616149902
0.0926661283333333, 268.858636634122, -5.7893108763321E-05, 0.915,104.170616149902
0.0933323066666667, 268.859777567244, -2.58682173458058E-05, 0.9225,103.496429443359
0.0939992683333333, 268.861878916948, 5.76220889954886E-05, 0.93,113.286224365234
0.0946655183333333, 268.863839037, -0.000432149810257127, 0.935,113.286224365234
0.0953320783333333, 268.865326723513, -0.000392514301099727, 0.94125,104.09098815918
0.095998955, 268.866990355892, -0.000252329842408462, 0.94875,105.967491149902
0.0966661316666667, 268.868822632086, -0.000201498895592278, 0.955,107.378143310547
0.0973324666666667, 268.870777001928, 1.30218292769041E-05, 0.9625,103.389839172363
0.0979987466666667, 268.871778655395, 0.000330228896273405, 0.96875,112.13648223877
0.0986661316666667, 268.873722223133, 0.000365336132870967, 0.975,112.13648223877
0.0993323916666667, 268.87484761122, 0.000654580104435361, 0.98125,106.445610046387
0.0999989383333333, 268.876359557025, 0.0010967653939299, 0.98875,110.223838806152
0.100665793333333, 268.878231087521, 0.00134071914040143, 0.995,106.020881652832
0.101332193333333, 268.880163314557, 0.00148570935770964, 1.00125,106.575134277344
0.101998833333333, 268.882156492141, 0.00163713125194298, 1.00875,106.575134277344
0.102665941666667, 268.8846941074, 0.00121009670148126, 1.015,104.518997192383
0.103332033333333, 268.886893994796, 0.000952636133441697, 1.02125,102.681129455566
0.103999083333333, 268.888060202893, 0.000809688813532041, 1.0275,104.471870422363
0.104666336666667, 268.889873332989, 0.00096725139931377, 1.03375,102.109367370605
0.105332663333333, 268.890895733573, 0.000702673688811772, 1.04,102.109367370605
0.10599925, 268.891690486024, 0.000521127307677401, 1.0475,111.709175109863
0.106666296666667, 268.892315481252, 0.000409486415289829, 1.055,103.250228881836
0.107332245, 268.893142135611, 0.000220551405291017, 1.06,101.401412963867
0.107998928333333, 268.894379863306, -0.000136712649683961, 1.06625,124.094955444336
0.108665615, 268.895609637526, -0.000195163213786449, 1.07375,104.520980834961
0.109332145, 268.898389562439, -0.000147254120154147, 1.08,104.520980834961
0.109999118333333, 268.900167188698, -6.86415687799025E-05, 1.08625,102.271957397461
0.110665656666667, 268.902978933556, 0.000152612317861971, 1.09375,104.170776367188
0.111332006666667, 268.90486332757, -3.80881034995407E-05, 1.1,101.520736694336
0.1119993, 268.907381313516, 0.000434881639718477, 1.10625,101.520736694336
0.112665995, 268.909095332916, 0.000427797495529153, 1.11375,101.627471923828
0.11333235, 268.911241044547, 0.000302265800862551, 1.12,103.913330078125
0.11399909, 268.913331126284, 5.53542029789514E-05, 1.12625,106.906593322754
0.114665488333333, 268.914951551181, -0.000141903888957562, 1.1325,102.34969329834
0.115332256666667, 268.917560025069, -0.000579979384885788, 1.14,102.34969329834
0.11599932, 268.918386303406, -0.000449536936894011, 1.14625,104.79256439209
0.11666629, 268.921356642325, -0.000408818482147427, 1.1525,106.907852172852
0.117332161666667, 268.922843482398, -0.00046522164903564, 1.15875,106.770645141602
0.11799906, 268.925816251057, -0.000141816893342173, 1.16625,109.024032592773
0.118665668333333, 268.927150076401, 9.86480283722656E-05, 1.1725,109.024032592773
0.119332618333333, 268.930485472011, 0.000315268647767328, 1.17875,108.679870605469
0.119999068333333, 268.932581835251, 0.000174890698828043, 1.185,105.118446350098
0.120665958333333, 268.935906279737, 0.000218295518627198, 1.19125,102.422325134277
0.12133249, 268.93909991398, 0.000276635088302591, 1.19875,99.9822311401367
0.121999491666667, 268.943142341443, 6.51757096718115E-05, 1.205,99.9822311401367
0.12266563, 268.947547937581, -6.82545882838621E-05, 1.21125,101.676490783691
0.123332335, 268.951255444392, 4.68586297348745E-05, 1.21875,101.217994689941
0.123998926666667, 268.955710764343, 0.00020560015633136, 1.225,124.011337280273
0.1246661, 268.95936894485, 0.000262375304535344, 1.23125,103.080993652344
0.12533229, 268.964039580653, 0.000443897686858009, 1.23875,108.174507141113
0.125999461666667, 268.967851817407, 0.000454646146959607, 1.245,108.174507141113
0.126665656666667, 268.972008650251, 0.000506021566419191, 1.25125,105.769493103027
0.127332165, 268.97650477214, 0.000481427301770661, 1.25875,107.514579772949
0.127998945, 268.981089769064, 0.000599370877605935, 1.265,101.990074157715
0.12866566, 268.985365733038, 0.000763452135949436, 1.27125,101.990074157715
0.129332181666667, 268.989227200642, 0.000639199877053863, 1.27875,104.031814575195
0.129999811666667, 268.994514014148, 0.000904253063697965, 1.28375,106.818260192871
0.130666293333333, 268.998120271473, 0.000861569707621793, 1.29125,105.500679016113
0.131332573333333, 269.003452464023, 0.00100615644518051, 1.2975,103.641319274902
0.131998865, 269.007739461808, 0.00103881580472688, 1.305,103.641319274902
0.13266564, 269.012979936536, 0.0013354394056518, 1.31125,103.921325683594
0.133332056666667, 269.017425563163, 0.00128792179241627, 1.3175,107.027061462402
0.133999196666667, 269.021997066267, 0.00141386746628193, 1.32375,102.001342773438
0.134666556666667, 269.026363055063, 0.00134487543170926, 1.33125,103.981872558594
0.135332448333333, 269.03071087374, 0.00128489794433046, 1.3375,103.981872558594
0.1359993, 269.03535385528, 0.00140303351048935, 1.34375,106.184204101563
0.136666823333333, 269.039759900895, 0.00128882024730385, 1.35125,104.645378112793
0.13733355, 269.044831559887, 0.00129789179164631, 1.3575,101.437103271484
0.138000216666667, 269.049047137585, 0.00117635139647565, 1.36375,101.536361694336
0.138666888333333, 269.054000804957, 0.00119661687855249, 1.37,101.536361694336
0.139333646666667, 269.058248224157, 0.000936448946518706, 1.3775,104.455154418945
0.139999236666667, 269.062877403264, 0.00110805982670557, 1.38375,101.059501647949
0.140665508333333, 269.067836900676, 0.00133538690829768, 1.39,125.523918151855
0.141332028333333, 269.072593296041, 0.000958587834536529, 1.39625,99.840202331543
0.14199917, 269.077716467863, 0.000960201753449483, 1.40375,104.619140625
0.142666481666667, 269.08225916433, 0.000908536848516308, 1.41,104.619140625
0.143332626666667, 269.087471545115, 0.000858763348595707, 1.41625,105.523315429688
0.143998833333333, 269.091750986602, 0.000386840552781196, 1.42375,108.804107666016
0.144665628333333, 269.096829905033, 0.000451947782490556, 1.43,103.548728942871
0.145332325, 269.101002081359, 0.000323426737935655, 1.43625,103.548728942871
0.145999385, 269.105963257024, 7.69561178903754E-05, 1.44375,101.845245361328
0.146665631666667, 269.110854442473, 2.53782085725896E-05, 1.45,110.370727539063
0.147332513333333, 269.115826746931, -9.86130634555628E-05, 1.45625,104.588417053223
0.147999735, 269.121122738689, 5.70641170749686E-05, 1.4625,111.345985412598
0.148665468333333, 269.125758290592, 4.77450851847244E-05, 1.47,111.345985412598
0.149332481666667, 269.131364169979, 0.000521116808227832, 1.47625,103.111694335938
0.14999869, 269.13537081792, 0.000398746954713396, 1.4825,107.977333068848
0.150665686666667, 269.140667620983, 0.000978280345363794, 1.48875,105.151153564453
0.151332366666667, 269.144451813421, 0.00110235561313727, 1.4975,113.975830078125
0.151999421666667, 269.149918925103, 0.00124404449626006, 1.5025,113.975830078125
0.152665808333333, 269.15498391311, 0.00101997675097008, 1.50875,98.8066024780273
0.153332188333333, 269.159794726214, 0.00114265558893284, 1.51625,99.8751373291016
0.153999463333333, 269.164827999924, 0.00124201509820238, 1.5225,110.24308013916
0.154666073333333, 269.168930928597, 0.00160202101549661, 1.53,106.268600463867
0.155332073333333, 269.174474153205, 0.00145487840632966, 1.53625,106.268600463867
0.155999283333333, 269.17831010047, 0.00144051962757305, 1.54375,105.007255554199
0.156665986666667, 269.184031515914, 0.00173833116879539, 1.54875,101.786033630371
0.157332095, 269.188509290293, 0.00138781377491273, 1.555,126.315315246582
0.157999413333333, 269.194759858781, 0.00113058119546748, 1.5625,99.0034484863281
0.158665741666667, 269.198694791061, 0.00125738932603505, 1.57,110.037559509277
0.159332105, 269.204136883196, 0.000981947661167383, 1.57625,110.037559509277
