Time (min), Depth (µm), Load (N), Position (µm), Acoustic (aJ)
7.21166666666667E-06, 268.464544874068, -0.000327827168948786, 0,109.744064331055
0.000666593333333333, 268.464345444157, -0.000318092657892569, 0.00124999999999995,100.893264770508
0.001333085, 268.464374298949, -3.51123716776311E-05, 0.00625000000000018,100.893264770508
0.00200008, 268.46482345309, 0.000221460240966426, 0.0149999999999998,106.226707458496
0.002666495, 268.466564417085, 0.000224446590920903, 0.0249999999999998,100.612701416016
0.00349986166666667, 268.468875821329, 0.000432229654180421, 0.0325,101.505317687988
0.00416659333333333, 268.471031087035, 0.000291563719670694, 0.0400000000000001,100.782470703125
0.00483308333333333, 268.474367846428, 5.54440797176404E-05, 0.0462499999999998,110.936187744141
0.00549981166666667, 268.477442164134, -0.000206111282665458, 0.0525,110.936187744141
0.00616693833333333, 268.480845072556, -0.000284155362542088, 0.0600000000000002,109.006462097168
0.00683333, 268.484182127912, -0.00026474483752389, 0.0674999999999999,105.276992797852
0.00749980166666667, 268.487633124593, -0.000328893615369535, 0.07375,107.75732421875
0.00816647833333333, 268.491158206065, -0.000310206054041231, 0.0787499999999998,107.904693603516
0.00883349166666667, 268.494125451025, -9.53133478987873E-05, 0.085,107.904693603516
0.009499775, 268.497601420311, -0.000244002379423057, 0.0937500000000001,104.866813659668
0.0101664416666667, 268.501177417437, -0.000269166615472349, 0.0999999999999998,108.572776794434
0.01083314, 268.505104007541, -0.000412061438027891, 0.10625,105.658912658691
0.0114997533333333, 268.508780403154, -0.000374029348333878, 0.11125,122.871032714844
0.0121667883333333, 268.512173540122, -0.000300608036211981, 0.12,122.871032714844
0.0128331283333333, 268.515736583493, 6.4784110528276E-05, 0.12625,105.126609802246
0.0134999266666667, 268.5186781477, -0.00010872417434752, 0.1325,103.318809509277
0.0141683266666667, 268.522179458163, -4.65402977677001E-05, 0.14,107.786170959473
0.0148333016666667, 268.524620972875, -5.35086667347636E-06, 0.14625,109.199317932129
0.0154998866666667, 268.528427113699, -3.29989779383918E-05, 0.1525,109.199317932129
0.0161665316666667, 268.531583347033, -0.000289532592547964, 0.15875,102.687515258789
0.01683322, 268.534951162059, -1.05841038516233E-05, 0.165,115.516639709473
0.0174998983333333, 268.538599537078, -0.000137597724083693, 0.17125,102.565101623535
0.0181664666666667, 268.542577005506, -0.000359186093931255, 0.17875,101.633773803711
0.0188331883333333, 268.546462442872, -0.000219664601975008, 0.185,101.633773803711
0.01949999, 268.550042847749, -0.000133193945291834, 0.19125,104.908897399902
0.02016662, 268.554526012418, -0.000476630194855228, 0.19875,104.086334228516
0.0208331483333333, 268.557489052944, -0.000297221206356818, 0.205,111.46044921875
0.0214998516666667, 268.561679255771, -7.53133525901082E-05, 0.2125,107.734413146973
0.0221667633333333, 268.564482678386, -0.000262139468495365, 0.2175,107.734413146973
0.022833075, 268.568369637125, -0.000261343008509711, 0.22375,106.934310913086
0.0234998033333333, 268.571212500156, -0.000409633060057697, 0.2325,104.509338378906
0.0241666783333333, 268.57515099833, -0.000592446877504108, 0.23875,107.230796813965
0.0248331066666667, 268.578723788228, -0.000623522316625583, 0.24375,103.46028137207
0.025499885, 268.582543739553, -0.000604194287449563, 0.25,103.46028137207
0.0261665183333333, 268.586485902572, -0.000737221105655744, 0.2575,107.216148376465
0.0268332466666667, 268.590356887782, -0.000458340113557549, 0.265,104.913108825684
0.0274998183333333, 268.594190000554, -0.000170917050537523, 0.27,104.703353881836
0.0281666516666667, 268.597300119939, -2.70877749299724E-05, 0.27625,128.275817871094
0.02883362, 268.60147856514, -0.000156772761013088, 0.28375,128.275817871094
0.0294997633333333, 268.604747160496, 3.86314240209331E-05, 0.29,109.317672729492
0.0301666233333333, 268.608452308078, -7.34789447898747E-05, 0.29625,107.623970031738
0.0308332033333333, 268.611904982198, -0.000260209065512069, 0.30375,114.818420410156
0.0314998183333333, 268.616317186027, -0.000274776333824493, 0.31,107.481323242188
0.03216649, 268.619802635063, -0.000378179639944094, 0.31625,107.481323242188
0.0328331416666667, 268.623681230443, -0.000686099173462819, 0.32375,110.385269165039
0.0334998116666667, 268.627256760786, -0.000390833004399149, 0.33,107.84676361084
0.03416669, 268.63090980126, -0.000407471668631283, 0.33625,106.251052856445
0.0348331183333333, 268.634229514812, -0.000410483517343123, 0.3425,104.317947387695
0.0354997916666667, 268.637483495176, -0.000382143940822035, 0.35,104.317947387695
0.036166735, 268.640836912804, 0.000130815293776313, 0.35625,107.823234558105
0.0368330916666667, 268.644319880941, 0.000144200621446429, 0.3625,106.958099365234
0.0374999216666667, 268.647959106464, 0.000325636008111197, 0.37,102.847587585449
0.038166575, 268.651598666758, 0.000358541355344711, 0.37625,104.690902709961
0.03883312, 268.654763256198, 0.00101865519850524, 0.3825,104.690902709961
0.0394997733333333, 268.65651784923, 0.000847770281857077, 0.38875,105.299659729004
0.0401665166666667, 268.657463491414, 0.000831662590927458, 0.395,107.50089263916
0.0408339, 268.660134775417, 0.000616150415878944, 0.4025,107.585380554199
0.0414998133333333, 268.661569017582, 0.00047443453409565, 0.40875,106.044586181641
0.0421664783333333, 268.664102758028, 1.76114798842435E-05, 0.415,106.044586181641
0.0428331433333333, 268.668211547198, -6.63678019187834E-05, 0.4225,102.611305236816
0.0434997566666667, 268.672523054049, 6.77794600079178E-05, 0.42875,102.325820922852
0.044166695, 268.675571701974, 0.00038189068254725, 0.435,123.830940246582
0.0448332733333333, 268.679695602673, 9.55640644147838E-05, 0.4425,107.479888916016
0.0454998716666667, 268.683867236645, 0.000390528748652145, 0.44875,107.479888916016
0.0461666583333333, 268.687155686464, 0.000460345741816644, 0.455,103.06396484375
0.0468330816666667, 268.691728353977, -8.1230555381157E-05, 0.46125,107.407257080078
0.0475001333333333, 268.695017694291, -0.000108448188299829, 0.47,101.134262084961
0.0481666283333333, 268.698362785482, 0.000481638672258489, 0.475,104.918716430664
0.0488332383333333, 268.701238546818, 0.000183701137365027, 0.48125,104.918716430664
0.049499785, 268.704859264496, -2.6645016846679E-06, 0.48875,109.944885253906
0.050166425, 268.707931205113, 0.000400974223981777, 0.495,101.571357727051
0.05083341, 268.710978212282, 0.000390335258361616, 0.50125,107.074195861816
0.0514998716666667, 268.714091277868, 1.9559882024141E-05, 0.50875,102.574279785156
0.05216673, 268.717037267901, -5.95641436566305E-05, 0.515,102.574279785156
0.0528331666666667, 268.719961833851, -0.000448218621962784, 0.5225,107.712242126465
0.0534997633333333, 268.722063397985, -0.000896613599549514, 0.52875,100.238731384277
0.0541664933333333, 268.725239395869, -0.00124917839058268, 0.53375,105.632537841797
0.0548332716666667, 268.727677293341, -0.00121194726066879, 0.54125,106.086265563965
0.0554998133333333, 268.73051323198, -0.000820430926091121, 0.5475,106.086265563965
0.05616644, 268.73224399511, -0.000360429531474096, 0.55375,106.062896728516
0.05683312, 268.735228220148, 1.88804161844489E-05, 0.56125,107.05827331543
0.05749978, 268.736897180914, 0.000496013950289804, 0.56875,103.252456665039
0.0581665416666667, 268.738934416907, 0.000725352430846753, 0.575,100.798439025879
0.05883309, 268.741080984383, 0.000454469037048246, 0.58,100.798439025879
0.0594997766666667, 268.742962588962, 0.000530212232550214, 0.5875,105.523139953613
0.060166415, 268.744472658997, 0.000733446024350757, 0.59375,104.001304626465
0.060833155, 268.746566886898, 0.000522343627791715, 0.60125,125.258720397949
0.0614999116666667, 268.74868831979, 0.000322975141858498, 0.60625,106.93440246582
0.0621665533333333, 268.750328172702, 0.000385661493177172, 0.61375,106.93440246582
0.0628331366666667, 268.753021567751, 0.00054400403977612, 0.62,109.661697387695
0.0634997433333333, 268.755320279343, 0.000286207488627717, 0.6275,113.877296447754
0.0641664666666667, 268.757764649772, 0.000204535090918221, 0.635,108.524856567383
0.0648339933333333, 268.760501518443, 0.000108841397527865, 0.64,106.947975158691
0.0654997816666667, 268.762542169103, 0.000363062128303786, 0.64625,106.947975158691
0.0661664666666667, 268.76512963194, 0.000278262387703398, 0.655,107.555625915527
0.0668331383333333, 268.767244966271, 0.000313539115779783, 0.66125,103.49333190918
0.0674997916666667, 268.769653161407, 0.000488139345812438, 0.6675,105.858573913574
0.068166565, 268.771146362531, 0.000391620693851512, 0.6725,101.547988891602
0.0688332983333333, 268.773498458129, 0.000334929541371602, 0.68,101.547988891602
0.069499855, 268.775261684205, 8.39981453858857E-05, 0.6875,105.343757629395
0.0701664266666667, 268.777229173208, -4.99376271787021E-05, 0.69375,102.739013671875
0.07083314, 268.778963620404, -0.000340641025463768, 0.7,109.9775390625
0.071499995, 268.780847920365, -0.000569084051024448, 0.70625,107.09651184082
0.0721666616666667, 268.782990107445, -0.000998836465036226, 0.71375,107.09651184082
0.072833075, 268.784407318802, -0.000969412442959042, 0.72,101.67586517334
0.0734999133333333, 268.786030900286, -0.000851305375342559, 0.7275,105.72843170166
0.07416646, 268.787640602702, -0.000868026535480634, 0.7325,107.217353820801
0.0748333316666667, 268.789886361849, -0.000715388202322456, 0.73875,106.041763305664
0.0754998433333333, 268.791450957279, -0.000689952479913665, 0.7475,106.041763305664
0.0761664233333333, 268.793974532741, -0.000562478382804779, 0.75375,100.479698181152
0.07683316, 268.795950162772, -0.000795443681163921, 0.76,104.039772033691
0.0774998083333333, 268.798064781019, -0.000952442295285009, 0.76625,124.854591369629
0.0781664833333333, 268.799667191274, -0.000518677582856894, 0.7725,101.538925170898
0.0788331833333333, 268.801693115515, -0.000924764185553283, 0.77875,101.538925170898
0.079499815, 268.80381412193, -0.0013639226271132, 0.78625,107.828514099121
0.0801664766666667, 268.80582575004, -0.00126128428252428, 0.7925,102.290672302246
0.0808331583333333, 268.808563679027, -0.00131484359231883, 0.8,109.059860229492
0.0814998383333333, 268.810660242901, -0.00182301506737182, 0.80625,102.703315734863
0.0821664616666667, 268.812587197662, -0.00136421661236, 0.8125,102.703315734863
0.0828331583333333, 268.814296086045, -0.0012149666090239, 0.81875,103.180221557617
0.08349988, 268.816342735711, -0.00125725398497259, 0.825,101.263404846191
0.0841664333333333, 268.817825920381, -0.00113150930099822, 0.8325,100.562072753906
0.0848331316666667, 268.820002764196, -0.000696931629394762, 0.83875,100.562072753906
0.0854998866666667, 268.822187108087, -0.000508352101522031, 0.845,105.152328491211
0.0861664833333333, 268.823783472623, -0.00043186194356097, 0.85125,102.875663757324
0.0868332533333333, 268.825821562651, -0.000307837673174692, 0.85875,106.812164306641
0.0874998583333333, 268.827419059482, -0.000172158988177215, 0.865,106.509498596191
0.0881667533333333, 268.82908807627, -0.000427104182567435, 0.8725,106.509498596191
0.08883322, 268.830693379888, -0.00082315028956558, 0.87875,106.888366699219
0.0894998433333333, 268.83259922109, -0.000564993756475379, 0.885,105.923904418945
0.09016644, 268.834781883932, -0.000548674576162393, 0.89125,105.001602172852
0.090833185, 268.836777580206, -0.000669553504564941, 0.89875,107.347534179688
0.091499775, 268.838913354396, -0.000889032980340203, 0.90375,108.39673614502
0.0921670883333333, 268.840763342194, -0.000815347681523333, 0.91125,108.39673614502
0.09283318, 268.843206662051, -0.00121256972946617, 0.91875,108.351982116699
0.093499805, 268.844910577059, -0.00123618754315815, 0.925,110.812461853027
0.0941664216666667, 268.846922240709, -0.000985821618799986, 0.93,127.401863098145
0.0948331316666667, 268.848560635058, -0.000620180484587534, 0.9375,106.275039672852
0.09549991, 268.850974344611, -0.000689715491879205, 0.945,106.275039672852
0.0961664366666667, 268.852830839164, -0.000521147958880412, 0.95125,108.976402282715
0.0968333133333333, 268.855315938534, -0.000421005488944846, 0.95625,101.513633728027
0.097499855, 268.857061238788, -0.000273996373028528, 0.96375,105.063407897949
0.0981664616666667, 268.859333221239, -0.000232301467346644, 0.97125,104.734642028809
0.0988331516666667, 268.86097045259, 0.000406385952100149, 0.9775,104.734642028809
0.0994998716666667, 268.863054873176, 0.000494971502531982, 0.98375,106.409317016602
0.100166561666667, 268.864525410521, 0.000593485054331815, 0.99,106.987632751465
0.10083333, 268.866576334624, 0.000373170120536414, 0.99625,109.961807250977
0.101499758333333, 268.86853476291, 0.000462271645069239, 1.00375,102.255592346191
0.102166686666667, 268.870708027621, 4.57545662447422E-05, 1.01,102.255592346191
0.102833183333333, 268.872241801476, 0.000187360953525345, 1.01625,105.601081848145
0.103499883333333, 268.874082587282, 0.00024397560981818, 1.0225,107.806678771973
0.104166596666667, 268.875962114054, 0.000195016568954818, 1.02875,108.444793701172
0.104833128333333, 268.877562696629, 0.000122733699625027, 1.0375,104.936668395996
0.105499906666667, 268.878918039201, 0.000419030316945022, 1.04375,104.936668395996
0.106166436666667, 268.880580509275, 0.000300165787398623, 1.04875,105.252143859863
0.106833083333333, 268.882407946127, 0.000118071933772046, 1.055,109.737075805664
0.107499883333333, 268.883778180456, 0.000108839897497191, 1.0625,102.860656738281
0.108166453333333, 268.885535088295, -3.43996279243913E-06, 1.06875,104.957763671875
0.108833356666667, 268.886907051339, -0.000306561237316233, 1.075,104.957763671875
0.109499885, 268.8885716496, -4.54993501893311E-05, 1.0825,104.620170593262
0.110166448333333, 268.889941160062, -0.000111659527021065, 1.08875,107.962982177734
0.110833625, 268.891651561423, -9.86371811203002E-05, 1.095,126.435134887695
0.11149978, 268.893033600057, -0.000113340942574674, 1.10125,108.08016204834
0.112166743333333, 268.895139422875, -0.000194419370092956, 1.10875,108.08016204834
0.112833276666667, 268.896399815974, -0.000409813051071105, 1.115,108.560012817383
0.113499841666667, 268.897596033464, -0.000182304478604941, 1.12125,105.265563964844
0.114166615, 268.899085692085, -0.000154756862296298, 1.12875,102.82731628418
0.114833223333333, 268.900958375543, -0.000109076656752319, 1.135,107.821044921875
0.115499816666667, 268.903119755589, -0.000150123594985725, 1.14125,107.821044921875
0.116166783333333, 268.905351328623, -0.000265715288952863, 1.14875,105.468505859375
0.116833385, 268.907822829847, -0.000532481389584297, 1.155,108.855659484863
0.117499801666667, 268.9106503528, -0.000259966077716233, 1.16125,107.971000671387
0.11816645, 268.91352203338, -0.000215169327815806, 1.1675,105.79369354248
0.118833155, 268.916485905884, 2.59255622542721E-05, 1.17375,105.79369354248
0.119499923333333, 268.920144608444, 0.000140369813861631, 1.18,106.48070526123
0.12016645, 268.924252187389, 8.85941950344724E-06, 1.18625,103.60856628418
0.120833176666667, 268.928566408503, -0.000366070748132438, 1.1925,109.713043212891
0.121499966666667, 268.933000963428, -0.00046918456884221, 1.20125,108.571197509766
0.122166478333333, 268.937041454241, -0.00066119592434471, 1.2075,108.571197509766
0.122833255, 268.941872522308, -0.00058769961600265, 1.21375,107.345718383789
0.123499881666667, 268.946136998193, -0.000553997808783481, 1.22,108.309120178223
0.124166523333333, 268.950881212619, -0.000445430262029537, 1.22625,108.50439453125
0.124833336666667, 268.954974865704, -0.000194450868441663, 1.23375,104.699096679688
0.125499906666667, 268.959816770512, -0.0001238584142119, 1.24,104.699096679688
0.126166666666667, 268.963965507512, -0.000279066118297941, 1.24625,101.892478942871
0.126833278333333, 268.968445077053, -2.37623596368879E-07, 1.25375,131.998962402344
0.127499795, 268.972152739349, -5.34774494080136E-05, 1.26,108.406997680664
0.1281665, 268.976817451358, 7.57098416474544E-06, 1.265,99.7819519042969
0.128833288333333, 268.981240313207, 0.000197242457173081, 1.2725,99.7819519042969
0.129499773333333, 268.986154174582, 6.24427280034379E-05, 1.28,111.325370788574
0.130166756666667, 268.991143959912, 0.000291893702954394, 1.28625,108.982315063477
0.13083311, 268.995883122356, 0.000471695671667711, 1.29375,104.56371307373
0.131499841666667, 269.000650777704, 0.000466661924520214, 1.3,102.164962768555
0.132166438333333, 269.005330341167, 0.000315327025902261, 1.30625,102.164962768555
0.13283331, 269.009338345532, 0.000686928860755965, 1.31375,108.223434448242
0.133500083333333, 269.013870631737, 0.000459618278332286, 1.32,110.796348571777
0.134166666666667, 269.018158403387, 0.000552759099984469, 1.32625,103.145538330078
0.134833156666667, 269.022773485049, 0.00061445550102696, 1.3325,106.268524169922
0.135499931666667, 269.027135699396, 0.000768185779320743, 1.33875,106.268524169922
0.1361666, 269.032294713889, 0.000526784904629892, 1.34625,108.279991149902
0.136833293333333, 269.036451360184, 0.000963135487154306, 1.3525,99.9381256103516
0.137499895, 269.041785835188, 0.00120220397897301, 1.35875,104.992874145508
0.138166431666667, 269.046575736046, 0.00118118403481507, 1.36625,99.8505401611328
0.138833411666667, 269.052023019212, 0.00133731119273034, 1.3725,99.8505401611328
0.139499895, 269.056609887041, 0.00160268086346603, 1.37875,104.078002929688
0.140166415, 269.062284697318, 0.00119241847055084, 1.385,104.662040710449
0.14083328, 269.067341322345, 0.000750147685344066, 1.3925,106.095352172852
0.141499876666667, 269.072536852227, 0.000646375397714993, 1.39875,112.185989379883
0.142166475, 269.077490184181, 0.000384628045008278, 1.405,112.185989379883
0.142833125, 269.082487024102, 0.000183669638952558, 1.41125,108.998664855957
0.143499751666667, 269.086883154413, 0.000549607758260617, 1.41875,127.444648742676
0.144166533333333, 269.091736204246, 0.000610114719038784, 1.425,112.8017578125
0.14483317, 269.096669823908, 0.000708764763938059, 1.43125,108.085060119629
0.145499808333333, 269.101118476834, 0.000808397259448993, 1.43875,108.085060119629
0.146166451666667, 269.106017413489, 0.000913996455362554, 1.445,106.709686279297
0.146833948333333, 269.111483773577, 0.000360536255056093, 1.45125,113.997970581055
0.14750027, 269.116193802525, 0.000396108468303682, 1.45875,104.596504211426
0.14816643, 269.120658450589, 0.00047453952876137, 1.465,100.710807800293
0.148833325, 269.125165046047, 0.00062116166409663, 1.4725,100.710807800293
0.149499805, 269.129740169416, 0.000892777021131452, 1.47875,99.8076705932617
0.15016668, 269.133863780543, 0.0011041314050115, 1.485,109.019004821777
0.150833708333333, 269.138547339422, 0.00115928663462617, 1.49125,103.113624572754
0.151499798333333, 269.14328439467, 0.00112324644494351, 1.4975,102.251319885254
0.152166606666667, 269.14906530442, 0.000853940971872276, 1.505,102.251319885254
0.15283329, 269.154251624686, 0.000523365076374096, 1.5125,105.971069335938
0.153499746666667, 269.159399822151, 0.00054902428756148, 1.5175,103.493789672852
0.154166781666667, 269.164004828637, 0.000586984380841629, 1.52375,107.674995422363
0.154833315, 269.168872159078, 0.000477473381446749, 1.53125,110.080177307129
0.155499815, 269.17338054031, 0.000753683007736405, 1.5375,110.080177307129
0.156166443333333, 269.178167725185, 0.000900545130997441, 1.545,103.391929626465
0.156833243333333, 269.183019349604, 0.0011119070144995, 1.55125,104.468902587891
0.15749981, 269.188262713764, 0.000945089893555613, 1.5575,107.608665466309
0.158166551666667, 269.19397464711, 0.000986064835375155, 1.56375,107.842956542969
0.158833118333333, 269.198207787588, 0.00101603183015008, 1.57125,107.842956542969
0.159499785, 269.203064963192, 0.00117955511653055, 1.57875,110.092918395996
