Time (min), Depth (µm), Load (N), Position (µm), Acoustic (aJ)
9.39E-06, 268.705335521512, 0.000984917252844463, 0,101.940498352051
0.000664566666666667, 268.705447011783, 0.000831116478103727, 0.00124999999999995,105.116836547852
0.00133092666666667, 268.704473621931, 0.00084032451558813, 0.00625000000000018,105.664009094238
0.00199782, 268.705039201207, 0.000409123174432772, 0.0149999999999998,105.664009094238
0.002664445, 268.705033827088, 0.000138748255091986, 0.0225,99.7710113525391
0.00333151, 268.706796176965, 0.000161151129826036, 0.03125,110.900001525879
0.00399809833333333, 268.70751147312, 0.000175079430215148, 0.0362499999999998,102.928291320801
0.004664255, 268.710127144183, 6.76098282944211E-05, 0.04375,108.07576751709
0.00533082333333333, 268.712215742858, 0.00015394099194433, 0.0512500000000001,108.07576751709
0.00599783, 268.715108257397, 0.000123641013866865, 0.0574999999999998,108.49227142334
0.00666437333333333, 268.720169905311, -4.49670171120704E-05, 0.0649999999999999,100.789031982422
0.00749778166666667, 268.723320877882, -0.000159264276106656, 0.07375,99.8871078491211
0.00816444833333333, 268.727135212668, 0.000385791846323072, 0.0800000000000002,102.38444519043
0.00883091833333333, 268.730663645378, 0.000229753183947594, 0.08625,105.220779418945
0.00949793, 268.734237502326, 0.000348239732501864, 0.0925000000000001,105.220779418945
0.01016505, 268.738237959749, 6.79848093952355E-05, 0.0999999999999998,104.982780456543
0.0108311333333333, 268.741063728674, 0.000307081799798854, 0.10625,102.260276794434
0.011497755, 268.744974294977, 0.000134396973590479, 0.1125,106.681015014648
0.0121646816666667, 268.747896072852, 0.000117138840473529, 0.12,122.398681640625
0.0128308916666667, 268.75141527735, 0.000185118425903972, 0.12625,122.398681640625
0.01349837, 268.754025867322, 0.0003191186952179, 0.1325,103.789642333984
0.0141644166666667, 268.758318449653, 3.93017501432935E-05, 0.14,102.983032226563
0.0148308233333333, 268.760851325206, 0.000124884451409706, 0.14625,103.791328430176
0.0154980883333333, 268.764429753351, -9.58529430620349E-06, 0.15125,108.942611694336
0.0161643966666667, 268.767676345521, 0.000235193410714644, 0.1575,108.942611694336
0.0168309483333333, 268.770435536537, 0.000257669781765709, 0.16625,99.4508361816406
0.0174980566666667, 268.773766395776, 0.000481620532930975, 0.17125,106.578552246094
0.0181645283333333, 268.777276046767, -4.20841619201646E-05, 0.1775,99.207145690918
0.0188310183333333, 268.78126203148, -0.000143191083459566, 0.185,99.9951248168945
0.0194979233333333, 268.784464051672, -0.000437992275915718, 0.1925,99.9951248168945
0.0201643066666667, 268.78885340137, -0.000485268401301067, 0.1975,103.780044555664
0.020831035, 268.791678299479, -0.000821038535921656, 0.20375,105.338302612305
0.0214976733333333, 268.795205995507, -0.000575133387440166, 0.21125,101.122421264648
0.022164325, 268.798363942023, -0.0005673007808886, 0.21875,102.972648620605
0.0228314033333333, 268.80169946795, -0.000780795557253412, 0.22375,102.972648620605
0.0234980683333333, 268.804963122332, -0.000813462416421792, 0.23,104.817733764648
0.0241650516666667, 268.808038130854, -0.000559645165395364, 0.2375,108.742942810059
0.0248308716666667, 268.812159192189, -0.000328350783076501, 0.245,101.972732543945
0.02549761, 268.815126356142, -0.000378106283904263, 0.25125,103.967208862305
0.0261644233333333, 268.81860367095, -0.000175689951094782, 0.25625,103.967208862305
0.0268308066666667, 268.821453552136, -0.000114665516291221, 0.26375,104.849685668945
0.027498345, 268.825179588359, -0.000509717173261227, 0.27,100.931991577148
0.028164405, 268.827487264231, -0.000710990563505393, 0.27625,127.829902648926
0.0288308366666667, 268.830200940356, -0.000505586380710762, 0.285,106.108261108398
0.02949782, 268.833483652525, -0.000498058258791802, 0.29,106.108261108398
0.0301642383333333, 268.836118793083, -0.000449964674479153, 0.29625,101.930999755859
0.0308314633333333, 268.839685284539, -0.000232679588488431, 0.30375,107.785903930664
0.0314977533333333, 268.842864866783, -0.00044862824162331, 0.31,102.109588623047
0.03216427, 268.846782501957, -0.000483613984344208, 0.31625,107.634353637695
0.0328312133333333, 268.84955653987, -0.000462189060512369, 0.3225,107.634353637695
0.0334976266666667, 268.853915463165, -0.000794663860645139, 0.33125,107.933753967285
0.034164805, 268.857107268435, -0.0006110445836454, 0.33625,99.940544128418
0.034830845, 268.86049695321, -0.000514251445476169, 0.3425,103.103080749512
0.0354982633333333, 268.864175537248, -0.000822391467945935, 0.34875,102.429832458496
0.03616453, 268.867877700499, -0.000867830185597228, 0.35625,102.429832458496
0.0368307416666667, 268.8715448766, -0.000676471297380178, 0.3625,109.994857788086
0.0374978933333333, 268.874450952331, -0.000879610593900808, 0.36875,103.431457519531
0.03816519, 268.87877820757, -0.000828599656113725, 0.375,99.7692413330078
0.03883123, 268.881611597555, -0.000549469676522081, 0.3825,101.360832214355
0.0394978, 268.88399123404, -0.000185764945033046, 0.38875,101.360832214355
0.04016457, 268.884737814917, 0.000185284917533988, 0.395,102.297164916992
0.0408307666666667, 268.887336197193, 0.000164471962922439, 0.4025,106.76114654541
0.0414980833333333, 268.888540497078, 8.69528566082028E-05, 0.41,104.603530883789
0.04216427, 268.890515068086, -0.000119346781161444, 0.415,103.742607116699
0.0428307583333333, 268.894072441439, -0.000263971016808991, 0.42125,103.742607116699
0.0434976766666667, 268.897848926382, -0.000898172161557985, 0.42875,100.309600830078
0.0441645133333333, 268.901506400126, -0.000915064313078032, 0.435,106.51676940918
0.04483115, 268.904295932797, -0.000856553752020667, 0.44125,122.575355529785
0.0454979, 268.908138346513, -0.000682884975212468, 0.44875,109.198059082031
0.0461644283333333, 268.910186581846, -0.000754491378530119, 0.455,109.198059082031
0.0468307633333333, 268.913679746062, -0.000683651436773819, 0.46125,106.599197387695
0.0474976966666667, 268.915936089774, -0.000730026107401523, 0.46875,109.689277648926
0.048164625, 268.919379409654, -0.000885878779044728, 0.475,99.9177627563477
0.0488308383333333, 268.921950935369, -0.000887908177059893, 0.48125,98.6462707519531
0.0494976566666667, 268.924828909923, -0.000841586003786303, 0.4875,98.6462707519531
0.0501644216666667, 268.928216315592, -0.000698698680874031, 0.495,101.349739074707
0.050830775, 268.93050792561, -0.000605535360377053, 0.50125,101.14476776123
0.05149806, 268.934265488282, -0.000627132775600284, 0.50875,103.849113464355
0.0521643633333333, 268.936834745365, -0.000856385760487502, 0.515,100.044502258301
0.0528308466666667, 268.94087072059, -0.00114949353799482, 0.52125,100.044502258301
0.0534978766666667, 268.942727880468, -0.00121786160395198, 0.5275,106.996292114258
0.0541643, 268.946186297362, -0.00104198643798526, 0.53375,105.293075561523
0.0548312066666667, 268.947827073478, -0.000957995156765758, 0.54125,106.876258850098
0.0554976983333333, 268.950302019661, -0.000571695560155293, 0.54875,103.605918884277
0.0561643183333333, 268.952030787295, -3.75753884625864E-05, 0.55375,103.605918884277
0.0568308583333333, 268.954117721799, 0.000164341469478102, 0.56,103.887252807617
0.0574976016666667, 268.956468781283, 7.49504594716861E-05, 0.5675,104.914543151855
0.0581645766666667, 268.957770586713, -3.39810518633064E-06, 0.57375,107.801803588867
0.0588309233333333, 268.960002265782, 9.77208157057891E-05, 0.58,103.220375061035
0.0594985616666667, 268.961997990034, -0.000227537846911424, 0.5875,103.220375061035
0.060166065, 268.964918123706, -0.000391128629890044, 0.59375,98.8982696533203
0.060831075, 268.966750108147, -0.000479349698606869, 0.6,100.781585693359
0.06149804, 268.969629149464, -0.00031950272755515, 0.60625,132.138366699219
0.0621647466666667, 268.972246527406, -0.000313687519666031, 0.615,105.484176635742
0.0628308933333333, 268.974342714132, -0.000355203934343927, 0.62125,105.484176635742
0.06349758, 268.976670069364, -0.000347998296277939, 0.62625,103.482795715332
0.0641644083333333, 268.977839464984, -0.000133507569939331, 0.6325,103.174621582031
0.0648314266666667, 268.980710380999, -0.00018256410586765, 0.64,106.634605407715
0.0654977316666667, 268.981919461694, -0.000537675768941379, 0.6475,106.676322937012
0.066164545, 268.984625719843, -0.000326910855436832, 0.65375,106.676322937012
0.0668309466666667, 268.986076729784, -0.000411811090972238, 0.66125,104.930992126465
0.0674976933333333, 268.989174497232, -0.000468334251855221, 0.66625,108.972328186035
0.0681642983333333, 268.990682903277, -0.000335377930138501, 0.6725,105.148139953613
0.0688310933333333, 268.992926865578, -5.75123870313451E-05, 0.67875,106.229614257813
0.0694982033333333, 268.995035613562, -6.01927523863029E-05, 0.6875,106.229614257813
0.0701645816666667, 268.9965391526, 4.69483660263478E-05, 0.69375,104.195503234863
0.0708308566666667, 268.998958518317, 0.000201848585545959, 0.7,104.400413513184
0.0714978683333333, 269.000463042711, -6.94242710383538E-06, 0.70625,108.615226745605
0.07216436, 269.003190169411, -0.000143315577206291, 0.7125,103.215827941895
0.0728310566666667, 269.004302831494, -0.000339219237194122, 0.71875,103.215827941895
0.0734977383333333, 269.006801911686, -0.000274668479523387, 0.72625,99.3740768432617
0.0741645, 269.008371969696, -0.000656628794048825, 0.73375,102.654815673828
0.07483077, 269.010502091649, -0.000502367542431272, 0.74,103.676040649414
0.075497975, 269.012484503469, -0.000904167360439257, 0.745,109.180999755859
0.0761643466666667, 269.014612800365, -0.00094563277762368, 0.7525,109.180999755859
0.0768307833333333, 269.016997182584, -0.00089989257510357, 0.76,100.190567016602
0.07749785, 269.018681817332, -0.000999840054845459, 0.76625,106.709548950195
0.078164295, 269.021438509486, -0.000720342593711255, 0.7725,128.584228515625
0.0788307666666667, 269.02277471887, -0.000632447008632445, 0.77875,102.709548950195
0.079497695, 269.025336512357, -0.000671125565871787, 0.78625,102.709548950195
0.080164975, 269.026159957983, -0.000603655954802214, 0.7925,105.51717376709
0.0808312133333333, 269.02832971586, -0.000383183528901963, 0.79875,105.172348022461
0.08149761, 269.030237102797, -0.000730159600652159, 0.80625,101.804550170898
0.08216438, 269.032695445405, -0.000534057950664353, 0.81125,105.169303894043
0.0828308433333333, 269.034704348697, -0.000404597953326742, 0.81875,105.169303894043
0.083497675, 269.037009032707, -0.000247168860816902, 0.82625,101.672554016113
0.0841646366666667, 269.039916488483, -0.000206187919193477, 0.8325,103.588226318359
0.08483085, 269.041821286776, -0.000295124451999435, 0.83875,103.975151062012
0.0854979966666667, 269.044836347168, -0.000314765965418244, 0.845,109.342414855957
0.0861644, 269.047145010144, -0.000508161751314983, 0.85125,109.342414855957
0.0868308016666667, 269.050448618272, -0.000596358821305119, 0.8575,100.388870239258
0.0874979733333333, 269.052449008241, -0.000670003622226863, 0.865,102.797119140625
0.0881644883333333, 269.055222872539, -0.000409387212711492, 0.87125,99.7749710083008
0.0888309333333333, 269.057784128559, -0.000485544387412521, 0.87875,108.880615234375
0.089497735, 269.059946216482, -0.000252786078642283, 0.885,108.880615234375
0.0901645183333333, 269.062789306782, -0.000168674803449261, 0.89,107.299217224121
0.0908310716666667, 269.064664531104, -0.00020770884279343, 0.89875,104.362869262695
0.0914977383333333, 269.06751960923, -0.000185785943974692, 0.905,103.488586425781
0.0921643, 269.06886792072, -4.03592486013689E-05, 0.91125,102.828231811523
0.0928310566666667, 269.071948945829, 8.86222727665862E-05, 0.91625,102.828231811523
0.093497915, 269.07408932157, -0.000247344351950829, 0.925,106.576179504395
0.0941643033333333, 269.07732570456, 8.82637907916994E-05, 0.93125,103.074966430664
0.094830865, 269.079726491539, 0.000152069085927745, 0.9375,124.378692626953
0.0954979066666667, 269.082705368889, 0.000174690949667179, 0.94375,105.78369140625
0.09616454, 269.085308053786, 0.000110086194717927, 0.95125,105.78369140625
0.096831065, 269.08760689368, 0.000108406279088721, 0.9575,103.316864013672
0.0974977816666667, 269.090582017933, 0.000130186685067895, 0.96375,102.840560913086
0.0981642366666667, 269.092312334247, -0.000193768542987838, 0.97,103.07088470459
0.098830895, 269.094863668646, -0.000185964434999934, 0.97625,109.41975402832
0.0994980716666667, 269.096204922252, -0.000155079486341436, 0.98375,109.41975402832
0.100164581666667, 269.098939713318, 6.08591849454241E-06, 0.99,108.884384155273
0.100830776666667, 269.100585964929, -0.000170689202262902, 0.99625,104.576416015625
0.101497598333333, 269.103173122285, 2.57289318377544E-05, 1.0025,104.361312866211
0.102164396666667, 269.105334174786, 0.000252925520006786, 1.01,104.088844299316
0.102831228333333, 269.107610623486, 5.11616544189925E-05, 1.01625,104.088844299316
0.103497848333333, 269.11006572134, -0.000276864369189822, 1.0225,102.802047729492
0.1041643, 269.111551657472, -0.000162556610766922, 1.03,104.780944824219
0.104830833333333, 269.114877988606, -0.000248785779557409, 1.03625,105.16813659668
0.10549786, 269.11705733823, -0.000565125890121302, 1.0425,108.485725402832
0.10616451, 269.121014728446, -0.000299480233231643, 1.04875,108.485725402832
0.10683085, 269.123023294489, -6.79518626846179E-05, 1.055,101.715530395508
0.107497606666667, 269.127108337305, -6.25686330873994E-05, 1.0625,110.030166625977
0.108164581666667, 269.129337027463, 3.52594531113661E-05, 1.06875,101.918525695801
0.108830871666667, 269.132602109898, 6.36170287465471E-05, 1.07625,105.55638885498
0.109498456666667, 269.13557229842, 0.000183153524531876, 1.08125,105.55638885498
0.110164551666667, 269.139277174856, 2.82443055083539E-05, 1.08875,112.802711486816
0.11083084, 269.143123449188, 0.000295641874398575, 1.095,125.849433898926
0.111497633333333, 269.146357627991, 0.000127824303728936, 1.10125,100.713905334473
0.112164368333333, 269.150762727036, 0.000348658211495389, 1.10875,104.70703125
0.112831021666667, 269.154077404662, 0.000139655709440973, 1.115,104.70703125
0.113497596666667, 269.158072356851, 0.000694597835270393, 1.12125,104.79899597168
0.114164296666667, 269.161176163354, 0.000436735287426993, 1.1275,105.918296813965
0.114831418333333, 269.165500143939, 0.000780839003456107, 1.135,101.570213317871
0.115498086666667, 269.169044885553, 0.000687135710110194, 1.14125,104.327644348145
0.116165611666667, 269.172761362935, 0.000593931891633074, 1.1475,104.327644348145
0.116830875, 269.176555301651, 0.000328908703477037, 1.155,100.82527923584
0.117497975, 269.180259475562, 0.000396291318888713, 1.16,98.5332183837891
0.118164511666667, 269.18475710324, 0.000162057084229366, 1.1675,107.83065032959
0.118830778333333, 269.18784338701, 3.45904866787344E-05, 1.17375,103.887008666992
0.119497783333333, 269.192788899833, 0.00021264354326155, 1.18,103.887008666992
0.12016439, 269.19698202946, -2.27166176819713E-06, 1.18625,101.362159729004
0.120830953333333, 269.201681356886, 1.26765874064163E-05, 1.1925,109.303703308105
0.12149765, 269.2051646419, 0.000137390823166972, 1.2,107.129356384277
0.122164503333333, 269.210102345806, 0.000130794154514977, 1.2075,100.049331665039
0.122830768333333, 269.214336660488, 0.000195439407465625, 1.21375,100.049331665039
0.123497708333333, 269.218314212566, 0.000404537904681849, 1.22,106.055656433105
0.12416442, 269.222720250181, 0.000506366289944234, 1.2275,106.282279968262
0.12483074, 269.226656760429, 0.000304414933721017, 1.23375,103.224937438965
0.12549764, 269.231467754945, 0.00043421541396193, 1.24,105.010276794434
0.126164308333333, 269.235090472569, 0.000141469118278307, 1.24625,105.010276794434
0.12683091, 269.239501332801, 0.000165134929572442, 1.25375,103.495315551758
0.127497828333333, 269.243370637108, -3.35460737863617E-06, 1.26,123.248481750488
0.128164333333333, 269.24838887967, -7.64819342749862E-05, 1.26625,107.1513671875
0.128830836666667, 269.252374926743, -0.000166078433903394, 1.2725,104.245323181152
0.129497678333333, 269.256942255184, -0.000151145183994067, 1.28,108.347526550293
0.130164361666667, 269.262046670053, -0.000426033376671913, 1.28625,108.347526550293
0.13083096, 269.266362526433, -0.000423619997903243, 1.2925,105.631889343262
0.13149766, 269.271588831859, -0.000282979562108371, 1.3,109.11930847168
0.132164566666667, 269.275728420817, -0.000246307904103162, 1.30625,106.905624389648
0.132830903333333, 269.280704984999, 0.000114684963618447, 1.3125,106.905624389648
0.133497986666667, 269.28471297815, 6.90347565837864E-05, 1.32,106.668296813965
0.134164396666667, 269.289554094331, 0.000351829052108958, 1.32625,106.611137390137
0.13483075, 269.293625617778, 0.000409567151949866, 1.3325,100.917175292969
0.135497843333333, 269.298257792844, 0.000568206683623168, 1.33875,100.303840637207
0.136164288333333, 269.303014168331, 0.000569564115441911, 1.345,100.303840637207
0.136830965, 269.307209102676, 0.000768098643258138, 1.3525,104.788238525391
0.137497795, 269.312514375626, 0.000766877704623853, 1.35875,109.697052001953
0.138164528333333, 269.316032291929, 0.000536999251196715, 1.365,102.548347473145
0.138830745, 269.321487749506, 0.000468412196276682, 1.3725,99.3941421508789
0.139497665, 269.32475987553, 0.000153224027867032, 1.37875,99.3941421508789
0.140165875, 269.330398802259, 8.47314681631501E-05, 1.385,110.136985778809
0.140830775, 269.334021664319, -3.71254110991008E-05, 1.3925,101.474517822266
0.141497608333333, 269.339627283804, 0.000117792807513349, 1.39875,104.277488708496
0.142164373333333, 269.343796981604, 0.000353303478031155, 1.405,102.081611633301
0.142830831666667, 269.348851978989, 0.00058299594083229, 1.41125,102.081611633301
0.14349785, 269.353907277136, 0.000509832615750262, 1.41875,104.77562713623
0.144164546666667, 269.358310646307, 0.000445668838618075, 1.425,128.958786010742
0.144830901666667, 269.363093346572, 0.000538310185337703, 1.43125,104.241195678711
0.145497911666667, 269.367225089522, 0.000265617882411309, 1.43875,102.917587280273
0.146164411666667, 269.372791823232, 0.000152762051044558, 1.445,102.917587280273
0.146831105, 269.376221192682, 0.00057040107347147, 1.4525,107.759910583496
0.147497828333333, 269.381397626067, 0.00063357790017628, 1.4575,101.500869750977
0.148164843333333, 269.385518227258, 0.00066020456273129, 1.465,103.276596069336
0.148831133333333, 269.390781175982, 0.00044497137366429, 1.47125,103.9736328125
0.149497663333333, 269.395217198022, 0.000238979220439819, 1.4775,103.9736328125
0.15016456, 269.40005925244, -0.000220464202192923, 1.48625,103.93830871582
0.15083088, 269.405531307313, -0.000306400885639759, 1.4925,100.258262634277
0.151497885, 269.410052530015, -0.000518841214979048, 1.4975,109.076751708984
0.152164513333333, 269.415453094163, -0.00024935125122747, 1.50375,99.1632766723633
0.152830965, 269.41943333177, -0.000169399267148576, 1.51125,99.1632766723633
0.153497623333333, 269.425007839708, 0.000220326157351536, 1.5175,111.542083740234
0.154164555, 269.428754547118, 0.000302111049370023, 1.525,102.768623352051
0.154830841666667, 269.434285420676, 0.000311208092427331, 1.53125,100.543884277344
0.155497673333333, 269.438303027794, 0.000428737689063544, 1.5375,108.618629455566
0.156164653333333, 269.444074163058, 0.000608760146749156, 1.54375,108.618629455566
0.156830796666667, 269.448634377085, 0.000216156366830348, 1.55,104.728073120117
0.157497761666667, 269.453378061199, 0.00028733229171674, 1.55875,103.490013122559
0.158165135, 269.458505332097, 0.000466351299785286, 1.565,107.708999633789
0.158830743333333, 269.462751133965, 0.000265226402099551, 1.57,106.600173950195
0.159497793333333, 269.467640127562, 0.000166931839326356, 1.57625,106.600173950195
