Time (min), Depth (µm), Load (N), Position (µm), Acoustic (aJ)
7.86333333333333E-06, 268.753582138082, 0.000544820380715528, 0,101.054649353027
0.000664931666666667, 268.753095727434, 0.000894590812096584, 0,101.397354125977
0.00133149, 268.752025418436, 0.000933194373073255, 0.00500000000000023,103.150573730469
0.00199823333333333, 268.751147909494, 0.000854404830598173, 0.0137499999999999,108.998199462891
0.00266489, 268.750883293199, 0.000718636150093992, 0.0237499999999999,108.998199462891
0.00333189833333333, 268.751538133529, 0.000705570306385533, 0.03125,106.152267456055
0.004000165, 268.75287761588, 0.000528765187118769, 0.0375000000000002,108.369148254395
0.00466498166666667, 268.75563290135, 0.000501469558152382, 0.0449999999999999,107.92822265625
0.005331715, 268.758502346341, 0.000433828955679583, 0.0512500000000001,104.711585998535
0.00599824166666667, 268.76127356396, 0.000211546120727042, 0.0562499999999999,104.711585998535
0.006665035, 268.764288033126, 3.89827884165853E-05, 0.0649999999999999,102.151489257813
0.007331905, 268.766569646296, -0.000105147972059782, 0.0725000000000001,94.7056198120117
0.00799816166666667, 268.770334615381, -0.00044591585564219, 0.0787499999999998,108.117774963379
0.00866511666666667, 268.772729944992, -0.000290130680554624, 0.085,101.662307739258
0.00933177833333333, 268.776201915099, -0.000206650873684152, 0.0912500000000002,101.662307739258
0.00999824333333333, 268.780046002839, -0.000110819187184934, 0.0999999999999998,105.839622497559
0.0108315883333333, 268.782288307985, 0.000181465131676215, 0.10625,101.552909851074
0.0114983133333333, 268.785898535327, 0.000290146672727315, 0.11375,111.935852050781
0.01216488, 268.788807587407, -8.06422029297901E-05, 0.12,109.872833251953
0.012831885, 268.79221123187, -1.89128035291733E-05, 0.12625,109.389381408691
0.0134983716666667, 268.794674843333, -0.000408401239952316, 0.1325,109.389381408691
0.0141651033333333, 268.798057236614, -0.00022191110721966, 0.14,103.54069519043
0.0148315416666667, 268.800483587043, -0.000493868447124695, 0.14625,126.916580200195
0.015498245, 268.803156213087, -0.000134000522896817, 0.15125,101.24634552002
0.01616511, 268.806573672508, -0.000363473996692568, 0.15875,98.3912811279297
0.0168314683333333, 268.809320681091, -8.59669356028063E-05, 0.165,98.3912811279297
0.0174984016666667, 268.81291334275, -0.000224729465662225, 0.1725,102.229598999023
0.018164935, 268.815646647984, -0.000261555615944733, 0.1775,107.221809387207
0.018831825, 268.819630477075, -5.21211355984164E-05, 0.185,107.24291229248
0.0194981616666667, 268.822763531915, -0.000144279506532671, 0.1925,104.096031188965
0.020164915, 268.827674732498, -5.15151659694674E-05, 0.1975,104.096031188965
0.0208316783333333, 268.831356733131, -0.000349299708573797, 0.20375,106.510581970215
0.02149839, 268.83626741942, -0.000252191586194866, 0.2125,102.96460723877
0.0221649166666667, 268.839610603076, -0.000540043627700495, 0.2175,101.255493164063
0.0228318883333333, 268.843519666871, -0.000394322947122879, 0.22375,103.118629455566
0.0234983283333333, 268.846569443485, -0.000416230846718839, 0.2325,103.118629455566
0.0241650066666667, 268.849982382955, -0.000276461867172293, 0.23875,110.481575012207
0.0248317966666667, 268.85342643868, -0.000350339156397796, 0.24375,106.326789855957
0.02549817, 268.856837090872, -0.000332907032028814, 0.25,111.054351806641
0.0261653516666667, 268.860875266249, -0.000387774276073043, 0.2575,103.29182434082
0.0268318133333333, 268.864706086627, -0.000390318148307304, 0.26375,103.29182434082
0.0274982616666667, 268.869129644075, -0.000497453267022342, 0.27,107.597061157227
0.028164975, 268.872882547787, -0.000511257073643474, 0.2775,106.946434020996
0.02883148, 268.877156732338, -0.000774927329753977, 0.285,101.821189880371
0.0294982266666667, 268.881284096645, -0.000778941128137226, 0.29,103.177276611328
0.0301648983333333, 268.884414187577, -0.000815678782816179, 0.29625,103.177276611328
0.0308315433333333, 268.888298060925, -0.000675624817569252, 0.30375,108.934753417969
0.031498335, 268.891238270892, -0.000617108256835528, 0.31,125.396545410156
0.032166175, 268.895653958025, -0.000551788037797143, 0.31625,106.085899353027
0.032831905, 268.898533901129, -0.000663326935325293, 0.32375,106.974914550781
0.03349822, 268.903479439232, -0.000734552357759501, 0.33,106.974914550781
0.0341648933333333, 268.906827093576, -0.000875920256996223, 0.33625,106.418632507324
0.03483187, 268.910990509479, -0.00101356534324769, 0.3425,101.833320617676
0.0354982983333333, 268.913977731262, -0.00091350536913305, 0.35,101.738655090332
0.036164825, 268.917575443647, -0.00100365984076699, 0.35625,105.223617553711
0.0368315766666667, 268.921319717095, -0.000900282033362248, 0.3625,105.223617553711
0.0374982633333333, 268.924590640053, -0.000957967635891551, 0.36875,108.173309326172
0.038165095, 268.928617076001, -0.000841327494575249, 0.37625,101.326316833496
0.0388316983333333, 268.931794812047, -0.000738111678984801, 0.3825,109.394470214844
0.0394982566666667, 268.934634423604, -0.000446301336341352, 0.38875,104.599060058594
0.0401652666666667, 268.936101768241, -0.000561116069297569, 0.395,104.599060058594
0.04083305, 268.938732546453, -0.000223021051469357, 0.4025,109.185485839844
0.041498615, 268.941172533564, -0.000186506885547744, 0.40875,101.182571411133
0.042164925, 268.943997641207, -0.000310439660545423, 0.415,104.444808959961
0.0428317083333333, 268.947686324049, -8.95652548200825E-05, 0.4225,109.175804138184
0.0434983033333333, 268.951498475148, 0.000112548093217432, 0.43,109.175804138184
0.0441649033333333, 268.95543439047, -3.4605797763195E-06, 0.435,110.304901123047
0.0448316116666667, 268.9583116459, -0.000175314447716511, 0.44125,102.956314086914
0.04549825, 268.962093083586, -7.13606691921357E-05, 0.44875,102.889419555664
0.0461651183333333, 268.964953416908, -0.00023168311634345, 0.455,104.334747314453
0.0468316316666667, 268.968159355207, -0.000196721372434257, 0.46125,104.334747314453
0.0474981716666667, 268.970446032051, -0.000136946374828643, 0.46875,124.889518737793
0.04816488, 268.973287083748, 0.000132312600586087, 0.475,105.28832244873
0.0488316666666667, 268.975675585996, 0.00017842628434637, 0.48125,109.0595703125
0.049498255, 268.978401037307, 6.3673048269432E-05, 0.48875,103.399536132813
0.05016503, 268.98110666915, 0.000197431829711927, 0.49625,103.399536132813
0.0508315583333333, 268.983352327174, 0.000334872926138281, 0.50125,104.239608764648
0.0514981916666667, 268.986599006887, 0.000320221662038021, 0.5075,106.623077392578
0.0521651066666667, 268.989125314716, 0.000325216411108525, 0.515,104.398918151855
0.052831755, 268.992272645127, 0.000639404129834932, 0.52125,99.6633987426758
0.05349819, 268.995198895407, 0.000458433719777682, 0.52875,99.6633987426758
0.0541648766666667, 268.9988378212, 0.000446156836411607, 0.535,109.668144226074
0.0548315066666667, 269.001575438914, 0.000433683462948705, 0.5425,101.521369934082
0.05549978, 269.003993261407, 0.000609033655331768, 0.5475,102.222496032715
0.056164885, 269.006347820858, 0.00056275797967217, 0.55375,102.30615234375
0.0568316966666667, 269.008078881174, 0.000374862417497358, 0.56125,102.30615234375
0.0574982966666667, 269.010323177665, 0.000244911944773611, 0.5675,105.401557922363
0.058165215, 269.011960270647, 0.000190326686538449, 0.575,102.717903137207
0.05883239, 269.01479047317, 2.85118143295899E-05, 0.58,103.943473815918
0.05949824, 269.016523943945, -4.79558447654218E-05, 0.5875,100.816711425781
0.0601650783333333, 269.019580858218, 0.000159914214109485, 0.59375,100.816711425781
0.0608315033333333, 269.022138243857, 0.000121595638790687, 0.6,105.020851135254
0.0614982133333333, 269.024369762679, 0.000426389329342924, 0.6075,107.022079467773
0.06216498, 269.026279050868, 0.000794197854679403, 0.615,103.285308837891
0.062832255, 269.028122452886, 0.000716236270623698, 0.62,109.022613525391
0.0634982666666667, 269.030024299164, 0.00105184441336623, 0.62625,109.022613525391
0.0641648366666667, 269.031234220493, 0.00109836907647676, 0.635,123.824699401855
0.06483169, 269.033813441658, 0.000746843733182577, 0.64125,104.780555725098
0.0654984266666667, 269.035246506701, 0.000371745573971019, 0.6475,104.511207580566
0.0661650333333333, 269.038057637558, 0.000215171438541069, 0.65375,106.918922424316
0.0668315916666667, 269.038984910742, -0.000208653273166329, 0.66,106.918922424316
0.0674982316666667, 269.041052656897, -0.000286415367233894, 0.6675,104.016784667969
0.0681648566666667, 269.041985687203, -0.00017618740388924, 0.67375,110.080093383789
0.0688316566666667, 269.043602137326, -0.000168620283978304, 0.68,105.111373901367
0.069498305, 269.044997810494, -0.000219682219152591, 0.6875,106.478492736816
0.0701648566666667, 269.046914497381, -0.000499910143577452, 0.69375,106.478492736816
0.0708315233333333, 269.049033964141, -0.000408554232305211, 0.7,109.829002380371
0.0714982633333333, 269.050659510569, -0.000574754884191835, 0.70625,104.591102600098
0.0721651866666667, 269.05300984095, -0.000714453367270174, 0.71375,108.223213195801
0.0728315666666667, 269.05410806972, -0.000467298781590738, 0.72,105.533409118652
0.073498175, 269.056311776351, 0.000137719828909995, 0.7275,105.533409118652
0.0741649, 269.057692064329, 0.000245601910126634, 0.7325,107.471870422363
0.0748317683333333, 269.059865633063, 0.000411852059561074, 0.73875,107.102508544922
0.075498375, 269.061940275165, 0.000648855155157679, 0.74625,108.500099182129
0.076164865, 269.064257124957, 0.000532529998029824, 0.75375,107.348373413086
0.07683163, 269.066929338156, 0.000577385245045741, 0.76,107.348373413086
0.077498255, 269.068996606715, 0.00036640134253581, 0.76625,105.78116607666
0.07816489, 269.071647942613, 0.0002086002687102, 0.7725,105.079772949219
0.0788321666666667, 269.073465007713, 0.000192440080383959, 0.77875,108.425148010254
0.0794981866666667, 269.076282867937, 0.000534002924027618, 0.785,108.971061706543
0.0801651383333333, 269.078137201131, 0.000318421752414046, 0.7925,108.971061706543
0.0808317683333333, 269.080885585604, 0.000540668589202163, 0.8,129.266311645508
0.081498175, 269.083745869197, 0.000424902903961739, 0.80625,104.379669189453
0.0821648916666667, 269.087154313131, 0.000480023635357642, 0.8125,106.103660583496
0.08283162, 269.090133810451, 0.000195534424959232, 0.81875,100.121650695801
0.083498245, 269.092904751246, 0.000125486443415377, 0.825,100.121650695801
0.08416485, 269.095954716158, -1.9349281658046E-05, 0.8325,105.649719238281
0.0848316616666667, 269.098083317471, 1.36580603923818E-05, 0.83875,104.74730682373
0.08549826, 269.100874478379, -2.92952821188847E-05, 0.845,102.457939147949
0.0861649083333333, 269.10346584429, -6.59144427912344E-05, 0.85125,105.717239379883
0.0868318583333333, 269.106067979823, 0.000148531285815276, 0.85875,105.717239379883
0.0874983016666667, 269.108462818665, 0.000188172794670289, 0.865,106.040748596191
0.0881649166666667, 269.111195053185, 0.000401790564878676, 0.8725,100.536178588867
0.088831585, 269.113876952249, 0.000160331193136099, 0.8775,102.392539978027
0.0894982233333333, 269.11595719351, 9.16200397534392E-07, 0.88375,102.234115600586
0.0901651066666667, 269.118996046106, -0.000292940039514532, 0.89125,102.234115600586
0.09083163, 269.121544212765, -0.000385210904842793, 0.89875,106.459846496582
0.0914983266666667, 269.124911762027, -0.000571686038373926, 0.905,103.212066650391
0.0921649983333333, 269.126889879982, -0.000327792288899779, 0.91125,100.938529968262
0.0928317583333333, 269.130243706587, -0.000470528119383559, 0.9175,101.479949951172
0.0934983166666667, 269.133019353307, -0.000524399413517754, 0.925,101.479949951172
0.0941649183333333, 269.135799602579, -0.000629181150461506, 0.93,104.316139221191
0.094831695, 269.137982001219, -0.000597561238696633, 0.9375,104.402099609375
0.0954982483333333, 269.140454671639, -0.000760904534148715, 0.945,101.598823547363
0.0961649566666667, 269.143266839802, -0.000311698097332298, 0.95125,104.681365966797
0.0968315433333333, 269.145136243734, 1.85463148515088E-05, 0.95625,104.681365966797
0.0974982066666667, 269.147972246525, 5.87427958632514E-05, 0.96375,127.21508026123
0.0981649383333333, 269.149746991855, 4.81773265388508E-05, 0.97125,108.398223876953
0.0988317733333333, 269.152835896276, 0.000111420149917404, 0.9775,106.539474487305
0.09949825, 269.154742220741, -0.000253393025918179, 0.98375,103.464195251465
0.100164843333333, 269.157167260043, -0.000431378585924102, 0.99,103.464195251465
0.100831693333333, 269.159208574506, -0.000340913629896175, 0.9975,106.552070617676
0.10149824, 269.162098195766, -0.000533976432532883, 1.00375,99.9884796142578
0.102164831666667, 269.164840785881, -0.000607570235982408, 1.00875,103.064178466797
0.102831651666667, 269.166783919777, -0.000249619215481959, 1.01625,106.396461486816
0.103498265, 269.16950799292, -0.000481615562549072, 1.0225,106.396461486816
0.104164838333333, 269.171570471052, -0.000546970279848732, 1.03,111.124931335449
0.104831731666667, 269.174527249957, -0.000335963878494006, 1.03625,102.057205200195
0.10549825, 269.176035871272, -7.13966674203221E-05, 1.0425,107.885688781738
0.106164836666667, 269.179127114277, -0.000199482733792008, 1.04875,100.994567871094
0.106831628333333, 269.180863790879, 0.000122018617536168, 1.05625,100.994567871094
0.107498368333333, 269.183062436524, 0.000156450888045994, 1.0625,107.411613464355
0.108165145, 269.184774255752, 0.000193407531751585, 1.07,104.308471679688
0.10883152, 269.187309759432, -0.000256082390840811, 1.075,103.806755065918
0.109498218333333, 269.189395910281, -0.00015098116997791, 1.08125,104.717155456543
0.110164958333333, 269.192124957231, -0.00053410392610716, 1.08875,104.717155456543
0.11083154, 269.195402482597, -0.000438294738516499, 1.095,107.447288513184
0.111498195, 269.197801789044, -0.000569002673170161, 1.10125,104.916389465332
0.11216492, 269.200788119901, -0.000181570633486458, 1.10875,100.637702941895
0.112831586666667, 269.204218871069, -0.000409965661423726, 1.115,106.387046813965
0.113498338333333, 269.207963092378, -0.000118419305496504, 1.12125,106.387046813965
0.114164851666667, 269.211695447858, -0.000168699779929169, 1.12875,123.121574401855
0.114831555, 269.215673763508, -0.000243031546333876, 1.135,101.306259155273
0.115498225, 269.220049437948, -0.000605459841964451, 1.14125,105.679374694824
0.116164908333333, 269.223199611445, -0.000546437806600559, 1.14875,103.623229980469
0.116831641666667, 269.227192686792, -0.000644360388057984, 1.155,103.623229980469
0.117498261666667, 269.230221275325, -0.000801078516273154, 1.16125,107.700248718262
0.118164913333333, 269.234034317062, -0.000439377684169446, 1.1675,103.911331176758
0.118831556666667, 269.236873790503, -0.000251342628940114, 1.17375,102.714111328125
0.119498273333333, 269.240497954265, -0.000292839544579514, 1.18,106.234153747559
0.120165228333333, 269.244032804133, 0.000128472793348599, 1.18625,106.234153747559
0.120831645, 269.248398442345, 7.35245533440867E-05, 1.1925,102.269317626953
0.12149827, 269.25212475654, -5.21676332549174E-05, 1.20125,107.636032104492
0.122164895, 269.256257963998, -7.6058433252049E-05, 1.2075,103.863037109375
0.12283156, 269.260633746113, -6.53414715841735E-05, 1.21375,108.055252075195
0.123498243333333, 269.264148681161, -0.000449713664975132, 1.22,108.055252075195
0.12416511, 269.267461363162, -0.000320112674701107, 1.2275,100.750144958496
0.124831946666667, 269.271864584395, -0.000604948367679178, 1.23375,103.631935119629
0.12549822, 269.275742280019, -0.000589476644802811, 1.24,96.7699661254883
0.126164908333333, 269.280311787759, -0.000624948363072873, 1.24625,97.5360107421875
0.126831713333333, 269.284977748387, -0.000539508154646024, 1.25375,97.5360107421875
0.127498311666667, 269.290090995468, -0.000309464709492019, 1.26,110.475769042969
0.128164875, 269.293933950538, -6.12826754688267E-05, 1.26625,104.455459594727
0.128831563333333, 269.299005383892, 2.96082591746418E-05, 1.27375,103.351860046387
0.129498266666667, 269.303636677698, -4.43185275774234E-05, 1.27875,102.372406005859
0.130164856666667, 269.308840362049, -0.00022187810894655, 1.28625,102.372406005859
0.130831885, 269.313509138456, -0.000582274006649391, 1.29375,126.074241638184
0.131498288333333, 269.318944672659, -0.00075094353452886, 1.3,106.982276916504
0.132164931666667, 269.323757974548, -0.00103099896762609, 1.30625,109.325210571289
0.132831675, 269.327872220454, -0.000555713340725617, 1.31375,109.227500915527
0.133498201666667, 269.332267064297, -0.00045669731418693, 1.32,109.227500915527
0.134164973333333, 269.336493460967, -0.000531242069835645, 1.32625,101.672370910645
0.134831565, 269.340910118638, -0.000114927480869351, 1.3325,99.7097854614258
0.135498226666667, 269.345338206467, -0.000110430706721982, 1.33875,108.014442443848
0.136165093333333, 269.350712092542, -0.000476949296859119, 1.34625,108.778694152832
0.13683151, 269.354752152282, -0.000525141876182383, 1.3525,108.778694152832
0.137498396666667, 269.359623804853, -0.000452299534986414, 1.35875,104.308959960938
0.13816496, 269.364141954202, -0.000808309652990236, 1.365,106.713874816895
0.138831531666667, 269.368424289463, -0.000670922553863653, 1.37125,105.760925292969
0.139498358333333, 269.372554304134, -0.000596878773008134, 1.37875,102.774620056152
0.140164831666667, 269.377329517805, -0.000577534244663679, 1.38625,102.774620056152
0.140831578333333, 269.382147508768, -0.000597543239625048, 1.3925,106.647071838379
0.14149842, 269.386654709339, -0.000564430902823884, 1.39875,107.13362121582
0.142164921666667, 269.391532583677, -0.000572136015801173, 1.405,110.044502258301
0.142831566666667, 269.395725058161, -0.000610973565027261, 1.41125,102.31649017334
0.143498225, 269.400411167411, -0.000608392194661664, 1.41875,102.31649017334
0.14416494, 269.404632545467, -0.000636050805397402, 1.425,100.849258422852
0.144831668333333, 269.409348576361, -0.000547750240623442, 1.43125,107.400703430176
0.145498241666667, 269.413512093599, -0.00029250206148251, 1.43875,107.264579772949
0.146164896666667, 269.418532212714, -0.000336983827237, 1.445,122.673545837402
0.146831545, 269.423438645416, -0.000141359153273192, 1.45125,122.673545837402
0.147498215, 269.428160426872, -0.000226770863157633, 1.45875,104.896545410156
0.148164941666667, 269.433088276496, -0.000179122756499022, 1.465,106.970924377441
0.148831773333333, 269.438202145949, -0.00052090908890002, 1.47125,105.117599487305
0.149498255, 269.443139953616, -0.000307666299856209, 1.4775,107.905670166016
0.150165153333333, 269.447290513228, -0.000513386966721182, 1.48625,107.905670166016
0.150831623333333, 269.452039222513, -0.000166857872506919, 1.4925,102.080017089844
0.151498361666667, 269.456679756997, -0.000114315511670314, 1.4975,101.797355651855
0.152164936666667, 269.461473798966, -5.29535938122573E-05, 1.505,102.058334350586
0.152831508333333, 269.466280179531, -6.93702692114552E-05, 1.51125,105.406440734863
0.153498285, 269.471108714588, 7.60144282998308E-05, 1.5175,105.406440734863
0.154164891666667, 269.476943410344, -0.000352281558861335, 1.525,106.999923706055
0.154831703333333, 269.481658003104, -0.000919454070357821, 1.5325,106.648284912109
0.15549825, 269.486565390947, -0.0006653218351642, 1.5375,101.309783935547
0.156165273333333, 269.490956134405, -0.000762804938707708, 1.54375,98.0370483398438
0.156831755, 269.496561876814, -0.000673665916086056, 1.55125,98.0370483398438
0.157498225, 269.500477548005, -0.000561884030740816, 1.5575,101.000221252441
0.158164893333333, 269.505368893038, -7.22696235930509E-05, 1.565,105.613800048828
0.158831591666667, 269.509756106548, 0.000198118795067365, 1.57125,103.948204040527
0.159498235, 269.514539384204, 6.54489589541761E-05, 1.57625,112.426162719727
