Time (min), Depth (µm), Load (N), Position (µm), Acoustic (aJ)
8.655E-06, 268.95336918616, 0.000317576059834418, 0,102.711288452148
0.000665748333333333, 268.953089449715, 0.000139241017442536, 0.00124999999999995,102.711288452148
0.00133069166666667, 268.952931744328, -0.000101511889799836, 0.00500000000000023,104.696022033691
0.00199949833333333, 268.951879931778, -0.000307679534200742, 0.0137499999999999,109.505706787109
0.00266398833333333, 268.95173037516, -0.000502929227021228, 0.0225,107.923866271973
0.003330805, 268.950768090536, -0.000586080550426132, 0.03125,102.201591491699
0.00399750166666667, 268.951519483707, -0.000766402992992396, 0.0375000000000002,102.201591491699
0.00466446, 268.952552138717, -0.000658328921409632, 0.04375,105.116645812988
0.005330655, 268.954788510862, -0.00088022027602916, 0.0500000000000001,106.282875061035
0.005997335, 268.957545545953, -0.000901690197635606, 0.0562499999999999,110.907676696777
0.006663995, 268.960365952248, -0.00105096869953537, 0.06375,109.165000915527
0.00733064833333333, 268.963735666802, -0.000842824154452161, 0.07375,109.165000915527
0.00816414166666667, 268.968234081425, -0.000744580589151185, 0.0800000000000002,106.603225708008
0.00883085166666667, 268.971877396108, -0.000506929526127356, 0.08625,106.64045715332
0.00949734166666667, 268.974881893966, -0.000119148003993932, 0.0937500000000001,106.570220947266
0.0101639916666667, 268.977832123406, 0.000173418300718792, 0.0999999999999998,105.192245483398
0.0108313166666667, 268.981240746271, 0.00018340929886922, 0.10625,105.192245483398
0.0114973083333333, 268.984295726603, 0.00011255285792323, 0.1125,104.113899230957
0.012164065, 268.987668409346, 0.000348907986050104, 0.12,103.791534423828
0.0128309016666667, 268.99060891556, 4.76001204486602E-05, 0.12625,129.867584228516
0.0134972783333333, 268.994304559966, -0.000380196391758696, 0.1325,103.929351806641
0.0141640283333333, 268.997335865156, -0.000313350749368403, 0.14,103.929351806641
0.0149973483333333, 269.000052090809, -0.000287942025620125, 0.1475,107.266883850098
0.0156640566666667, 269.002639594109, -0.000297574541816921, 0.15375,107.266883850098
0.016331055, 269.005546341013, -0.000486448054893944, 0.16,110.377243041992
0.0169978233333333, 269.008648049979, -0.000261258365959045, 0.16625,107.406051635742
0.0176640083333333, 269.012536714304, -0.000431660306864342, 0.17375,107.003280639648
0.0184973833333333, 269.016118189002, -0.000357283542727538, 0.18125,104.324417114258
0.0191639966666667, 269.019130622791, -0.000544712628370429, 0.18875,105.72233581543
0.0198306816666667, 269.021904169209, -0.000328792473820467, 0.19375,105.72233581543
0.0204973166666667, 269.02493432147, -0.000329555935490504, 0.20125,107.706504821777
0.0211640766666667, 269.027126926358, -0.000389632417901173, 0.20875,111.248016357422
0.02183127, 269.029939715938, -0.000125741672839629, 0.21375,108.015396118164
0.0224973316666667, 269.032013391914, -0.000381505826060297, 0.22125,112.018341064453
0.0231645183333333, 269.035521975336, -0.000687305966014645, 0.22875,112.018341064453
0.023830685, 269.038177890987, -0.000798591376233629, 0.23375,107.255577087402
0.0244974433333333, 269.041174512714, -0.000630466320976305, 0.24,103.651794433594
0.0251643466666667, 269.044721722743, -0.00103992625422948, 0.2475,107.748260498047
0.0258315466666667, 269.048201400014, -0.000953611589748008, 0.255,107.824905395508
0.026498395, 269.052600016994, -0.00105636092874277, 0.26,107.824905395508
0.0271654466666667, 269.055899745921, -0.000930776736743311, 0.26625,101.746055603027
0.0278316816666667, 269.059934682138, -0.0010041515511662, 0.27375,105.197624206543
0.02849751, 269.063156069556, -0.00101226314374179, 0.28,102.565963745117
0.0291642416666667, 269.067174781075, -0.00104858381941538, 0.28625,102.565963745117
0.0298307866666667, 269.069588476498, -0.000733343153609108, 0.29375,123.562126159668
0.0304989866666667, 269.072888400676, -0.000840505270963405, 0.3,104.530479431152
0.0311641516666667, 269.076239914432, -0.000916942931570351, 0.3075,111.688812255859
0.03199743, 269.078846530921, -0.000945026020933466, 0.315,106.833740234375
0.0326641916666667, 269.081801392399, -0.0007227776842422, 0.32125,103.53874206543
0.0333309366666667, 269.083894416028, -0.000654993089026688, 0.3275,103.53874206543
0.033997475, 269.087710142738, -0.000578480432178325, 0.335,109.064300537109
0.0346643966666667, 269.090008283842, -0.000842351678222626, 0.34125,108.369689941406
0.0353313216666667, 269.0939890327, -0.000745356050237702, 0.3475,106.880195617676
0.0359974883333333, 269.096737887355, -0.000936525947979941, 0.355,99.6414337158203
0.0366641016666667, 269.100728036452, -0.000891766696168341, 0.36125,105.767936706543
0.037330815, 269.103184357536, -0.000979840772293647, 0.3675,105.767936706543
0.037997435, 269.107307294772, -0.000687710945646033, 0.375,103.085304260254
0.0388309283333333, 269.110904170061, -0.000886551458061779, 0.3825,100.518165588379
0.03949747, 269.111514709601, -0.000905703996082617, 0.38875,81.8827209472656
0.040164115, 269.113753276369, -0.00102974626558299, 0.395,117.865760803223
0.0408310116666667, 269.115223127264, -0.000776765972522357, 0.4025,104.999801635742
0.0414981733333333, 269.117045750755, -0.000857109436976772, 0.40875,104.999801635742
0.042165165, 269.119119899625, -0.000822285686176442, 0.415,105.96565246582
0.042830775, 269.121829474786, -0.00092019326836858, 0.42125,85.6867141723633
0.0434973383333333, 269.124784804584, -0.000653922142896492, 0.42875,104.583183288574
0.0441642316666667, 269.127408126767, -0.00093890032873538, 0.435,102.779975891113
0.0448310516666667, 269.130471758017, -0.00120103766182945, 0.4425,102.779975891113
0.0456646433333333, 269.132504689111, -0.000871700704079648, 0.45,101.917984008789
0.046331275, 269.135043902307, -0.000684577603078783, 0.4575,123.542678833008
0.04699788, 269.137659350522, -0.000816404481571071, 0.4625,105.702941894531
0.0476641716666667, 269.14007469405, -0.000560026859141945, 0.47,105.334434509277
0.0483309666666667, 269.142533190813, -0.000354012207030172, 0.47625,105.334434509277
0.0489974916666667, 269.144045921356, -0.000250326915037742, 0.4825,107.567520141602
0.0496642333333333, 269.146523100485, -0.000208101036010834, 0.49,109.054153442383
0.0503311716666667, 269.147272580331, 3.92991564606934E-07, 0.49625,102.845176696777
0.050997365, 269.149219357282, -7.8333554085539E-05, 0.5025,106.734497070313
0.0516642383333333, 269.15048341217, 4.28363596724952E-05, 0.51,106.734497070313
0.052330915, 269.153118052118, -0.00041616758504633, 0.51625,107.788482666016
0.0529973683333333, 269.155198547003, -0.000599780862327202, 0.52375,102.885208129883
0.0536640616666667, 269.157518924644, -0.000680454310214097, 0.53,106.27555847168
0.0543310266666667, 269.159561283335, -0.000563980660549064, 0.535,101.768775939941
0.05499753, 269.161037967396, -0.000318744478521461, 0.5425,101.768775939941
0.055664135, 269.163162350139, 0.000224235748130331, 0.54875,108.722579956055
0.056331645, 269.163993876427, 0.000260211441106158, 0.555,107.060668945313
0.05699789, 269.16655312011, 0.000578756440925414, 0.5625,105.164321899414
0.05766492, 269.167852919327, 0.000339402963406331, 0.57,105.985740661621
0.058331205, 269.170332464819, 0.00047577611353004, 0.57625,108.666458129883
0.0591652333333333, 269.172555753283, 0.000694129145908423, 0.58375,108.080421447754
0.0598308466666667, 269.174529570129, 0.00048402869902079, 0.59,108.080421447754
0.06049744, 269.177202456141, 0.000279797457364555, 0.59625,111.024459838867
0.061164225, 269.178658949421, -0.000133697273234771, 0.60375,99.2841262817383
0.0618307916666667, 269.18126298218, -0.00060790595422242, 0.61125,105.762344360352
0.062497595, 269.182742079422, -0.00103193615561557, 0.61625,131.971221923828
0.0631642966666667, 269.184714922423, -0.00116233360589651, 0.62375,131.971221923828
0.0638307983333333, 269.186331064067, -0.000903331115315344, 0.63125,103.143394470215
0.0644975466666667, 269.188243241665, -0.0004464735627789, 0.6375,104.224006652832
0.0651644116666667, 269.190246926737, -0.000292746284333924, 0.64375,103.372421264648
0.0658311216666667, 269.192051031316, -0.000165207690475698, 0.65,106.318618774414
0.0664978233333333, 269.19473565658, 2.8995054898773E-05, 0.65625,106.318618774414
0.0671641683333333, 269.196469822688, -3.14699080173564E-05, 0.66375,100.352722167969
0.0678308833333333, 269.199089024472, -0.00021288579570739, 0.67,112.674041748047
0.0684975283333333, 269.201166668036, -0.000240731896993536, 0.6775,105.674507141113
0.0691642766666667, 269.204014726711, -0.000370503878692041, 0.68375,115.213493347168
0.0698309566666667, 269.20614434276, -0.000689185371674501, 0.69,115.213493347168
0.0704974466666667, 269.208361639124, -0.000809575324594063, 0.69625,105.928840637207
0.0711646, 269.210603366819, -0.000767706427638893, 0.7025,108.998992919922
0.0718307883333333, 269.21255579023, -0.000786725472324079, 0.71,102.956123352051
0.0724976416666667, 269.21500760875, -0.000520997319592241, 0.71625,104.219825744629
0.0731644316666667, 269.216751457483, -0.000270164918574631, 0.72375,104.219825744629
0.073831025, 269.219154432831, 0.000129289017284085, 0.73,105.349838256836
0.0744981033333333, 269.221055522251, -6.39042788607233E-05, 0.735,106.507354736328
0.0751641183333333, 269.223271607591, 0.000153158818275808, 0.7425,103.857124328613
0.0758312, 269.225208093656, 0.000106050684466132, 0.75,112.031532287598
0.07649807, 269.22824299324, -0.00011025795058929, 0.75625,112.031532287598
0.0771641183333333, 269.230743029575, -0.000545513588150547, 0.7625,98.5339508056641
0.07783128, 269.232831058216, -0.000496377556186347, 0.77,111.211631774902
0.0784974366666667, 269.235244070976, -0.000445558608786643, 0.775,122.593902587891
0.079164105, 269.236919695373, -0.000368325988118445, 0.7825,102.555656433105
0.0798308216666667, 269.239044970769, -6.87550352522772E-05, 0.79,102.555656433105
0.080497555, 269.240708809874, -9.58600725435759E-06, 0.79625,103.42862701416
0.0811642083333333, 269.243667170734, -0.000100008965420247, 0.8025,105.155250549316
0.0818310733333333, 269.24597581015, -0.000260716893185707, 0.80875,106.43138885498
0.0824974416666667, 269.249151548105, -0.000628219433880159, 0.815,103.911994934082
0.0831641616666667, 269.251052933851, -0.000865714504744795, 0.8225,103.911994934082
0.08383093, 269.253297840828, -0.00075157023808185, 0.82875,106.957412719727
0.0844974483333333, 269.255289683954, -0.00034091786475805, 0.835,105.889030456543
0.0851647966666667, 269.257151333814, -0.000427379521852297, 0.8425,105.619537353516
0.085831555, 269.259250090027, 1.46557751381528E-05, 0.84875,100.657249450684
0.0864981083333333, 269.260988498983, 0.000536854545633373, 0.855,100.657249450684
0.087164645, 269.263653599013, 0.000475087648122675, 0.86125,106.810394287109
0.0878309, 269.265185585828, 4.14489293656867E-05, 0.86875,101.685333251953
0.08849744, 269.267648552666, 0.000205125208035292, 0.875,105.538833618164
0.089164495, 269.269715201155, -2.1013933238156E-05, 0.88125,106.483833312988
0.0898308116666667, 269.272526219832, -0.000200464919598603, 0.88875,106.483833312988
0.0904974883333333, 269.274818051922, 0.00010612718056819, 0.895,107.271636962891
0.0911642666666667, 269.277260789296, 0.000567063028237223, 0.90125,105.527641296387
0.0918307816666667, 269.279638298567, 0.000708592919352005, 0.9075,106.673767089844
0.0924975766666667, 269.281014058787, 0.000731928747213661, 0.915,108.206581115723
0.0931642516666667, 269.283062430532, 0.000747142483028905, 0.92125,108.206581115723
0.0938309916666667, 269.284352805833, 0.000496755559686588, 0.9275,106.624305725098
0.09449802, 269.287210896547, 0.000158215064225592, 0.935,103.742446899414
0.0951641133333333, 269.288726541056, -0.000133896763286674, 0.94,125.524635314941
0.09583092, 269.291135477117, -2.62006727598019E-05, 0.94625,109.931549072266
0.0964976733333333, 269.293002763527, -0.000189588965922728, 0.95375,109.931549072266
0.09716423, 269.295295843661, -8.02579574987467E-05, 0.96125,105.317100524902
0.0978314683333333, 269.297127079365, 4.53682324477682E-05, 0.96625,104.91690826416
0.0984974433333333, 269.299806468531, -0.000220346420985695, 0.9725,103.812446594238
0.09916454, 269.302441703839, -1.23188699634294E-05, 0.98,105.680335998535
0.0998314666666667, 269.304938241991, 7.77351066929885E-05, 0.9875,105.680335998535
0.100497466666667, 269.308392376886, 9.11099348922811E-05, 0.99375,107.197074890137
0.101164273333333, 269.311059327704, 0.000132852838218832, 0.99875,106.767288208008
0.101830925, 269.313877303832, 0.000493881704104864, 1.00625,105.096336364746
0.102497481666667, 269.31629639735, 0.00054670605077179, 1.0125,104.238441467285
0.103164281666667, 269.319216675834, 0.000550911839542418, 1.02,104.238441467285
0.103831545, 269.322415022918, 0.000552782245613346, 1.025,102.872871398926
0.104497408333333, 269.32532684581, 0.000455651624368366, 1.0325,106.933372497559
0.105164201666667, 269.329201220359, 0.000542128280727899, 1.03875,108.589782714844
0.105831238333333, 269.332890395011, 9.25828609325836E-05, 1.04625,106.898284912109
0.106498176666667, 269.337498993417, -9.96774820633651E-05, 1.0525,106.898284912109
0.107165231666667, 269.340362104063, -0.000117640579819879, 1.05875,105.670783996582
0.10783158, 269.344811404832, 0.0001069911371945, 1.065,107.06022644043
0.108497773333333, 269.348116375213, -6.06389429034786E-05, 1.0725,99.5025024414063
0.109164261666667, 269.352337362842, 0.000239639974408551, 1.07875,107.291770935059
0.109830851666667, 269.356037630129, 0.00038230680841229, 1.085,107.291770935059
0.110497941666667, 269.36036439085, 0.000424339197169923, 1.09125,102.435577392578
0.111164245, 269.364372081847, 8.49272454606015E-05, 1.09875,102.698783874512
0.111831081666667, 269.368247909172, 9.15269139826573E-05, 1.105,126.591369628906
0.11249743, 269.372552979048, 8.67616533033432E-05, 1.11125,108.027687072754
0.113164213333333, 269.376034022078, -0.000109413493022731, 1.11875,108.027687072754
0.113831675, 269.380114196176, -6.6698638534091E-05, 1.125,101.037796020508
0.11449807, 269.383790137987, -0.000304712683348525, 1.13125,105.796630859375
0.115164676666667, 269.388310162209, -0.000492710240425267, 1.1375,105.861961364746
0.115830843333333, 269.391814501915, -0.000326425592708298, 1.145,99.2759246826172
0.11649757, 269.395609797796, 4.68861562414225E-05, 1.15125,99.2759246826172
0.117164888333333, 269.399433111325, 6.03749786953627E-05, 1.1575,109.128089904785
0.117831055, 269.402896466877, 0.000607883477928245, 1.16375,110.812156677246
0.118497498333333, 269.406733110133, 0.000905443031829579, 1.17,102.422637939453
0.119164888333333, 269.410494651986, 0.000505404125368576, 1.1775,109.53547668457
0.119831598333333, 269.415154677956, 0.000228569030517745, 1.18375,109.53547668457
0.120498068333333, 269.41936277065, 0.000341702347962861, 1.18875,106.010383605957
0.121164238333333, 269.424030362756, 0.000229879964701241, 1.19625,102.24243927002
0.121831988333333, 269.428093236112, 0.000145528701539936, 1.20375,102.087226867676
0.122498096666667, 269.433347769432, 0.000161933377565162, 1.21,101.434768676758
0.123164476666667, 269.437706870727, 0.000250928407401593, 1.2175,101.434768676758
0.123830993333333, 269.442107171172, 0.000152698341398992, 1.22375,100.605041503906
0.12449837, 269.447130834308, -3.88465375078243E-05, 1.23,103.791114807129
0.125164393333333, 269.451630379739, -6.25378475380686E-05, 1.2375,108.12003326416
0.125831386666667, 269.455959536269, 0.000197562587876312, 1.24375,100.004951477051
0.12649913, 269.460056177589, 0.000250016453194379, 1.25,100.004951477051
0.127164658333333, 269.464623968501, 0.00041000591712817, 1.25625,101.118041992188
0.127832975, 269.468321749579, 0.0006756380746982, 1.26375,106.615051269531
0.12849892, 269.472878951455, 0.000919264837607313, 1.27,124.530952453613
0.129164245, 269.477314053958, 0.00101524801647126, 1.275,112.465431213379
0.129830988333333, 269.481551479, 0.00134870376731254, 1.28375,112.465431213379
0.130498075, 269.486669933338, 0.000981727700147393, 1.29,102.932693481445
0.131164736666667, 269.491145638191, 0.000919998300746776, 1.29625,108.62638092041
0.131830836666667, 269.496670480105, 0.000663314693696878, 1.3025,100.03849029541
0.132499056666667, 269.501345981777, 0.000156167667138842, 1.31,109.161529541016
0.133164405, 269.507105588989, -1.82989680484905E-06, 1.31625,109.161529541016
0.133831015, 269.511514937055, 7.27133589407173E-05, 1.3225,102.845642089844
0.134497516666667, 269.516939191927, 0.000250809913352481, 1.32875,103.058837890625
0.135164166666667, 269.520776188258, 0.000387292557978883, 1.335,110.109970092773
0.135831243333333, 269.52517324091, 0.000718054444145575, 1.3425,102.16822052002
0.136497715, 269.529259055002, 0.000483713714853597, 1.34875,102.16822052002
0.1371641, 269.533232827437, 0.000489801909026617, 1.355,100.753341674805
0.137830871666667, 269.537225646023, 0.000572618749225833, 1.3625,106.224189758301
0.13849766, 269.541394260314, 0.000675930559956835, 1.36875,103.991592407227
0.139164913333333, 269.546616819252, 0.000578225467601645, 1.375,106.795059204102
0.139831156666667, 269.550557057431, 0.000832849678063297, 1.3825,106.795059204102
0.140497566666667, 269.555499249156, 0.000993137627017098, 1.38875,103.906883239746
0.141164836666667, 269.559919608097, 0.00095414258568616, 1.395,105.923294067383
0.141830985, 269.564618840436, 0.0010008922374997, 1.4025,104.979789733887
0.142499068333333, 269.568739664734, 0.00119022022775592, 1.40875,104.969970703125
0.143164186666667, 269.573355435522, 0.000924264086472281, 1.415,104.969970703125
0.143831183333333, 269.577489889023, 0.00120742886336756, 1.42125,106.730728149414
0.144498008333333, 269.581858611653, 0.00113725938790454, 1.42875,106.495658874512
0.145165196666667, 269.587164560017, 0.00105397757107655, 1.435,126.77653503418
0.145831535, 269.591171954872, 0.000803161669291139, 1.44125,102.535270690918
0.146498013333333, 269.596182968098, 0.00102338810754675, 1.4475,102.535270690918
0.147164378333333, 269.600537826953, 0.000828661888491778, 1.455,108.372489929199
0.147832715, 269.605664478636, 0.000704979600933205, 1.46125,102.597991943359
0.148498986666667, 269.610206621602, 0.000681226794002427, 1.4675,102.325859069824
0.149164165, 269.615065174705, 0.000881283745364264, 1.475,104.300971984863
0.149831316666667, 269.619753304407, 0.000698154943729406, 1.48125,104.300971984863
0.150497758333333, 269.624601812901, 0.000678381436920603, 1.48875,99.7341461181641
0.151164366666667, 269.629769320392, 0.000674445634585069, 1.495,104.455963134766
0.151831333333333, 269.633625830562, 0.000675798566588094, 1.50125,106.498741149902
0.15249745, 269.638108428419, 0.000918805860569883, 1.5075,108.757827758789
0.153164223333333, 269.642566077147, 0.00065640604064148, 1.515,108.757827758789
0.153831236666667, 269.647773349763, 0.000718108441381584, 1.52,110.339096069336
0.154497406666667, 269.652061467028, 0.000703805159806642, 1.5275,106.796890258789
0.155164103333333, 269.657555449517, 0.000671549280009771, 1.535,112.071243286133
0.15583105, 269.662966442615, 0.000312131333209141, 1.54,103.652778625488
0.156497448333333, 269.667814678544, 0.000465507629279993, 1.54875,103.652778625488
0.157164331666667, 269.67263137133, 0.000502243784055797, 1.555,106.884437561035
0.157831411666667, 269.677181473788, 0.000659983360980873, 1.56,104.579231262207
0.15849779, 269.681724180351, 0.000951852200697304, 1.5675,105.461517333984
0.159164303333333, 269.68588315251, 0.00122722486897866, 1.57375,102.855850219727
0.159831146666667, 269.691099256366, 0.00149955569010261, 1.58125,102.855850219727
0.16049741, 269.695719335463, 0.00127269658496682, 1.5875,102.652984619141
