Time (min), Depth (µm), Load (N), Position (µm), Acoustic (aJ)
9.07833333333333E-06, 240.9469029801, 0.000615079383775838, 0,1272.19653320313
0.000666701666666667, 240.946999075671, -6.62043960467216E-05, 0.0049999999999998,1271.24597167969
0.00133338333333333, 240.946902620354, 0.000103672571211165, 0.0175000000000002,1278.42211914063
0.00199994666666667, 240.949159190815, -0.000199777186820705, 0.0337500000000008,1278.42211914063
0.00266637666666667, 240.953122156663, -0.000361088084323799, 0.0475000000000007,1270.98229980469
0.003333275, 240.959997154266, -0.000906741176772294, 0.0612500000000005,1287.53991699219
0.00399967333333333, 240.968582811982, -0.000572176981584466, 0.0750000000000004,1300.39868164063
0.00466633166666667, 240.979455470724, -0.000682187455890647, 0.0887500000000003,1296.61962890625
0.005333065, 240.99021389845, -0.00038749425799153, 0.1025,1301.30114746094
0.006000005, 241.001406510401, -0.000212294058133809, 0.115000000000001,1301.30114746094
0.0066663, 241.013298579854, 3.32586080278982E-05, 0.12875,1301.47814941406
0.00733298, 241.025199581796, -0.000128004291894291, 0.1425,1300.66137695313
0.00799976, 241.037387848343, -0.000129516215990333, 0.15625,1308.72399902344
0.00866632166666667, 241.049061946676, -0.000269312194197392, 0.168750000000001,1302.0380859375
0.00933302, 241.061692677234, -0.000201107620042698, 0.1825,1302.0380859375
0.00999972333333333, 241.072611851449, -0.000137179331148093, 0.195000000000001,1304.48840332031
0.0106665916666667, 241.083523907748, 3.155769337203E-05, 0.208750000000001,1318.03833007813
0.01133345, 241.093997700375, 0.000342408079727327, 0.2225,1327.19348144531
0.01199968, 241.105765818935, 0.00032368302022518, 0.23625,1593.88146972656
0.0126663816666667, 241.116801737477, 0.000297284346243227, 0.248750000000001,1593.88146972656
0.01333308, 241.12951832409, 0.000259067765868867, 0.261250000000001,1331.673828125
0.0139996866666667, 241.142852494743, -5.01672015853102E-05, 0.275000000000001,1335.03576660156
0.0146663233333333, 241.156544759953, -0.000430555595081085, 0.288750000000001,1334.73498535156
0.015333025, 241.16943310132, -0.000540527071289019, 0.302500000000001,1339.14465332031
0.0159997266666667, 241.182172248967, -0.00082092898700842, 0.316250000000001,1339.14465332031
0.0166672716666667, 241.194918621761, -0.000795607258875532, 0.328750000000001,1339.86901855469
0.0173332416666667, 241.206996751072, -0.000484354892780161, 0.342500000000001,1335.20666503906
0.01800002, 241.219173283445, -0.000471052060930971, 0.356250000000001,1343.37145996094
0.0186666566666667, 241.231897929482, -0.000329321179946152, 0.368750000000001,1330.82287597656
0.0193332433333333, 241.244381706186, -0.000189637696090592, 0.38375,1330.82287597656
0.0201664716666667, 241.256689261749, 4.33755998494542E-05, 0.39875,1333.77429199219
0.02083301, 241.269240625753, 2.95777928834264E-05, 0.412500000000001,1334.70336914063
0.0214996683333333, 241.281955210446, 0.000144622014337105, 0.426250000000001,1330.541015625
0.0221665966666667, 241.294256158111, 0.00012715539166434, 0.440000000000001,1330.2236328125
0.0228336666666667, 241.307099345807, 0.000375877398578975, 0.4525,1326.86083984375
0.0235002816666667, 241.31969580733, 0.000209111275107306, 0.466250000000001,1326.86083984375
0.024167, 241.332925431079, 0.000441871083823201, 0.47875,1327.47546386719
0.0248330066666667, 241.345413126152, 0.00029211410595378, 0.4925,1334.46435546875
0.0254996516666667, 241.358410566056, 0.000344680465602091, 0.50625,1335.77258300781
0.0261663766666667, 241.37123982342, 1.66004447360135E-05, 0.520000000000001,1329.19152832031
0.0268330316666667, 241.384765716694, -0.000167138826237241, 0.533750000000001,1329.19152832031
0.0274996733333333, 241.397692282043, -0.000507683221041055, 0.54625,1334.11865234375
0.028166365, 241.411070381737, -0.000587797196998009, 0.56,1335.96728515625
0.0288330833333333, 241.424852008769, -0.000891725431020788, 0.5725,1596.40954589844
0.0294996883333333, 241.437828207618, -0.000858220113940954, 0.587500000000001,1336.24133300781
0.0301670133333333, 241.450690394565, -0.000822638901189454, 0.6,1336.24133300781
0.0308330683333333, 241.464542730935, -0.00112065293222748, 0.6125,1335.20495605469
0.031500215, 241.477934939117, -0.00124770255064523, 0.62625,1335.02355957031
0.0321669483333333, 241.490906459684, -0.00102154541027894, 0.64,1332.82482910156
0.0328335266666667, 241.504005499995, -0.000868830580976198, 0.6525,1339.57568359375
0.0334999516666667, 241.517225918855, -0.000852338909335584, 0.66625,1339.57568359375
0.0341672266666667, 241.529752960875, -0.000633936379494402, 0.68,1333.16088867188
0.0348346583333333, 241.542793814815, -0.000496627276394281, 0.6925,1337.74169921875
0.0355011816666667, 241.555805786468, -0.000707897664528996, 0.70625,1333.65612792969
0.0361678416666667, 241.569129879888, -0.000836646697593192, 0.72,1333.736328125
0.0368331983333333, 241.581919885428, -0.00076083900532063, 0.7325,1333.736328125
0.0375004883333333, 241.594494397143, -0.000729775565594382, 0.74625,1333.63195800781
0.0381673433333333, 241.606814836632, -0.000836988680399643, 0.758750000000001,1328.32751464844
0.0388340066666667, 241.6192317799, -0.000784983292541912, 0.772500000000001,1340.77990722656
0.0394997483333333, 241.631014277429, -0.00073173896691455, 0.78625,1334.11450195313
0.040166455, 241.642770953634, -0.000646813232664288, 0.7975,1334.11450195313
0.0408337116666667, 241.654798718133, -0.000382875989988751, 0.81125,1333.86535644531
0.0415018133333333, 241.667028517752, -0.00039785873742464, 0.825,1328.58435058594
0.042166715, 241.678758556882, 0.000129571770281816, 0.837500000000001,1341.34399414063
0.0428344916666667, 241.691317165809, 0.000124940002938154, 0.85125,1339.34399414063
0.0435011683333333, 241.704254084404, -0.000244396945641548, 0.865,1339.34399414063
0.0441670066666667, 241.716776984745, -0.000487815218973592, 0.877500000000001,1331.18493652344
0.044833, 241.729302841935, -0.000559528116923874, 0.891250000000001,1335.65795898438
0.0455011133333333, 241.741767909253, -0.000765818755168356, 0.905,1600.10632324219
0.04616638, 241.754184542107, -0.000778851600539943, 0.917500000000001,1337.26574707031
0.04683297, 241.765741449041, -0.000529864106920915, 0.931250000000001,1337.26574707031
0.04750069, 241.778105217484, -0.00065994657305591, 0.943750000000001,1335.51330566406
0.04816786, 241.790084740902, -0.000510267591276712, 0.957500000000001,1341.02197265625
0.0488330133333333, 241.802084088967, -0.000573712904470959, 0.97,1336.27917480469
0.0495012816666667, 241.814051909171, -0.000478137705150969, 0.98375,1345.68530273438
0.05016633, 241.826438799667, -0.000475040360726889, 0.997500000000001,1345.68530273438
0.050834665, 241.838116390506, -0.000240642634265079, 1.01,1335.63012695313
0.051500505, 241.849789093776, -5.30635561818618E-05, 1.0225,1336.20922851563
0.0521663866666667, 241.862327642072, -0.000304467428418367, 1.03625,1342.09826660156
0.052833015, 241.877309231646, -0.000538410677679719, 1.04875,1338.26989746094
0.05350121, 241.891676590349, -0.000598430162984319, 1.0625,1338.26989746094
0.0541667333333333, 241.9058387198, -0.000914908266593312, 1.07625,1335.61291503906
0.05483493, 241.919826155215, -0.000770750507456431, 1.09,1340.64831542969
0.0555000683333333, 241.932789255699, -0.00077563126233605, 1.10375,1343.86804199219
0.056166405, 241.94357331007, -0.000725533778680583, 1.11625,1333.05505371094
0.056833045, 241.954694210893, -0.000551074541584343, 1.13,1333.05505371094
0.057499695, 241.966089718483, -0.000580654555841974, 1.1425,1336.86071777344
0.058166985, 241.97795489505, -0.000767132689243167, 1.15625,1330.79064941406
0.0588330033333333, 241.989616903246, -0.000932652375365696, 1.17,1339.06555175781
0.0594999616666667, 242.001201909534, -0.00106051345305564, 1.18375,1338.83666992188
0.060166395, 242.012685938715, -0.00115974996846035, 1.1975,1338.83666992188
0.06083373, 242.023942786508, -0.000704560332200395, 1.21,1345.96472167969
0.0614996666666667, 242.035349881388, -0.000752086945003596, 1.2225,1332.72387695313
0.06216694, 242.047316998748, -0.00047313545641594, 1.2375,1603.82592773438
0.06283349, 242.059020611659, -0.00064599277393069, 1.25125,1339.89477539063
0.063499685, 242.070968779938, -0.00054223848541571, 1.265,1339.89477539063
0.0641668416666667, 242.082774132725, -0.00087956104204872, 1.2775,1339.47583007813
0.0648338566666667, 242.094652565934, -0.000728475130902962, 1.29125,1337.72216796875
0.065499705, 242.105630493174, -0.000818610103519664, 1.30375,1337.75695800781
0.0661663866666667, 242.116980693439, -0.000283990456915656, 1.3175,1336.10034179688
0.0668346183333333, 242.128584230137, -0.00052446887792847, 1.33125,1336.10034179688
0.06749999, 242.140083324896, -0.000338128737614885, 1.34375,1329.28942871094
0.068166685, 242.151025788543, -0.000217695286887629, 1.3575,1334.12976074219
0.0688330083333333, 242.162835085829, -0.000219870177654927, 1.37125,1340.31909179688
0.0695001983333333, 242.174194738354, -0.000504609875513697, 1.385,1336.32165527344
0.0701663583333333, 242.185640873991, -0.000402268516041636, 1.3975,1336.32165527344
0.070832995, 242.197072798593, -0.00050966012182963, 1.41125,1337.78894042969
0.071499955, 242.20875096174, -0.000663877875660743, 1.42375,1339.05908203125
0.0721672466666667, 242.220312123582, -0.000533886904956854, 1.4375,1336.89404296875
0.0728330033333333, 242.231769651629, -0.000474602382716121, 1.45125,1339.52355957031
0.073499615, 242.242710056727, -0.000462487491228106, 1.465,1339.52355957031
0.0741669166666667, 242.25396843632, -0.000320882603935669, 1.4775,1335.189453125
0.07483355, 242.265316579797, -0.000326394827074076, 1.49,1342.93212890625
0.0755001333333333, 242.277444017506, -0.00049405040588691, 1.505,1339.88061523438
0.0761680233333333, 242.288756327774, -0.000525472327630553, 1.5175,1338.49401855469
0.0768349466666667, 242.301104519096, -0.000604821342014322, 1.53125,1338.49401855469
0.0774997133333333, 242.313323691035, -0.00085499827587642, 1.54375,1347.37829589844
0.07816793, 242.32580864763, -0.000800404018052331, 1.5575,1342.37658691406
0.0788334466666667, 242.33782999095, -0.00079613373257487, 1.57125,1620.56750488281
0.079501575, 242.350811121708, -0.00103400378460408, 1.585,1340.595703125
0.080167025, 242.362850986508, -0.000797470165473222, 1.59875,1340.595703125
0.080833015, 242.375110316014, -0.000936579178197318, 1.61125,1339.97314453125
0.08149976, 242.386663644819, -0.00108612016693142, 1.625,1341.6162109375
0.0821663066666667, 242.397872804639, -0.00123658960901991, 1.63625,1338.29650878906
0.0828339166666667, 242.408191436571, -0.00110750609277128, 1.65,1338.10241699219
0.083499665, 242.418470174049, -0.00148057785375272, 1.66375,1338.10241699219
0.0841678816666667, 242.428690257602, -0.00118536868177386, 1.67625,1344.44909667969
0.0848337583333333, 242.439097732252, -0.00127017292214746, 1.69,1345.41345214844
0.0855013816666667, 242.449534243609, -0.00111821705472029, 1.7025,1335.73999023438
0.0861663283333333, 242.460611254655, -0.000956667669173314, 1.71625,1338.43994140625
0.08683307, 242.471773035166, -0.00106588918307335, 1.72875,1338.43994140625
0.0874998266666667, 242.483207699953, -0.00104849305684754, 1.7425,1327.90515136719
0.0881663283333333, 242.493775059594, -0.000709091604609038, 1.75625,1334.95568847656
0.088833635, 242.504729888175, -0.000393228470069143, 1.77,1328.74206542969
0.089499655, 242.515622077334, -0.000329616665244881, 1.7825,1336.20434570313
0.090167345, 242.526797479222, 6.44360419025234E-05, 1.795,1336.20434570313
0.0908332033333333, 242.53747794928, 0.000445242914370569, 1.80875,1337.2080078125
0.0915011416666667, 242.549369736782, 0.000174557510614546, 1.82125,1342.28308105469
0.09216636, 242.560474672494, -8.18066124949506E-05, 1.835,1332.63793945313
0.0928332133333333, 242.571972907409, -5.1025158599023E-05, 1.84875,1335.9501953125
0.0935014566666667, 242.582907676313, 0.000115995952106216, 1.8625,1335.9501953125
0.094167985, 242.594631910737, -0.000355287875763728, 1.87375,1337.24890136719
0.0948332483333333, 242.603999800486, -0.000436345304340365, 1.8875,1606.89562988281
0.0955001783333333, 242.6138994059, -0.00061036506348018, 1.9025,1320.65612792969
0.0961672883333333, 242.623811688493, -0.000896418695286238, 1.915,1322.73046875
0.096832995, 242.633911184731, -0.00117699910203088, 1.92875,1322.73046875
0.0974997883333333, 242.643355448414, -0.00101285184701364, 1.94125,1319.36120605469
0.098166375, 242.654404939414, -0.0010655561997283, 1.955,1318.00756835938
0.0988338016666667, 242.665526680871, -0.000986931648980085, 1.9675,1318.90515136719
0.0995005983333333, 242.675704926399, -0.000775602763814897, 1.98125,1322.06079101563
0.10016746, 242.686368793402, -0.000736777213984035, 1.995,1322.06079101563
0.100833301666667, 242.696933329974, -0.00107050445118481, 2.0075,1313.7783203125
0.101499753333333, 242.707237621476, -0.000763985847292526, 2.02125,1318.13940429688
0.102168393333333, 242.717349596037, -0.00041627781228476, 2.035,1322.59594726563
0.102832996666667, 242.727825418639, -0.00021943969928743, 2.04875,1315.15979003906
0.103501043333333, 242.738271103822, -0.00027151108379765, 2.06125,1315.15979003906
0.104166965, 242.749053254087, -0.000208992724054649, 2.075,1317.90490722656
0.104833063333333, 242.760072565985, -0.000155211425427157, 2.0875,1317.64318847656
0.105500736666667, 242.770909169512, -0.000625223317233107, 2.1025,1323.03076171875
0.106167358333333, 242.782042416367, -0.000886628687112116, 2.11625,1314.69128417969
0.106833966666667, 242.792456353458, -0.000673690382785929, 2.12875,1314.69128417969
0.10750115, 242.803066140174, -0.000562929946150594, 2.1425,1324.96691894531
0.108166918333333, 242.814002413236, -0.000495640326009412, 2.155,1314.15563964844
0.10883309, 242.824442205455, -6.00697042597086E-05, 2.16875,1320.04931640625
0.109501375, 242.835079098703, 0.000145220484216513, 2.1825,1317.68798828125
0.110166401666667, 242.846065502891, 0.000170252726875811, 2.19625,1317.68798828125
0.110833011666667, 242.857065721374, 0.000224819986039388, 2.20875,1320.50451660156
0.11149968, 242.867665043371, 4.87198313696798E-05, 2.22125,1581.66674804688
0.112166396666667, 242.878782727671, -0.000212093068285027, 2.235,1318.23864746094
0.11283368, 242.889527852569, -0.000293820963197444, 2.24875,1311.96740722656
0.11349978, 242.900417461479, -0.00054692724990795, 2.2625,1311.96740722656
0.11416688, 242.910591063052, -0.000516175794521341, 2.275,1316.79235839844
0.114833031666667, 242.921585506668, -0.000862781384880171, 2.28875,1311.11645507813
0.115499691666667, 242.931828501141, -0.000743336384462187, 2.3025,1309.68408203125
0.11616728, 242.94251895708, -0.000920907965247794, 2.315,1311.25500488281
0.116833021666667, 242.952978629249, -0.000803375368784029, 2.32875,1311.25500488281
0.117499693333333, 242.963691660907, -0.000669712582524596, 2.34125,1312.27697753906
0.118166351666667, 242.973614944802, -5.91817488429472E-05, 2.355,1307.11645507813
0.11883299, 242.98454470988, -0.000355368871681504, 2.36875,1308.58618164063
0.119500398333333, 242.994902432722, -0.000149183228145251, 2.38125,1304.35681152344
0.120166376666667, 243.005113666721, 0.000167492865548734, 2.395,1304.35681152344
0.12083301, 243.015697308028, -7.69693553592637E-05, 2.4075,1301.71545410156
0.12149967, 243.02662528243, -0.000640570546277732, 2.42125,1300.70288085938
0.122167256666667, 243.036839763542, -0.000279181698471156, 2.435,1301.90307617188
0.122833006666667, 243.046972054062, -0.000160467161407591, 2.4475,1294.23645019531
0.12350052, 243.057705244363, -0.000208071770237253, 2.46125,1294.23645019531
0.124166413333333, 243.067859041371, 6.23676458528736E-05, 2.47375,1300.76342773438
0.124833015, 243.078060044199, 0.000317896310920977, 2.4875,1301.95642089844
0.125499711666667, 243.088977714834, 1.90033240338604E-05, 2.50125,1301.01782226563
0.12616634, 243.099735744346, -3.84632894900583E-05, 2.51375,1299.84765625
0.126833108333333, 243.110181012963, -0.000314320433481187, 2.52625,1299.84765625
0.127500195, 243.120685125965, -0.000594581356264174, 2.54,1295.12377929688
0.128166368333333, 243.130847453777, -0.000500341089833116, 2.5525,1555.68041992188
0.12883305, 243.14091184249, -0.00024759928479511, 2.56625,1296.38659667969
0.129499755, 243.151296188782, -0.000214246960046916, 2.58,1296.32470703125
0.130166951666667, 243.161578024779, 2.35645949305691E-05, 2.5925,1296.32470703125
0.13083301, 243.171604442996, 0.000334138995068143, 2.60625,1297.45983886719
0.131499706666667, 243.182184095495, 0.000331335635890864, 2.61875,1303.53601074219
0.13216638, 243.19248430336, 0.000547845260837577, 2.6325,1306.60412597656
0.132833516666667, 243.202795393154, 0.000338103295967338, 2.64625,1307.81982421875
0.133500351666667, 243.213297038866, 0.000157321876448661, 2.65875,1307.81982421875
0.134166535, 243.224226433236, -0.000350159633272555, 2.67125,1304.99792480469
0.134834936666667, 243.234665288318, -0.000340131137012046, 2.685,1306.65881347656
0.135499663333333, 243.244805668063, -0.000546933249584309, 2.69875,1314.41284179688
0.136166363333333, 243.254913359574, -0.000416660293071353, 2.71125,1314.77941894531
0.136833158333333, 243.264819772357, -0.0004603335993812, 2.725,1314.77941894531
0.137499816666667, 243.274522853658, -0.000103194038152946, 2.7375,1311.71252441406
0.138166298333333, 243.28284013353, -0.000201389605873018, 2.75125,1317.58471679688
0.138834045, 243.291825259944, -0.000150885642640506, 2.765,1295.94287109375
0.13949966, 243.300972145609, -0.000213273508917915, 2.77875,1291.76928710938
0.140166916666667, 243.309991475132, -4.98047125501909E-06, 2.7925,1291.76928710938
0.140833071666667, 243.319135748661, 0.000401853093921717, 2.805,1290.01220703125
0.14150021, 243.329971740217, 0.000370803153515098, 2.8175,1290.75415039063
0.142166855, 243.34100217616, 0.000397575308800986, 2.8325,1287.82421875
0.14283369, 243.351772848877, 0.000723676929039101, 2.845,1283.63342285156
0.14350026, 243.362420636744, 0.000613274974378653, 2.8575,1283.63342285156
0.144166366666667, 243.373263705566, 0.000135034495893661, 2.87125,1283.54577636719
0.144833033333333, 243.384040138099, 2.05392468778456E-05, 2.885,1538.23425292969
0.145499878333333, 243.394778474243, -0.000223063517219561, 2.89875,1288.53186035156
0.146166363333333, 243.405326725957, -0.000539162139912022, 2.9125,1281.98828125
0.14684671, 243.415716555702, -0.000491397039086194, 2.92625,1281.98828125
0.147499776666667, 243.425915467922, -0.000227402799219571, 2.93875,1288.0703125
0.148166343333333, 243.436171398313, -0.000218901226214119, 2.9525,1286.88024902344
0.148833565, 243.446230391213, -4.10451525473783E-06, 2.965,1279.802734375
0.149499696666667, 243.456217847064, 0.000219009277987241, 2.98,1278.96875
0.15016632, 243.466358655562, 0.000192895589641907, 2.9925,1278.96875
0.15083326, 243.476556336828, 0.000467092316978564, 3.00625,1287.34851074219
0.151500343333333, 243.486911605275, 0.000850881039712893, 3.01875,1285.07507324219
0.152167281666667, 243.496550438212, 0.000826550761801844, 3.0325,1282.21789550781
0.152833486666667, 243.506411474963, 0.000959657076001398, 3.04625,1287.51794433594
0.153500015, 243.516282536616, 0.000939387094130099, 3.05875,1287.51794433594
0.154166928333333, 243.526641689177, 0.000193888539788151, 3.0725,1288.83605957031
0.15483354, 243.53608690414, 0.00020675489346596, 3.08625,1290.44323730469
0.155499666666667, 243.546065272484, -6.78363140737694E-05, 3.1,1281.74621582031
0.156166345, 243.556044074508, -0.00020969318875097, 3.1125,1285.23522949219
0.156832996666667, 243.56599483803, -0.000359504163898909, 3.12625,1285.23522949219
0.157499675, 243.575603619175, -0.000156778846598595, 3.13875,1288.64477539063
