Time (min), Depth (µm), Load (N), Position (µm), Acoustic (aJ)
9.42166666666667E-06, 240.963801387585, 0.000128770929588524, 0,239.446868896484
0.000666681666666667, 240.964034210841, -9.13895119508333E-05, 0.00625000000000105,238.361633300781
0.00133166166666667, 240.965722471119, -0.00020188296199988, 0.0175000000000002,239.475036621094
0.001998565, 240.970571544638, -0.000197743169924249, 0.0375000000000011,240.666717529297
0.00283170833333333, 240.975404768485, -0.000365871225030379, 0.0512500000000009,246.211929321289
0.00349847333333333, 240.982229488221, 1.96934084524559E-05, 0.0650000000000008,246.211929321289
0.00416546833333333, 240.990421814655, -0.000295712249038175, 0.0775000000000012,245.278610229492
0.00483171833333333, 240.999051520391, -1.57528111240051E-05, 0.0925000000000006,312.512786865234
0.00549845, 241.007936091008, -7.52953203408441E-05, 0.10625,259.048828125
0.00616508333333333, 241.017400154675, -1.23524819067049E-05, 0.12,264.204406738281
0.00683190666666667, 241.026838273083, -0.000549130520109575, 0.132500000000001,264.204406738281
0.00749848166666667, 241.03610620276, -0.000285218776106385, 0.146250000000001,260.362091064453
0.00816530833333333, 241.04575323745, -0.000523106827228437, 0.158750000000001,269.203521728516
0.00883167666666667, 241.05490801414, -0.000580690434855809, 0.172500000000001,266.156463623047
0.009499035, 241.064554279096, -0.000879790411374337, 0.186250000000001,266.156463623047
0.0101652516666667, 241.072381807084, -0.000613166803624976, 0.198750000000001,269.233795166016
0.0108316983333333, 241.080407658413, -0.000543868784431528, 0.211250000000001,273.318756103516
0.0114987716666667, 241.088533115639, -0.000548835034959625, 0.226250000000001,292.99951171875
0.0121651083333333, 241.098073188761, -0.000649236991880717, 0.238750000000001,297.318817138672
0.0128318666666667, 241.107081699426, -0.000776060121692318, 0.252500000000001,297.114990234375
0.0134984316666667, 241.118202962431, -0.00104058233497014, 0.266250000000001,297.114990234375
0.0141650916666667, 241.12983973979, -0.00115138776931632, 0.278750000000001,303.787139892578
0.014831705, 241.141438063019, -0.00126395111540318, 0.292500000000001,304.603240966797
0.0154985783333333, 241.152112486728, -0.00118845840731907, 0.306250000000001,304.922729492188
0.0161652716666667, 241.163682539389, -0.00074125436989981, 0.32125,308.071136474609
0.0169988383333333, 241.174600481706, -0.000704261728008541, 0.33625,308.568298339844
0.01766533, 241.185812997313, -0.000589874473571014, 0.350000000000001,308.568298339844
0.018332, 241.196901039923, -0.000300900488399208, 0.3625,304.558868408203
0.0189984833333333, 241.208536469806, -0.000217506177219722, 0.37625,304.773864746094
0.0196653366666667, 241.219535302459, -0.000170954515469925, 0.39,306.770416259766
0.0204993233333333, 241.236045101833, 1.37717059094514E-05, 0.40625,372.942718505859
0.02116516, 241.246848789373, 0.00019006835069724, 0.42,302.985992431641
0.021831745, 241.257801265006, 0.000418703366602791, 0.43375,302.985992431641
0.0224985116666667, 241.26886497124, 0.000897284327991085, 0.445000000000001,303.916137695313
0.0231657166666667, 241.280439103823, 0.000653336581238421, 0.46,299.011138916016
0.023832265, 241.291859277417, 0.000710530208478439, 0.472500000000001,301.898254394531
0.0244991566666667, 241.303605285352, 0.000411818712486625, 0.486250000000001,306.971649169922
0.0251654383333333, 241.3151612517, -9.10265301177203E-05, 0.5,306.971649169922
0.0258319866666667, 241.326553399991, -0.000780720387514625, 0.512500000000001,298.455596923828
0.02649918, 241.337309885178, -0.00113513308573142, 0.526250000000001,299.102264404297
0.0271661616666667, 241.348676453085, -0.00123887837476374, 0.540000000000001,315.290924072266
0.02783182, 241.35933290435, -0.0010125172446361, 0.552500000000001,305.178161621094
0.0284985183333333, 241.370391174869, -0.00122829040657329, 0.566250000000001,305.178161621094
0.029165215, 241.38112561247, -0.00113741747102266, 0.580000000000001,302.718719482422
0.029831705, 241.392070984173, -0.00068203434447218, 0.592500000000001,305.297912597656
0.0304987633333333, 241.402802310516, -0.000721017386344129, 0.6075,311.502319335938
0.0311656133333333, 241.413712226207, -0.000921314325631742, 0.620000000000001,308.383972167969
0.0318331616666667, 241.424064368497, -0.000685581666259745, 0.633750000000001,308.383972167969
0.0324992516666667, 241.435108718983, -0.000681167387997064, 0.646250000000001,311.172607421875
0.0331651666666667, 241.446152668129, -0.000937999487562885, 0.660000000000001,312.885589599609
0.0338318083333333, 241.457466490397, -0.000944456663245377, 0.672500000000001,310.265625
0.03449868, 241.468496830484, -0.00100562359093101, 0.686250000000001,307.947540283203
0.0351651933333333, 241.47978995637, -0.000804456695298221, 0.70125,307.947540283203
0.0358321316666667, 241.491084726783, -0.000803090263911804, 0.712500000000001,305.786193847656
0.0364990883333333, 241.502310305335, -0.000697744555328665, 0.726250000000001,307.941040039063
0.0371653333333333, 241.513215466325, -0.000619257997604294, 0.740000000000001,369.333221435547
0.037831705, 241.524615430021, -0.000635559178824441, 0.752500000000001,299.418548583984
0.0384984966666667, 241.535767823414, -0.000850006407334101, 0.767500000000001,299.418548583984
0.03916518, 241.546499656932, -0.00050356880852969, 0.778750000000001,305.642974853516
0.03983166, 241.55747449532, -0.000373006366543144, 0.792500000000001,300.378692626953
0.0404989766666667, 241.56856260183, -0.000307353164244728, 0.805,292.713073730469
0.04116529, 241.579570697311, -0.000315856237132075, 0.818750000000001,294.886901855469
0.0418319916666667, 241.590333636098, -0.000266537214390677, 0.832500000000001,294.886901855469
0.0424991016666667, 241.601395212043, -0.000490540462973821, 0.845,300.546020507813
0.0431653533333333, 241.61163328155, -0.000484566263034194, 0.857500000000001,292.839813232422
0.0438324066666667, 241.621966247127, -0.000422704870243582, 0.871250000000001,298.691925048828
0.0444983716666667, 241.631943153197, -0.000309874537591686, 0.885,300.456024169922
0.0451655466666667, 241.64170777544, -0.000203561377619666, 0.897500000000001,300.456024169922
0.0458318283333333, 241.651862876863, -0.000340565996002164, 0.911250000000001,296.744110107422
0.0464985283333333, 241.661818478384, -9.70322284910696E-05, 0.923750000000001,299.268402099609
0.0471667783333333, 241.672076340448, -0.000122724437994071, 0.937500000000001,299.311157226563
0.0478323483333333, 241.682046006453, 3.62795754154925E-05, 0.951250000000001,302.158721923828
0.0484998833333333, 241.69244035678, -4.52383299741981E-05, 0.96375,302.158721923828
0.04916578, 241.702570623634, 0.000251230778673426, 0.976250000000001,310.950592041016
0.049833265, 241.713111607597, 0.000174434636049084, 0.99,306.457122802734
0.0504999933333333, 241.723279647619, 0.000133036715420299, 1.00375,304.077606201172
0.0511660283333333, 241.733399182377, 0.00040907985007994, 1.01625,314.033325195313
0.0518325716666667, 241.743773665019, 0.000210660816464018, 1.03125,314.033325195313
0.052499545, 241.756097821159, 0.000102276260508525, 1.0425,307.129638671875
0.05316572, 241.768053146619, 5.01193802860656E-05, 1.05625,311.828948974609
0.05383329, 241.779560760054, 0.000165087105595178, 1.07,372.824127197266
0.0544988516666667, 241.791839185312, -0.000320072525352272, 1.0825,312.987731933594
0.0551651366666667, 241.803964764753, -0.000312743893527725, 1.0975,312.987731933594
0.0558317716666667, 241.813645365734, -0.000511593405532398, 1.11,314.294921875
0.0564984266666667, 241.824118100162, -0.000740499907839955, 1.12375,312.697540283203
0.05716592, 241.834935336497, -0.000979482903967672, 1.13625,307.790069580078
0.0578317783333333, 241.845398015339, -0.000806745580362675, 1.15,305.375915527344
0.05849884, 241.855956607331, -0.000528629549816412, 1.16375,305.375915527344
0.0591658233333333, 241.866567929728, -0.000450264486032468, 1.17625,304.936096191406
0.059832365, 241.876860704248, -0.000536819138482225, 1.19,306.912841796875
0.0604992466666667, 241.887204751231, -0.000480448969888374, 1.20375,303.787841796875
0.061165345, 241.897526833526, -0.000542652345506691, 1.2175,307.519378662109
0.06183175, 241.907632798447, -0.000495005738772483, 1.23,307.519378662109
0.062498495, 241.917530139527, -0.000331561948364129, 1.24375,313.029449462891
0.06316568, 241.927746708563, -0.00020834763726188, 1.2575,309.245697021484
0.0638317366666667, 241.937788087274, -0.00031626421671854, 1.27125,316.154815673828
0.064498545, 241.947497857203, -0.00046581420495655, 1.28375,312.239318847656
0.0651656066666667, 241.957401244298, -0.000627525582339076, 1.2975,312.239318847656
0.0658331783333333, 241.967761088492, -0.000898131490101727, 1.31125,310.871215820313
0.0664992883333333, 241.977702081706, -0.000700697906988778, 1.32375,303.813293457031
0.067165105, 241.988015983428, -0.000728908489989931, 1.3375,309.775909423828
0.0678331183333333, 241.998597091165, -0.000386345196599267, 1.35125,309.775909423828
0.0684986183333333, 242.00908670469, -0.000489750002707033, 1.365,308.730987548828
0.06916576, 242.019227763521, -0.000146043766708545, 1.3775,309.106109619141
0.0698317533333333, 242.029683432991, -0.000252391425026856, 1.39125,310.485321044922
0.07050102, 242.040054397911, -0.000360075516179757, 1.405,365.875518798828
0.07116648, 242.050447774563, -0.000700703906792661, 1.4175,311.803955078125
0.0718331933333333, 242.061000877763, -0.000703910745698179, 1.4325,311.803955078125
0.072500355, 242.071505677572, -0.000837738523705732, 1.44375,313.309387207031
0.0731651766666667, 242.082230569023, -0.00075279779016893, 1.4575,311.559387207031
0.0738322133333333, 242.092916337361, -0.000618931014148146, 1.47125,315.508026123047
0.0744987816666667, 242.103685891098, -0.000111026525660195, 1.485,313.811248779297
0.075165405, 242.114367388844, -0.000104660845387555, 1.49875,313.811248779297
0.0758316733333333, 242.125492501798, 0.000102670740605328, 1.51125,311.808044433594
0.0764987583333333, 242.135944080676, 0.000205762062470306, 1.525,314.028167724609
0.0771652516666667, 242.146990027054, 0.00018511709943443, 1.5375,319.138977050781
0.07783162, 242.158092853237, -5.08750469443461E-05, 1.55125,316.051452636719
0.078498925, 242.168950543031, -0.000127807682710638, 1.56375,316.051452636719
0.07916512, 242.179478783468, -0.000535275716016223, 1.5775,321.254547119141
0.079831915, 242.190387217732, -0.000980760839793043, 1.59125,321.469268798828
0.0804984016666667, 242.200879749094, -0.000904435673516341, 1.605,312.356323242188
0.0811658116666667, 242.211020915573, -0.00114487659639782, 1.6175,314.739440917969
0.08183244, 242.220911992041, -0.000927510514446813, 1.63125,314.739440917969
0.0824993916666667, 242.231447605397, -0.000873634720560662, 1.64375,313.586791992188
0.08316588, 242.241544969409, -0.000705466167495644, 1.65625,315.539001464844
0.0838317183333333, 242.250947398244, -0.000649070500186938, 1.67,305.193298339844
0.0844983383333333, 242.260846575155, -0.000374230305175014, 1.68375,305.777709960938
0.0851656083333333, 242.271082863676, -0.000284684802976317, 1.6975,305.777709960938
0.0858317383333333, 242.280818851533, -0.000225814259998408, 1.71,300.986572265625
0.0864992033333333, 242.291021115085, 8.48771342638738E-05, 1.7225,298.386993408203
0.0871650616666667, 242.301406302335, 0.000386520982974155, 1.73625,356.832061767578
0.0878316816666667, 242.311981984451, 0.000230132838212717, 1.75,297.285278320313
0.0884997066666667, 242.322180725606, 5.8385464905157E-05, 1.76375,297.285278320313
0.0891652316666667, 242.332649511512, 1.32242333109754E-05, 1.77625,302.211608886719
0.0898323166666667, 242.342523768001, -1.83801013953973E-06, 1.78875,300.062072753906
0.0904983433333333, 242.352617188468, -0.000283675353704146, 1.8025,304.554840087891
0.0911665916666667, 242.362049662408, 3.12218293287644E-05, 1.81625,302.756408691406
0.09183322, 242.37219474707, 0.000216041046084905, 1.83,302.756408691406
0.0926660216666667, 242.381455674524, 0.000653555570137534, 1.845,302.291748046875
0.0933318083333333, 242.391446556163, 0.00062162067416296, 1.8575,301.829162597656
0.0939986516666667, 242.401254407274, 0.000511272716866046, 1.87125,303.024932861328
0.09466687, 242.412045183105, 0.0002906892965387, 1.88375,305.623046875
0.0953331983333333, 242.422778205328, 0.000328329905899701, 1.89875,293.060272216797
0.0959984116666667, 242.433858796276, -0.000174056359752231, 1.91125,293.060272216797
0.0966667583333333, 242.444530807787, -0.0004701144890496, 1.925,293.701354980469
0.0973322766666667, 242.45502236108, -0.000183991860742247, 1.93875,297.737457275391
0.0979990733333333, 242.464675534912, -0.00021229693900206, 1.95125,293.717468261719
0.0986665733333333, 242.473623521223, -0.000467980096304953, 1.965,297.550323486328
0.0993324016666667, 242.482275975011, -0.000172721426842045, 1.97875,297.550323486328
0.0999985716666667, 242.491446675502, 3.94279171417584E-05, 1.99125,301.232391357422
0.10066592, 242.500178276463, -0.000157630684806614, 2.005,295.585357666016
0.101331628333333, 242.509213179477, -0.000140498545339537, 2.01875,297.621215820313
0.101998541666667, 242.518294481581, -2.65432691939108E-05, 2.0325,300.860137939453
0.102665685, 242.527667729729, -0.000263681357986809, 2.04625,300.860137939453
0.103331743333333, 242.536818614286, -0.00023914559041126, 2.05875,356.622192382813
0.103998788333333, 242.546359095879, -0.000322352410997831, 2.07125,291.376525878906
0.104665361666667, 242.554824424977, -0.000340027523205157, 2.08625,300.135620117188
0.105332576666667, 242.56355329625, -0.000292977886425954, 2.09875,298.632904052734
0.105999533333333, 242.57179537363, 0.000118218959583753, 2.11125,298.632904052734
0.106666638333333, 242.58055325269, -0.000194066854616749, 2.125,294.54736328125
0.107333163333333, 242.588910035555, 3.36667065736649E-05, 2.13875,296.817779541016
0.107998548333333, 242.597545269637, 0.000233438672213866, 2.1525,296.589477539063
0.108666495, 242.606113511784, 0.000307993927397167, 2.16625,298.797149658203
0.10933317, 242.615055431573, 9.87709364554724E-05, 2.17875,298.797149658203
0.110167096666667, 242.626811613232, 0.000550128265269989, 2.19625,296.536987304688
0.110831958333333, 242.635109985178, 0.000443698111152007, 2.20875,292.241424560547
0.111499991666667, 242.643441476423, 0.000159396391346513, 2.2225,295.276153564453
0.112166446666667, 242.650980231951, 0.000405103549700502, 2.23625,285.358276367188
0.11283232, 242.658806398348, 0.000431869705310031, 2.25,295.783172607422
0.113500545, 242.667214176709, 0.000197774963662695, 2.2625,295.783172607422
0.114167, 242.674848004432, 0.000450411773949965, 2.275,293.324951171875
0.11483213, 242.682777888213, 0.000632159144975627, 2.28875,291.362762451172
0.115498566666667, 242.691580522629, 0.00062235113762365, 2.3025,294.513092041016
0.116166688333333, 242.699415873619, 0.000880912650323985, 2.315,284.451049804688
0.116831711666667, 242.70743180849, 0.000884765956732323, 2.32875,284.451049804688
0.11749912, 242.715946780885, 0.000755874430828563, 2.3425,282.851837158203
0.11816519, 242.724073411728, 0.000629561275377832, 2.35625,288.018096923828
0.118831733333333, 242.732272326032, 0.000698719801580522, 2.36875,282.677673339844
0.119498803333333, 242.74051961063, 0.000673594563650731, 2.3825,330.592498779297
0.120165391666667, 242.74907830338, 0.000787356349505829, 2.395,330.592498779297
0.120831771666667, 242.757073434883, 0.000842456081896325, 2.4075,273.409637451172
0.121498391666667, 242.765573567836, 0.00089790079700584, 2.42125,276.480621337891
0.122165521666667, 242.773930984204, 0.00041813939494215, 2.435,272.903076171875
0.122832251666667, 242.782477450019, 0.000212079745077024, 2.4475,269.842651367188
0.123500616666667, 242.790510828549, 0.000411913207660268, 2.46125,269.842651367188
0.124166276666667, 242.799105912432, 0.000102036272476479, 2.47375,268.956207275391
0.12483224, 242.80715754884, 0.000300623297668075, 2.4875,271.931274414063
0.125498508333333, 242.815408236132, 0.000446622964269713, 2.50125,261.977020263672
0.12616582, 242.823599891547, 0.000520734241744633, 2.51375,263.623962402344
0.126831768333333, 242.832059015534, 0.000273254172405927, 2.5275,263.623962402344
0.127498713333333, 242.84047517387, 0.000554797530744987, 2.54,270.634857177734
0.12816519, 242.848577881822, 0.000599832768646786, 2.55375,269.305572509766
0.12883168, 242.857117686774, 0.000745410956427347, 2.56625,268.538543701172
0.129498718333333, 242.865192420499, 0.000701314671287003, 2.58,265.671020507813
0.130165773333333, 242.873587256804, 0.000763789533243563, 2.59375,265.671020507813
0.130833855, 242.881621389457, 0.000693860045770074, 2.60625,273.107299804688
0.13149896, 242.89013857647, 0.000358907370119293, 2.61875,270.940277099609
0.132165608333333, 242.89861376311, 0.000184905610008555, 2.6325,276.078186035156
0.132832346666667, 242.907379602056, 0.00017839293716565, 2.64625,276.787200927734
0.13349901, 242.915881752957, 0.000605785969687276, 2.66,276.787200927734
0.134165256666667, 242.925132202802, 0.000633923056371416, 2.6725,284.883270263672
0.1348318, 242.935218688571, 0.000547503397139206, 2.68625,284.255767822266
0.135498566666667, 242.944996203113, 0.00071255660670856, 2.69875,286.955230712891
0.136165875, 242.955188224286, 0.000575244503759632, 2.7125,346.290100097656
0.136832223333333, 242.965216030992, 0.000246829999645357, 2.725,346.290100097656
0.137498541666667, 242.974821470145, 7.65795511472975E-05, 2.7375,293.927612304688
0.13816714, 242.982546964775, 0.000390758270284777, 2.75125,286.448455810547
0.138832586666667, 242.990740778573, 0.00011716751242829, 2.765,269.438568115234
0.139499201666667, 242.999498631886, 7.46716469875421E-05, 2.7775,272.367645263672
0.140165728333333, 243.00859975247, -0.000324746290664242, 2.79125,272.367645263672
0.140833258333333, 243.017926235646, -0.000123202913963727, 2.805,272.155975341797
0.141499053333333, 243.028649662698, -0.000333924329639325, 2.81875,275.556060791016
0.14216642, 243.039426585623, -0.000329183067792972, 2.8325,274.304626464844
0.142831831666667, 243.050218913755, -0.000205397285450574, 2.845,272.365875244141
0.143500058333333, 243.060547953577, 6.00959582609224E-06, 2.85875,272.365875244141
0.144165193333333, 243.071082835074, 6.55551048704836E-05, 2.8725,265.468444824219
0.144832528333333, 243.081806257995, 6.54576097842719E-05, 2.885,265.259674072266
0.145499131666667, 243.091846105239, 0.00012378368016129, 2.89875,270.214019775391
0.146165166666667, 243.101468841381, 0.00030549955275323, 2.9125,264.619873046875
0.146831751666667, 243.11208172724, 0.00016263322876135, 2.92625,264.619873046875
0.147498481666667, 243.122621768512, 6.51561249792171E-05, 2.93875,272.836395263672
0.14816564, 243.132931584349, 0.000181176797368195, 2.9525,266.47998046875
0.14883225, 243.142758321492, 0.000368535386500371, 2.96625,263.063262939453
0.149498511666667, 243.153133886831, 0.000251113784506209, 2.98,264.231048583984
0.150165708333333, 243.162847244962, 0.000396831465277527, 2.9925,264.231048583984
0.15083173, 243.17253958797, 0.000450681760427568, 3.00625,264.724487304688
0.151498878333333, 243.181870900665, 0.000483570608450138, 3.01875,267.132293701172
0.152166411666667, 243.192351791657, 0.00032356014561721, 3.0325,264.630981445313
0.152832231666667, 243.202135761322, 0.000328931375819202, 3.04625,325.025329589844
0.153499018333333, 243.212470316161, 0.000258733401771259, 3.05875,325.025329589844
0.154165081666667, 243.222357498164, 0.000318673391018723, 3.0725,267.215698242188
0.154833256666667, 243.233305274221, 1.87319567824431E-05, 3.08625,267.792266845703
0.15549894, 243.243562975494, 4.69395399560442E-05, 3.10125,265.388763427734
