Time (min), Depth (µm), Load (N), Position (µm), Acoustic (aJ)
1.15816666666667E-05, 241.046578085107, -0.000757348265461182, 0,294.182830810547
0.000657821666666667, 241.046751380378, -0.000743902940814936, 0.00625000000000105,294.182830810547
0.00132568166666667, 241.047204323124, -0.000557322812533067, 0.0187500000000014,299.055572509766
0.00199266, 241.049713954977, -0.000366109416983134, 0.0325000000000013,297.318450927734
0.00265913, 241.05392872461, -0.000662307039313768, 0.0475000000000007,363.944396972656
0.003325655, 241.059815721033, -0.000581251110661534, 0.0650000000000008,305.929016113281
0.00415898, 241.067586634648, -0.000747322769049479, 0.0775000000000012,312.329223632813
0.00482577166666667, 241.076546614802, -0.000790439603341954, 0.0912500000000011,312.329223632813
0.0054924, 241.086096757699, -0.00113398234758049, 0.10625,317.968872070313
0.00615845, 241.095789120514, -0.000810235609038061, 0.12,326.036987304688
0.00682453833333333, 241.106248471652, -0.000741045584401648, 0.132500000000001,318.367767333984
0.00749105, 241.116226624952, -0.000757495258137717, 0.146250000000001,326.586975097656
0.00815901, 241.127051327434, -0.000941832999011634, 0.16,326.586975097656
0.00882582, 241.137575915417, -0.000696809806270547, 0.172500000000001,325.774780273438
0.00949254, 241.148157741562, -0.00102400037181671, 0.186250000000001,325.834075927734
0.0101591583333333, 241.158050442299, -0.00136005099234322, 0.1975,326.705505371094
0.0108257266666667, 241.166788662214, -0.00103308391555439, 0.211250000000001,338.568267822266
0.0114923783333333, 241.175248724972, -0.00116179695049667, 0.225000000000001,338.568267822266
0.0121602466666667, 241.183572120397, -0.00128501876117843, 0.238750000000001,343.01708984375
0.0128256283333333, 241.191978328379, -0.00116202643899413, 0.25125,351.160461425781
0.0134925483333333, 241.20153760095, -0.000836610284293323, 0.266250000000001,354.411926269531
0.0141590066666667, 241.211987889435, -0.0010133299078691, 0.2775,364.142028808594
0.01482412, 241.222872506862, -0.00107993406238796, 0.292500000000001,364.142028808594
0.0154908916666667, 241.234312348215, -0.00117437231888276, 0.305000000000001,362.753570556641
0.016157655, 241.245529759625, -0.00128337184390735, 0.318750000000001,363.469635009766
0.01682565, 241.256113221812, -0.00148405276390596, 0.333750000000001,367.678924560547
0.01750317, 241.26729090352, -0.00160113088321177, 0.346250000000001,367.679565429688
0.0181698633333333, 241.277969888625, -0.00140140841507688, 0.358750000000001,367.679565429688
0.0188362766666667, 241.288439907889, -0.0011419934451998, 0.372500000000001,364.835205078125
0.0195030583333333, 241.299114844927, -0.00117648871251331, 0.386250000000001,448.015441894531
0.02016967, 241.314841572539, -0.00112928158369302, 0.4025,362.930206298828
0.0210016783333333, 241.325194807594, -0.00101810266806416, 0.41625,367.509460449219
0.0216697616666667, 241.336108622707, -0.000966602754836599, 0.42875,367.026428222656
0.0223363433333333, 241.347045955143, -0.00102073653574136, 0.4425,367.026428222656
0.023001495, 241.357888924558, -0.00119179544364156, 0.45625,364.097229003906
0.0236686683333333, 241.368428191168, -0.000681534573512261, 0.47,363.468872070313
0.0243367783333333, 241.379163504937, -0.000792085020709885, 0.4825,365.185302734375
0.0250030166666667, 241.389709764921, -0.000680438128624701, 0.49625,366.465545654297
0.0256698366666667, 241.399981407485, -0.000382778079788349, 0.50875,366.465545654297
0.0263363416666667, 241.410911231424, -0.000200949712823657, 0.5225,360.503753662109
0.027003165, 241.42253846356, -0.00047258006914502, 0.53625,368.776611328125
0.0276696233333333, 241.433409315886, -0.000488023293478979, 0.55,369.765991210938
0.0283363433333333, 241.444491513817, -0.000922884450837163, 0.5625,369.757110595703
0.02900308, 241.45496761603, -0.000935722306015073, 0.57625,369.757110595703
0.0296696583333333, 241.465782616893, -0.00106187046969643, 0.59,375.369171142578
0.0303364083333333, 241.476004278519, -0.00101441435334018, 0.602500000000001,375.915161132813
0.0310033933333333, 241.486575574378, -0.00110414284635858, 0.616250000000001,374.007232666016
0.03166851, 241.497345337221, -0.000878269191747021, 0.63,372.072387695313
0.0323348383333333, 241.508672204224, -0.000868243695335318, 0.64375,372.072387695313
0.0330036683333333, 241.518988379189, -0.000524495461474793, 0.656250000000001,380.066955566406
0.0336696383333333, 241.529531344735, -0.000447565825599815, 0.67125,377.87060546875
0.0343364166666667, 241.540253691793, -0.000517306322641003, 0.682500000000001,382.656036376953
0.0350033016666667, 241.550579934853, -0.000563462004327085, 0.696250000000001,369.876678466797
0.0356696916666667, 241.561006939406, -0.000638909714657849, 0.710000000000001,369.876678466797
0.036336325, 241.571913072169, -0.000886563775248586, 0.722500000000001,444.11962890625
0.03700303, 241.58299739703, -0.00068799924892304, 0.736250000000001,370.430053710938
0.0376713283333333, 241.593515941836, -0.000470586669315533, 0.750000000000001,369.748168945313
0.038336405, 241.604181746685, -0.000126625446125983, 0.7625,369.883544921875
0.0390029733333333, 241.614631938288, -0.000137423403732888, 0.776250000000001,369.883544921875
0.0396683833333333, 241.624756697897, -0.000127987377696682, 0.78875,363.23974609375
0.0403362766666667, 241.634842974808, -1.88768582024881E-05, 0.8025,364.224578857422
0.0410214183333333, 241.645001705163, -0.000101150725682708, 0.816250000000001,356.764007568359
0.0416683233333333, 241.655642210548, -0.000329263767810908, 0.827500000000001,356.937347412109
0.0423363683333333, 241.666078082347, -0.000633337494500803, 0.841250000000001,356.937347412109
0.04300147, 241.67650964691, -0.000712173534653641, 0.855000000000001,374.875579833984
0.0436696866666667, 241.687096676932, -0.000997684193761957, 0.8675,364.843597412109
0.044334725, 241.697336149086, -0.000764814890585878, 0.882500000000001,361.980163574219
0.045001725, 241.707162148557, -0.000943634408645028, 0.89375,368.848358154297
0.04566969, 241.717194232641, -0.000537264320172661, 0.9075,368.848358154297
0.0463346916666667, 241.726916724362, -0.00040161863353331, 0.92125,365.093017578125
0.0470014266666667, 241.736211856591, -0.00024821083904999, 0.933750000000001,369.669067382813
0.0476681533333333, 241.746307507085, -0.000295014488142042, 0.9475,376.416687011719
0.048334925, 241.756031095441, -0.000207313893235656, 0.96125,378.752349853516
0.0490027333333333, 241.765698586924, -0.000247121893720684, 0.973750000000001,378.752349853516
0.0496696866666667, 241.775238166444, -8.77428991677974E-05, 0.9875,382.294586181641
0.050334785, 241.785891957542, -0.000342959579896261, 1,379.481964111328
0.0510030033333333, 241.795771917497, -0.000508350272477601, 1.0125,376.442260742188
0.0516682, 241.806161216897, -0.000444882460396051, 1.02625,451.023742675781
0.0523363466666667, 241.818156286169, -0.000510876145597769, 1.03875,451.023742675781
0.05300302, 241.831410966515, -0.000799226162069042, 1.0525,378.752563476563
0.0536683866666667, 241.843363780602, -0.000900916554265073, 1.06625,381.790740966797
0.0543347533333333, 241.855823309615, -0.000871224045677198, 1.08125,383.3798828125
0.0550039116666667, 241.86745894913, -0.000966880240978726, 1.0925,375.215515136719
0.0556696516666667, 241.877902517462, -0.000925719308490673, 1.10625,375.215515136719
0.05633511, 241.887495629955, -0.00107707820589908, 1.12,377.108734130859
0.05700158, 241.897217262339, -0.000632598031727489, 1.13375,368.548919677734
0.0576683466666667, 241.906996584917, -0.000600603138798039, 1.1475,374.934936523438
0.05833469, 241.917105979199, -0.000422913063963321, 1.16,370.807922363281
0.0590033583333333, 241.92724580723, -0.000579584694458228, 1.17375,370.807922363281
0.0596702283333333, 241.937196971674, -0.000190966214359008, 1.1875,370.308349609375
0.0603364, 241.947643657662, -0.000489913198545895, 1.2,373.416015625
0.0610014466666667, 241.958563929051, -0.00063778627102476, 1.21375,367.991668701172
0.0616688266666667, 241.969183950001, -0.000772442007430436, 1.2275,374.258575439453
0.0623347933333333, 241.979554643822, -0.000457807311168096, 1.24,374.258575439453
0.0630016716666667, 241.990128878402, -0.000513438016882361, 1.255,372.252960205078
0.0636681516666667, 242.000517578069, -0.000418429789050565, 1.2675,371.657623291016
0.0643348516666667, 242.010622612317, -0.000324458009130198, 1.28,382.120635986328
0.0650020966666667, 242.021042705963, -0.000435128450280083, 1.29375,372.297790527344
0.0656684033333333, 242.030881642564, -0.000501644109280406, 1.3075,372.297790527344
0.06633654, 242.041051214374, -0.000512106083757219, 1.32125,369.888031005859
0.0670033816666667, 242.050965425652, -0.00065900270527953, 1.335,373.227661132813
0.0676696616666667, 242.061019136137, -0.000488866251121134, 1.3475,374.171203613281
0.068336235, 242.07078576483, -0.000446524877872668, 1.36125,452.743286132813
0.0690016883333333, 242.08077303896, -0.000555101424173031, 1.37375,452.743286132813
0.0696700266666667, 242.090421821974, -0.000535572405084467, 1.3875,371.327575683594
0.0703362783333333, 242.100404353576, -0.00058167708929833, 1.40125,369.760711669922
0.0710029666666667, 242.109690207911, -0.000616176856406303, 1.415,376.835083007813
0.07166973, 242.11990281143, -0.000117865886038154, 1.4275,379.913360595703
0.0723348733333333, 242.129911963007, -0.000139553296704326, 1.4425,379.913360595703
0.0730015066666667, 242.140382281247, -0.000274212032980063, 1.455,374.520904541016
0.0736682933333333, 242.15051197844, -0.000317187874357378, 1.46875,375.043060302734
0.0743365933333333, 242.161382119396, -0.000319428761777165, 1.4825,376.104248046875
0.0750018683333333, 242.172103798501, -0.000707186285141391, 1.49375,373.359771728516
0.0756697283333333, 242.182512673651, -0.000620900119181072, 1.5075,373.359771728516
0.0763347016666667, 242.192884177835, -0.000815093865030377, 1.5225,371.414520263672
0.077001835, 242.203851951952, -0.000677972252480663, 1.535,374.541046142578
0.077668145, 242.214219218552, -0.000413447039311524, 1.54875,384.483184814453
0.0783347183333333, 242.224514673403, -0.00029733337158829, 1.56125,383.451293945313
0.0790030483333333, 242.235554706173, -0.000328020330225558, 1.57375,383.451293945313
0.0796696083333333, 242.246171986967, 2.48309463898876E-05, 1.5875,377.263122558594
0.0803362833333333, 242.25667157728, 9.016466479041E-05, 1.60125,377.930847167969
0.0810014466666667, 242.267243484185, -6.65024659950502E-05, 1.61375,381.738433837891
0.0816684216666667, 242.277738108265, -0.000262242634180418, 1.62625,380.147979736328
0.0823350483333333, 242.288297940596, -0.000160436747762827, 1.64,380.147979736328
0.0830029733333333, 242.298622211581, -0.000250493724289306, 1.65375,378.749786376953
0.083668165, 242.308563478352, -0.000150978222881826, 1.6675,385.220642089844
0.084334745, 242.318073755037, -0.000188399843216189, 1.68,372.627044677734
0.0850014066666667, 242.328022760096, 4.37404966148901E-05, 1.69375,448.911987304688
0.08566826, 242.338084384758, -0.000111501705774934, 1.70625,448.911987304688
0.0863347583333333, 242.348230021074, -0.00045253957581369, 1.72,369.166656494141
0.087001435, 242.357840040978, -0.000319620752185798, 1.7325,366.487884521484
0.087668105, 242.367911490058, -0.000168846825400935, 1.74625,362.861877441406
0.0883347533333333, 242.377015609202, -0.000359685239765038, 1.75875,361.380523681641
0.0890014616666667, 242.386065322457, -5.16577116680239E-05, 1.7725,361.380523681641
0.0896683966666667, 242.395091023259, 4.49196801729343E-06, 1.78625,369.8515625
0.090334775, 242.404689090726, -0.000400006214459742, 1.79875,363.82861328125
0.091001625, 242.414190853597, -0.000774895884136739, 1.8125,363.509368896484
0.0916682416666667, 242.423972235884, -0.000834954367475824, 1.825,369.979827880859
0.0923348666666667, 242.433345576598, -0.00100847465168308, 1.83875,369.979827880859
0.093169675, 242.442829033374, -0.000916641764344336, 1.855,360.976348876953
0.0938347633333333, 242.452224129743, -0.00054532491516976, 1.86875,373.808807373047
0.0945014516666667, 242.462061174866, -0.000416932864177302, 1.88125,365.668151855469
0.0951680783333333, 242.472578053351, -0.000579790184016458, 1.895,363.013732910156
0.095834755, 242.482799813309, -0.000559091223744574, 1.90875,356.510894775391
0.0965032016666667, 242.492760605603, -0.000431987608048309, 1.92125,356.510894775391
0.09716841, 242.50244973472, -0.000577400804102003, 1.935,360.896392822266
0.097834755, 242.511675208819, -0.000469340231838868, 1.94875,357.696533203125
0.09850153, 242.519879955553, -0.000396553387867074, 1.96125,358.121002197266
0.0991682333333333, 242.528704898328, -0.000351263162731704, 1.975,355.011016845703
0.099834875, 242.537297005891, -0.000443324038601001, 1.98875,355.011016845703
0.100501633333333, 242.546271284234, -0.00041578692176318, 2.00125,363.447570800781
0.10116831, 242.555394455368, -0.000756379314169153, 2.015,367.236724853516
0.10183475, 242.564510622338, -0.000863478434656004, 2.02875,428.882568359375
0.102501405, 242.573018709055, -0.000990231067978144, 2.04125,363.0234375
0.103168068333333, 242.582442412765, -0.00111403184962834, 2.055,363.0234375
0.103834826666667, 242.590999118834, -0.0013452782343663, 2.06875,358.352111816406
0.104501418333333, 242.599253748631, -0.00129685916639438, 2.0825,360.397247314453
0.105168106666667, 242.607652073069, -0.001014219363104, 2.09625,365.975769042969
0.105834898333333, 242.615833126035, -0.000910678063854278, 2.10875,359.676818847656
0.106501578333333, 242.623433589741, -0.000764649898667724, 2.1225,359.676818847656
0.107168765, 242.631671437042, -0.000645138901575997, 2.13625,359.856109619141
0.107834801666667, 242.640300894918, -0.000447277839944357, 2.15,361.230163574219
0.10850305, 242.64815453527, -0.000731056086048098, 2.1625,361.629333496094
0.109169816666667, 242.65599151445, -0.000610604636185495, 2.17625,353.896820068359
0.109835341666667, 242.664197271878, -0.000715117886618556, 2.18875,353.896820068359
0.110501718333333, 242.671793855816, -0.00080664178946647, 2.2025,361.126831054688
0.111168688333333, 242.678778265978, -0.000848693677198837, 2.21625,356.490814208984
0.111834755, 242.686562308666, -0.000786536799322038, 2.22875,359.257751464844
0.112503146666667, 242.694491334086, -0.000892855959012925, 2.2425,356.846313476563
0.113169603333333, 242.701858325741, -0.000591333604200561, 2.25625,356.846313476563
0.11383493, 242.70973725075, -0.000618996714688255, 2.26875,354.128753662109
0.11450347, 242.717168388615, -0.000498311276639998, 2.2825,349.380645751953
0.115169153333333, 242.724726041325, 3.68108447453718E-05, 2.295,353.727081298828
0.115834813333333, 242.732226568989, 7.50859222139673E-05, 2.30875,344.618103027344
0.116502995, 242.740429491028, -0.000134897530527704, 2.3225,344.618103027344
0.117168148333333, 242.747636973966, 7.1406607036407E-05, 2.33625,340.184051513672
0.117837808333333, 242.755555391499, 4.37059984173776E-05, 2.34875,343.466827392578
0.118502958333333, 242.763426271859, -0.000555293414475394, 2.3625,408.622467041016
0.11916817, 242.771307834655, -0.00062613335621044, 2.375,342.511016845703
0.119834753333333, 242.778670037311, -0.00068347847583644, 2.38875,342.511016845703
0.120501413333333, 242.786822064334, -0.000753373465069909, 2.40125,344.098327636719
0.121168138333333, 242.794446500462, -0.000899865106939578, 2.415,331.206573486328
0.121834825, 242.802355902085, -0.000749866641198723, 2.42875,331.563354492188
0.1225017, 242.810064195979, -0.000775195868953628, 2.44125,326.485137939453
0.123168403333333, 242.817965534673, -0.000451062149851399, 2.455,326.485137939453
0.123834791666667, 242.826382676181, -0.000370426200117095, 2.4675,328.287170410156
0.124501585, 242.835245052031, -0.000316248921383381, 2.48125,331.80322265625
0.125168303333333, 242.844460126336, -0.000276445420692817, 2.495,326.647766113281
0.125834778333333, 242.853976146924, -0.000289616259130758, 2.5075,328.282073974609
0.126501678333333, 242.863448149638, -0.00088748472885344, 2.52125,328.282073974609
0.127168251666667, 242.872561347724, -0.000858855666858762, 2.53375,324.088256835938
0.12783626, 242.882385229148, -0.00106202796169501, 2.5475,337.147766113281
0.128501621666667, 242.891360238273, -0.000913656914250501, 2.56,323.009124755859
0.129168186666667, 242.900750468088, -0.000610855123688364, 2.5725,325.698944091797
0.12983485, 242.910236482324, -0.00032153165608809, 2.58625,325.698944091797
0.130501526666667, 242.919762057162, -0.00029299258957886, 2.6,325.423736572266
0.131168325, 242.928977248634, -0.000239695766618638, 2.6125,336.655242919922
0.131835043333333, 242.938313404464, -0.000352242613452048, 2.62625,339.673675537109
0.13250169, 242.947618598722, -0.000553694494721455, 2.63875,337.335021972656
0.133168298333333, 242.956456923457, -0.000689997148376958, 2.6525,337.335021972656
0.133835153333333, 242.965613157982, -0.000833502440228388, 2.66625,338.455017089844
0.134501423333333, 242.974391107516, -0.000565482402625798, 2.67875,414.902374267578
0.135168073333333, 242.983673690269, -0.000557003328528903, 2.6925,350.743194580078
0.135834843333333, 242.993260828108, -0.000867159249694205, 2.70625,352.971130371094
0.136503003333333, 243.003341613288, -0.000747348267679317, 2.71875,352.971130371094
0.137168201666667, 243.013066271159, -0.000701495570850218, 2.73125,351.775421142578
0.137835001666667, 243.022107220691, -0.000712073039569844, 2.745,354.253265380859
0.138501898333333, 243.030259703662, -0.00066290550921443, 2.75875,334.9501953125
0.13916819, 243.038900463246, -0.000373424549551814, 2.77125,329.463623046875
0.1398348, 243.047153381717, -0.000172976117856964, 2.785,329.463623046875
0.140501958333333, 243.055903337309, 0.000144173951990959, 2.79875,330.029815673828
0.141168251666667, 243.065511072102, 0.000277619249211919, 2.8125,332.993041992188
0.141834696666667, 243.075676744804, 0.000172011053773193, 2.82625,331.929107666016
0.142504578333333, 243.085193380231, 0.000491352513556849, 2.83875,329.237335205078
0.143170016666667, 243.095257097841, 0.000353431441215182, 2.8525,329.237335205078
0.143836318333333, 243.104536869995, 0.000288243215588047, 2.86625,323.589721679688
0.144502928333333, 243.114659272673, 0.000151754571264032, 2.87875,317.475402832031
0.145169643333333, 243.12436571591, 0.000384497880832746, 2.8925,325.770812988281
0.14583626, 243.134320046501, 0.000335063363891043, 2.905,326.979278564453
0.14650157, 243.143694594442, 0.000389185145421836, 2.91875,326.979278564453
0.147168158333333, 243.153725421988, 0.00012973567730474, 2.9325,331.578308105469
0.14783483, 243.163299244345, -1.0235792078754E-05, 2.94625,327.318511962891
0.148501501666667, 243.17358717765, -0.000223540078044353, 2.95875,319.582366943359
0.14916997, 243.183638765971, -0.000474624466319201, 2.9725,318.974151611328
0.14983493, 243.193637781666, -0.000488039792477382, 2.98625,318.974151611328
0.150501596666667, 243.203279034247, -0.000442455582137719, 2.99875,319.643493652344
0.151168145, 243.212463802986, 9.47634339247248E-05, 3.0125,381.966094970703
0.151834823333333, 243.221865011628, 5.62903663923911E-05, 3.02625,323.827880859375
0.152501418333333, 243.230782576616, 0.00022202454172584, 3.04,316.358032226563
0.153168251666667, 243.240536742231, 0.000161699071821722, 3.0525,316.358032226563
0.15383483, 243.249858774574, 0.000245855344746841, 3.06625,328.742584228516
0.154501425, 243.259464614608, -0.000170027265885044, 3.08,330.230438232422
0.155168096666667, 243.26870543607, 4.65633549794445E-05, 3.09375,318.190673828125
0.155834875, 243.278812702313, -0.00014465304044055, 3.10625,327.463928222656
0.156501695, 243.288386202105, -5.03707761687089E-05, 3.12,327.463928222656
