Time (min), Depth (µm), Load (N), Position (µm), Acoustic (aJ)
9.655E-06, 241.056584068273, -0.000873517217229781, 0,253.40934753418
0.000664856666666667, 241.056975024255, -0.00120659798690648, 0.0049999999999998,257.089965820313
0.001331505, 241.057501644915, -0.00111637601867439, 0.0175000000000002,258.852416992188
0.00199832, 241.059350677227, -0.00111838591775733, 0.0325000000000013,258.852416992188
0.00266468666666667, 241.062621187852, -0.00078495416568525, 0.0462500000000012,260.826568603516
0.003331495, 241.068438186184, -0.000709921934435443, 0.0612500000000005,257.942810058594
0.00416473833333333, 241.075587150021, -0.000404379781542218, 0.0775000000000012,316.152191162109
0.00483143166666667, 241.083904588709, -0.00015301790716775, 0.0912500000000011,272.622863769531
0.00549798166666667, 241.092944674982, 7.3482715950645E-05, 0.10625,269.720916748047
0.00616536166666667, 241.103010762133, -0.000350739475808633, 0.118750000000001,269.720916748047
0.00683142833333333, 241.113223131881, -0.000602998305125027, 0.132500000000001,276.057281494141
0.00749821666666667, 241.123730089704, -0.000684330219909968, 0.146250000000001,276.061157226563
0.00816471, 241.134817508272, -0.0008137287203683, 0.158750000000001,276.759979248047
0.00883148333333333, 241.146017582764, -0.000911538807452972, 0.172500000000001,279.567962646484
0.00949833166666667, 241.157158219514, -0.00103611505014717, 0.185000000000001,279.567962646484
0.010164915, 241.16716331376, -0.000667588060851501, 0.20125,285.800231933594
0.0109982266666667, 241.180642566656, -0.000539137512786062, 0.215,288.555938720703
0.0116647166666667, 241.190105507476, -0.000267262668786968, 0.2275,291.312530517578
0.012331975, 241.198914920877, -0.000147681175227033, 0.24125,301.884338378906
0.0129985616666667, 241.207846898432, -0.000345066760759077, 0.25375,302.464294433594
0.0136649183333333, 241.218530924991, -0.000513563797332171, 0.2675,302.464294433594
0.014331585, 241.229854258341, -0.000707904535815504, 0.28125,304.5634765625
0.0149980083333333, 241.241016645665, -0.00100583907086016, 0.295,313.427795410156
0.0156650366666667, 241.252486687648, -0.000873116737350349, 0.307500000000001,314.718353271484
0.0163314033333333, 241.263940604072, -0.000850185889141335, 0.32125,317.736755371094
0.01699831, 241.275090951975, -0.000962224261580786, 0.335,317.736755371094
0.0176652433333333, 241.286422547063, -0.000845413128861259, 0.347500000000001,321.053680419922
0.018331435, 241.297410472907, -0.000814018205778128, 0.36125,327.021942138672
0.018998065, 241.307819424015, -0.000672245326910018, 0.375,325.246826171875
0.0196646883333333, 241.318755434083, -0.000457118632496904, 0.38875,325.615570068359
0.02033145, 241.329532890798, -0.00024263240595276, 0.401250000000001,325.615570068359
0.020998175, 241.340371930999, -0.000245915741066606, 0.415,386.131072998047
0.02166479, 241.350884604574, -6.90926226857489E-05, 0.427500000000001,318.514862060547
0.02233137, 241.362249335128, -0.000284396308199702, 0.441250000000001,320.944458007813
0.0229985133333333, 241.373342038932, -0.000481117427072324, 0.45625,319.017120361328
0.0236646966666667, 241.384713221608, -0.000909044432724018, 0.46875,319.017120361328
0.0243313933333333, 241.395895851864, -0.00106935788035017, 0.4825,322.173309326172
0.0249980183333333, 241.407152999027, -0.00130809038908129, 0.495000000000001,323.486785888672
0.0256646883333333, 241.417905862774, -0.00113975534440751, 0.50875,319.666198730469
0.0263314116666667, 241.428979540187, -0.00111674500020512, 0.5225,315.541290283203
0.026998315, 241.439948289501, -0.00114737496171506, 0.53625,315.541290283203
0.0276649433333333, 241.450590022347, -0.000882999740986251, 0.55,319.050262451172
0.0283313733333333, 241.461416666823, -0.000644243233507188, 0.5625,318.705261230469
0.0289980766666667, 241.4724929691, -0.000937935981616792, 0.57625,315.925750732422
0.0296651866666667, 241.483618024875, -0.000975488095395492, 0.588750000000001,317.513549804688
0.0303314583333333, 241.494467581209, -0.000703097277316661, 0.602500000000001,317.513549804688
0.030998705, 241.505482904681, -0.000782771775317191, 0.615000000000001,322.950714111328
0.0316647766666667, 241.51671619046, -0.000880175382824818, 0.628750000000001,322.417663574219
0.03233137, 241.52727129753, -0.000978321453060836, 0.642500000000001,328.316040039063
0.0329982266666667, 241.537716257133, -0.0008861750814793, 0.656250000000001,329.897857666016
0.033664725, 241.548376198603, -0.00110033732430983, 0.668750000000001,329.897857666016
0.0343322666666667, 241.559201165595, -0.000979749381326533, 0.681250000000001,322.234924316406
0.0349980533333333, 241.569737639794, -0.000923316215907746, 0.695000000000001,322.398803710938
0.0356649616666667, 241.580808668046, -0.000877670508646295, 0.708750000000001,318.860900878906
0.03633142, 241.591611776348, -0.000696562105522691, 0.722500000000001,320.250366210938
0.03699804, 241.602761315517, -0.000782179305029125, 0.735000000000001,320.250366210938
0.0376647533333333, 241.613853508802, -0.000913820192852901, 0.747500000000001,386.832458496094
0.03833471, 241.624820909831, -0.000794214700502514, 0.761250000000001,317.622894287109
0.0390013783333333, 241.636215786157, -0.00077948844018209, 0.775,317.174224853516
0.039668365, 241.647398594455, -0.00107421013662362, 0.78875,310.088623046875
0.04033476, 241.658305692514, -0.000796331094218084, 0.801250000000001,310.088623046875
0.0410026783333333, 241.668870702531, -0.000503931281177884, 0.815000000000001,313.555267333984
0.0416680683333333, 241.679509904029, -0.000281934931807619, 0.827500000000001,313.039489746094
0.0423347066666667, 241.689321479833, 3.07768610084243E-05, 0.841250000000001,307.423431396484
0.0430013316666667, 241.699878789159, 0.000439003856189582, 0.855000000000001,318.990081787109
0.043668, 241.710105832724, 0.000524000086929305, 0.8675,318.990081787109
0.044334645, 241.720072790931, 0.000398798375695182, 0.881250000000001,308.070037841797
0.0450020466666667, 241.730145792561, 0.000180655332797018, 0.89375,312.484313964844
0.045668295, 241.740919625735, -3.15540081416612E-05, 0.906250000000001,315.275085449219
0.0463346483333333, 241.750591989777, -0.000387198144484818, 0.920000000000001,315.251098632813
0.04700275, 241.760497125542, -0.000409409028852743, 0.933750000000001,315.251098632813
0.0476686466666667, 241.77044148207, -0.000400307486022225, 0.946250000000001,314.413543701172
0.048335295, 241.78061887266, -0.00068102288600567, 0.960000000000001,322.649505615234
0.0490030416666667, 241.790186985582, -0.000536275656514547, 0.9725,319.418029785156
0.04966846, 241.799973527631, -0.000282416407604828, 0.986250000000001,319.951324462891
0.0503363383333333, 241.809895503317, -0.000164258342558633, 1,319.951324462891
0.051001365, 241.819961575352, -0.000245645754525241, 1.0125,327.116760253906
0.0516681, 241.82980253916, 0.000175533090088475, 1.02625,323.335876464844
0.0523347916666667, 241.840927697992, 0.000252521223078942, 1.0375,322.100830078125
0.053001345, 241.853384385935, 6.39356955298516E-05, 1.0525,386.015625
0.0536679716666667, 241.865653474348, -0.000211337977762139, 1.06625,386.015625
0.05433477, 241.877523555248, -0.000216529217035741, 1.07875,325.466735839844
0.05500183, 241.889788067115, -0.000785126657012879, 1.0925,318.988952636719
0.05566872, 241.900657948039, -0.000855810606609986, 1.10625,323.991394042969
0.0563364516666667, 241.910316155768, -0.000573314796083571, 1.12,323.713653564453
0.05700132, 241.920310040431, -0.000398059098980422, 1.1325,323.713653564453
0.0576679983333333, 241.930580815298, -0.000312131415058752, 1.14625,325.399475097656
0.0583352283333333, 241.940874693756, -0.000158078652954506, 1.15875,319.255096435547
0.05900139, 241.951645243005, -0.000558680031194255, 1.1725,324.549713134766
0.0596682133333333, 241.961731450227, -0.000786772074359556, 1.18625,331.919738769531
0.0603346766666667, 241.972063551113, -0.00100722650114571, 1.2,331.919738769531
0.0610013016666667, 241.982268539355, -0.00130278815535933, 1.2125,320.849426269531
0.06166814, 241.991826547774, -0.00100418915367651, 1.22625,325.454772949219
0.0623347683333333, 242.001281311293, -0.000725137170153837, 1.23875,322.906951904297
0.0630013166666667, 242.01169142086, -0.00100070182884382, 1.25375,319.033355712891
0.0636680516666667, 242.021402692229, -0.00129004629538574, 1.2675,319.033355712891
0.0643347, 242.031385031533, -0.00117782043239588, 1.27875,323.589385986328
0.0650019683333333, 242.041627733394, -0.00157719487221872, 1.2925,318.104675292969
0.0656695016666667, 242.051969837988, -0.0015808606880979, 1.30625,320.127838134766
0.0663346666666667, 242.062050062073, -0.00135530951725429, 1.32,320.448120117188
0.06700169, 242.072316768575, -0.00107986485255908, 1.33375,320.448120117188
0.0676685283333333, 242.082780562951, -0.00111172175240092, 1.34625,328.259613037109
0.06833466, 242.092311765833, -0.0006967540958038, 1.36,318.106353759766
0.0690017783333333, 242.101789331926, -0.00035877307225149, 1.37375,324.509185791016
0.0696680266666667, 242.111424395498, -0.000559205004777904, 1.3875,387.4443359375
0.0703361783333333, 242.12067423093, -0.000457528111880247, 1.4,387.4443359375
0.07100281, 242.129906156421, -0.000278953081520082, 1.41375,319.180755615234
0.07166971, 242.139880354108, -0.000729878432063953, 1.4275,318.472717285156
0.0723352566666667, 242.14972035928, -0.00101337919213184, 1.44,330.43408203125
0.073001805, 242.15956450385, -0.000881142834234952, 1.455,328.973022460938
0.0736683033333333, 242.169547854642, -0.000934573150467064, 1.4675,328.973022460938
0.0743351116666667, 242.179298990854, -0.00105018134360264, 1.48125,322.763885498047
0.0750027733333333, 242.189608455056, -0.000969261908071102, 1.49375,323.255920410156
0.0756683633333333, 242.199613598047, -0.000955993574568203, 1.50625,323.132507324219
0.0763351583333333, 242.210170395904, -0.000778930468240316, 1.52,324.339416503906
0.077001325, 242.220643537669, -0.00082647208028755, 1.53375,324.339416503906
0.07766851, 242.232096795131, -0.000703134775405489, 1.54625,331.692108154297
0.0783360583333333, 242.243070119768, -0.000803611728546744, 1.56,331.597351074219
0.07900294, 242.254324686354, -0.000962746235358137, 1.5725,330.045471191406
0.0796680333333333, 242.264840560288, -0.00110063880917865, 1.5875,327.812805175781
0.0803352816666667, 242.275399435374, -0.00132692044329166, 1.6,327.812805175781
0.0810013083333333, 242.284790326958, -0.0012543540882284, 1.61375,325.561370849609
0.081668645, 242.294768250631, -0.00121486707165069, 1.62625,331.151519775391
0.0823347483333333, 242.304532294975, -0.00135776789390384, 1.64,327.672271728516
0.08300133, 242.314774258943, -0.00135552550651714, 1.6525,320.268768310547
0.0836696916666667, 242.325012017184, -0.0010377799665536, 1.66625,320.268768310547
0.08433469, 242.335814204972, -0.00137541900727821, 1.67875,325.055847167969
0.0850013333333333, 242.346671722506, -0.00144210265781169, 1.6925,320.658905029297
0.08566865, 242.357552570112, -0.00165947773926661, 1.70625,323.278259277344
0.0863346533333333, 242.367554344038, -0.00155376004938896, 1.71875,385.427734375
0.0870013116666667, 242.377695107518, -0.00141476053116755, 1.7325,385.427734375
0.08766803, 242.388043459693, -0.00109135127567962, 1.745,313.922027587891
0.0883346883333333, 242.397727193503, -0.00102310470362038, 1.75875,318.402618408203
0.0890019066666667, 242.407882610133, -0.000782516788104875, 1.77125,315.205963134766
0.089668015, 242.418114783116, -0.00115651250264624, 1.785,320.710540771484
0.09033479, 242.428637562158, -0.00131692194547671, 1.79875,320.710540771484
0.0910016516666667, 242.437970036258, -0.00132318563086867, 1.81125,315.98193359375
0.0916682933333333, 242.44816945263, -0.00107555856893845, 1.82375,323.169891357422
0.09233534, 242.457340984582, -0.000773464742779664, 1.8375,319.882965087891
0.0930014233333333, 242.467284748433, -0.000494321263868391, 1.85125,323.257995605469
0.093668265, 242.476918281678, -0.000373259344688646, 1.86375,323.257995605469
0.0943348116666667, 242.487211609043, -0.00033635369843402, 1.8775,324.754333496094
0.09500133, 242.497991426665, -0.000180694517038836, 1.89,320.317047119141
0.095668645, 242.509422763502, -0.000308212111997925, 1.90375,308.192840576172
0.0963349566666667, 242.520349212157, -0.000396883158141998, 1.9175,307.651428222656
0.097002055, 242.530360697165, -0.000188360632002895, 1.93125,307.651428222656
0.0976684383333333, 242.540439371585, -0.000191799959275934, 1.94375,306.643371582031
0.098335235, 242.544798190154, -0.000355182252762501, 1.9575,309.822296142578
0.099001345, 242.558443086512, -0.000524201263091691, 1.97125,303.178833007813
0.0996681333333333, 242.566842482302, -0.000764961669934825, 1.985,306.236755371094
0.10033506, 242.57611190892, -0.000938595948460495, 1.9975,306.236755371094
0.101001395, 242.584778742755, -0.00118665798851017, 2.01125,308.959991455078
0.101668688333333, 242.593099574731, -0.00116259319726101, 2.025,309.899566650391
0.102334741666667, 242.601226697036, -0.00100183577194773, 2.0375,316.002075195313
0.103001548333333, 242.609721690077, -0.000768478993213072, 2.05125,375.354522705078
0.103668126666667, 242.617831539005, -0.00106622753758922, 2.065,375.354522705078
0.104335103333333, 242.626282913144, -0.00116761794488334, 2.0775,310.538452148438
0.10500207, 242.634460301959, -0.00121025030350855, 2.09125,307.203094482422
0.105669456666667, 242.642726158955, -0.00134311063008471, 2.10375,315.068511962891
0.106335415, 242.650972034769, -0.00134195268825411, 2.1175,309.972259521484
0.107002091666667, 242.65951070564, -0.00112386064278566, 2.13125,309.972259521484
0.107668758333333, 242.667869161389, -0.0011393473648848, 2.145,313.373168945313
0.1083349, 242.675751272428, -0.00109877590272974, 2.1575,319.255249023438
0.1090015, 242.683545675904, -0.000709915934801593, 2.17125,310.161529541016
0.109668728333333, 242.691323875946, -0.00066674960300381, 2.185,310.261779785156
0.110334861666667, 242.698807575863, -0.000625683165731907, 2.1975,310.261779785156
0.111001498333333, 242.706389153482, -0.000446328174597031, 2.21125,307.372497558594
0.111668198333333, 242.71439484736, -0.000679386468311683, 2.225,314.998199462891
0.1123348, 242.722377452187, -0.00106061331969766, 2.23875,307.842437744141
0.113001615, 242.729920439346, -0.000905705600534776, 2.25125,311.251495361328
0.113668135, 242.7375920774, -0.00115480258863524, 2.26625,311.251495361328
0.114335373333333, 242.745070142647, -0.00101753548341841, 2.2775,304.458129882813
0.11500201, 242.752794889224, -0.00101773947317976, 2.29125,306.915771484375
0.115668636666667, 242.76042024469, -0.000766457094819923, 2.305,298.202423095703
0.116335488333333, 242.768244964155, -0.000855900602180452, 2.3175,291.604949951172
0.11700156, 242.77573265376, -0.000537772581430318, 2.33125,291.604949951172
0.117668203333333, 242.783602741375, -0.000775231654088022, 2.345,292.823974609375
0.118334876666667, 242.791252135682, -0.000517108119313438, 2.3575,293.938171386719
0.119001506666667, 242.79869994167, -0.000566920617289778, 2.37125,300.325988769531
0.119668761666667, 242.806443562115, -0.000207997645605986, 2.385,351.561553955078
0.12033481, 242.814456919043, -0.000584322743191949, 2.3975,351.561553955078
0.121001646666667, 242.822131935983, -0.000120424544316384, 2.41125,289.822662353516
0.121669541666667, 242.829749194663, -0.000311177463010755, 2.42375,294.098022460938
0.12233542, 242.837314152704, -0.000400434979681519, 2.4375,283.861206054688
0.123002203333333, 242.8449285267, -0.000685623154979372, 2.45,283.428161621094
0.123670328333333, 242.85240122006, -0.000398191092349163, 2.46375,283.428161621094
0.124335911666667, 242.85983426661, -0.000792224300500579, 2.47625,280.966674804688
0.12500308, 242.867314470178, -0.000519218513288888, 2.49,287.387664794922
0.125669701666667, 242.874403702244, -0.000467076632310461, 2.50375,288.172698974609
0.126337295, 242.880943794371, -0.000201030495562624, 2.51625,280.953216552734
0.127003105, 242.887519197523, -0.000283203868065317, 2.53,280.953216552734
0.127669403333333, 242.894193236323, -3.71022295082545E-05, 2.5425,274.224670410156
0.12833729, 242.90099134197, -0.000228158132974592, 2.55625,279.644714355469
0.129004006666667, 242.908320734447, -0.000397523625947205, 2.57,293.591766357422
0.129670788333333, 242.915718117591, -0.00059143538596619, 2.5825,282.088226318359
0.130336578333333, 242.923233585311, -0.000564249251502494, 2.59625,282.088226318359
0.131003335, 242.930871638168, -0.00109428812821381, 2.60875,286.767517089844
0.1316702, 242.938907979471, -0.00129909834079597, 2.6225,289.078765869141
0.132336805, 242.947097781247, -0.00156583744274563, 2.635,285.984222412109
0.133002723333333, 242.955558444197, -0.00179002518200912, 2.64875,296.374603271484
0.133670671666667, 242.964288735541, -0.00190934868852919, 2.6625,296.374603271484
0.134341906666667, 242.973508226842, -0.00166290506710192, 2.675,296.355834960938
0.135002733333333, 242.98212797407, -0.00144455503461485, 2.6875,297.292236328125
0.13566936, 242.991278362879, -0.00135404208100602, 2.70125,355.965789794922
0.1363359, 243.000524522663, -0.00134422507408637, 2.715,299.848693847656
0.137003305, 243.009888398266, -0.00131936082298149, 2.7275,299.848693847656
0.137669353333333, 243.017798143418, -0.00113143526229736, 2.74,308.009704589844
0.13833599, 243.026069772891, -0.00107947637213863, 2.75375,296.760223388672
0.139003736666667, 243.033929330834, -0.000592941310258348, 2.7675,282.970825195313
0.139671046666667, 243.04226319912, -0.00039306434986741, 2.78125,288.981018066406
0.140337395, 243.050742502697, -0.000379295041486298, 2.795,288.981018066406
0.141004273333333, 243.060461639271, -0.000621751863127075, 2.8075,283.615142822266
0.141669801666667, 243.070489406208, -0.000699038481116298, 2.82125,279.405731201172
0.142337235, 243.080794842398, -0.000681967838549755, 2.83375,282.19189453125
0.143003185, 243.09074154443, -0.000772788276725016, 2.8475,280.306915283203
0.143669483333333, 243.101125089876, -0.000830565374664172, 2.86125,280.306915283203
0.144337383333333, 243.111049633262, -0.000535756682628512, 2.875,279.954132080078
0.145170833333333, 243.12134940139, -0.000218146135903772, 2.89125,274.172210693359
0.145837515, 243.131307379864, -0.000301009473738234, 2.905,284.129547119141
0.146503335, 243.141753378321, -0.000271697946012549, 2.91875,278.825531005859
0.147169641666667, 243.151565302632, -4.57597946516456E-05, 2.93125,282.387664794922
0.147836441666667, 243.16183224384, -0.000252576906404179, 2.94625,282.387664794922
0.148503198333333, 243.171437844785, -0.000405360732208219, 2.9575,278.845886230469
0.149171095, 243.181839130336, -0.00064542067429127, 2.9725,281.221130371094
0.149835916666667, 243.191416887002, -0.000918700947690011, 2.985,279.504089355469
0.150504086666667, 243.201647258159, -0.00106303269805767, 2.99875,274.388702392578
0.151170696666667, 243.211621942995, -0.000900847344457443, 3.0125,274.388702392578
0.151837411666667, 243.221880900193, -0.00103979736515229, 3.025,281.007873535156
0.152504073333333, 243.231743789529, -0.00099472162924909, 3.03875,339.828125
0.153169241666667, 243.241914284349, -0.000536968621716377, 3.0525,273.903411865234
0.15383643, 243.251244698629, -0.000564028762508945, 3.06625,281.624816894531
0.154504241666667, 243.261344914897, -0.00056949148812079, 3.07875,281.624816894531
0.155169526666667, 243.270941437962, -0.000525411702212644, 3.0925,277.414337158203
0.155837316666667, 243.280744786675, -0.00035056248468654, 3.105,283.532623291016
0.156504556666667, 243.290328469801, -0.000618164043338113, 3.11875,278.664245605469
0.157169575, 243.300986956892, -0.000654136736465134, 3.1325,279.001251220703
