Time (min), Depth (µm), Load (N), Position (µm), Acoustic (aJ)
9.54833333333333E-06, 241.217933587513, 0.000351486454994717, 0,231.49348449707
0.000664713333333333, 241.217325629964, 0.000691745864119404, 0.00625000000000105,231.49348449707
0.00133075666666667, 241.218216549228, 0.000508366575087948, 0.0187500000000014,240.954010009766
0.00199743166666667, 241.220360216975, 0.000190064563085782, 0.0325000000000013,236.780792236328
0.00266400166666667, 241.224231487014, 0.000138302163045141, 0.0475000000000007,247.581024169922
0.00333079833333333, 241.231412106293, -0.000173281686407111, 0.0612500000000005,248.454071044922
0.00399800166666667, 241.240172225753, -0.000565777471747631, 0.0750000000000004,248.454071044922
0.00466409833333333, 241.250472988687, -0.00043397759193711, 0.0887500000000003,299.067718505859
0.00533069166666667, 241.260863055972, -0.000393245637870896, 0.1025,255.65007019043
0.00599905, 241.271279406056, -7.00603827907015E-06, 0.11625,257.580200195313
0.00666401333333333, 241.281194415472, 4.57718107526089E-05, 0.13,264.341094970703
0.00733084166666667, 241.291379255604, 0.000189859073421282, 0.1425,264.341094970703
0.007997435, 241.301118815737, 0.000286529217768191, 0.15625,259.143646240234
0.00866393333333333, 241.311267637316, 0.000247667669772906, 0.17,256.035217285156
0.00933069333333333, 241.321413426349, 6.54328232524223E-05, 0.1825,256.074798583984
0.00999761, 241.331163140543, 0.000285138787655084, 0.195000000000001,265.230194091797
0.010664195, 241.339488400733, 0.000466020702130034, 0.208750000000001,265.230194091797
0.0113316, 241.348083537636, 0.000640616432368225, 0.2225,267.444396972656
0.0119973666666667, 241.356950554406, 0.000799287462453995, 0.23625,270.257171630859
0.0126639833333333, 241.365901394057, 0.00050691764790186, 0.248750000000001,276.399658203125
0.0133309016666667, 241.375165570003, 0.000360186018042654, 0.262500000000001,276.149353027344
0.0139975166666667, 241.385436784937, 0.000247853660420164, 0.2775,276.149353027344
0.0148307433333333, 241.401047421255, 4.29909504626328E-05, 0.292500000000001,270.166748046875
0.0154973283333333, 241.411492542701, 0.000216751222638177, 0.306250000000001,275.487213134766
0.016164095, 241.422023785571, 0.000185182308303014, 0.318750000000001,278.890319824219
0.01683188, 241.432589127508, 0.000389421049645027, 0.332500000000001,275.347717285156
0.0174973466666667, 241.44326560622, 0.000285594764716183, 0.34875,275.303070068359
0.01833224, 241.453636846877, 0.000295491267607952, 0.3625,281.772735595703
0.0189973433333333, 241.464359065042, 0.000270552020304164, 0.37625,281.772735595703
0.0196642416666667, 241.475219856855, 0.000207235700629852, 0.38875,275.243011474609
0.02033085, 241.485347531541, 0.000276746709152324, 0.4025,277.446655273438
0.0209974383333333, 241.495798623759, 0.000112431462538152, 0.417500000000001,334.302154541016
0.02166414, 241.506599145587, 0.000136920732478454, 0.42875,281.116882324219
0.0223306766666667, 241.517274129879, 9.48808440988045E-05, 0.443750000000001,281.116882324219
0.0229973483333333, 241.527520374158, 0.000135542301696811, 0.45625,282.467010498047
0.0236639933333333, 241.538476686978, 3.64797775441316E-05, 0.47,285.942443847656
0.0243306533333333, 241.548641103654, 0.000255864758081988, 0.4825,279.916870117188
0.02499873, 241.559104499897, 0.000213424389822906, 0.49625,274.670013427734
0.0256640216666667, 241.568972153042, 0.000485413228119156, 0.51,274.670013427734
0.0263307016666667, 241.579984081062, 0.000603778282754254, 0.5225,285.306182861328
0.02699764, 241.590636835328, 0.000540608955650206, 0.53625,277.673400878906
0.0276640066666667, 241.606822636925, 0.000587660092353812, 0.55,283.335418701172
0.0284974233333333, 241.617455041737, 0.00054629367015875, 0.566250000000001,277.95361328125
0.029164, 241.628516008978, 6.27809564823805E-05, 0.580000000000001,285.741882324219
0.02983092, 241.638869432746, 3.97151150558194E-05, 0.592500000000001,285.741882324219
0.0304973766666667, 241.649891218561, 8.94376175679639E-05, 0.606250000000001,282.992980957031
0.0311640066666667, 241.660049767334, 5.4172888844297E-05, 0.620000000000001,285.064361572266
0.0318307433333333, 241.670640090358, 0.000242741917203697, 0.633750000000001,282.690887451172
0.0324973133333333, 241.680657354229, 0.000576745140600945, 0.646250000000001,290.824493408203
0.0331645616666667, 241.690887777235, 0.000682519827648432, 0.660000000000001,290.824493408203
0.0338312283333333, 241.700860766695, 0.000644292747718233, 0.673750000000001,285.24755859375
0.0344977033333333, 241.711336289835, 0.00047984550773532, 0.687500000000001,280.999969482422
0.0351641466666667, 241.721167027486, 0.000604661738334043, 0.700000000000001,280.672210693359
0.0358306816666667, 241.731555286058, 0.00051197839370987, 0.712500000000001,275.470642089844
0.0364979466666667, 241.741398274765, 0.000486475174724187, 0.726250000000001,275.470642089844
0.0371640333333333, 241.751443543798, 0.000598000572932708, 0.740000000000001,273.857391357422
0.037830655, 241.761842521913, 0.000279043093881302, 0.752500000000001,341.466064453125
0.038497395, 241.772018381499, 4.46633665123309E-05, 0.76625,275.781799316406
0.0391640133333333, 241.782002580137, -7.028635964018E-05, 0.778750000000001,275.175750732422
0.03983124, 241.791987033415, -3.81954715276673E-05, 0.792500000000001,275.175750732422
0.0404973666666667, 241.801821366153, -3.42911676471102E-05, 0.806250000000001,276.082305908203
0.041164015, 241.811483567678, 0.000437213149131367, 0.818750000000001,277.322326660156
0.04183257, 241.821564020119, 0.000270220537032298, 0.832500000000001,275.181854248047
0.0424988533333333, 241.83171867141, 0.000197819173653396, 0.845,278.504364013672
0.04316485, 241.841940636325, 9.45268619396357E-05, 0.857500000000001,278.504364013672
0.0438311416666667, 241.851980977973, 0.000173953872413628, 0.871250000000001,277.335876464844
0.0444987766666667, 241.862054720685, -0.000106833523919919, 0.885,277.395141601563
0.045164895, 241.872005976983, -0.000385711516169307, 0.897500000000001,276.201019287109
0.0458318366666667, 241.881633599621, 0.000133379410409756, 0.911250000000001,281.698486328125
0.0464976383333333, 241.891452021815, 0.000137523702216088, 0.923750000000001,281.698486328125
0.0471640316666667, 241.901006425788, -0.000159870860000886, 0.937500000000001,279.325714111328
0.0478312616666667, 241.910805280133, 6.38534025582344E-05, 0.951250000000001,278.934661865234
0.048498155, 241.920710963317, 0.000219110604170837, 0.96375,278.401184082031
0.049163975, 241.930718346059, -8.15072960988371E-05, 0.976250000000001,277.238159179688
0.0498311233333333, 241.941057263543, -0.000464060080848578, 0.99,277.238159179688
0.0504979816666667, 241.951460713073, -0.000308807378987931, 1.0025,285.972839355469
0.0511655666666667, 241.96173913196, -0.000458405364828099, 1.0175,282.397430419922
0.051831205, 241.972257314839, -0.000467532406394727, 1.03125,279.542419433594
0.0524973366666667, 241.985123205554, -0.000773740525850523, 1.0425,280.111572265625
0.05316407, 241.997271795454, -0.000277163468432606, 1.05625,280.111572265625
0.0538307, 242.00943914927, -0.000384000102127633, 1.07,276.408447265625
0.05449733, 242.021560580496, -0.000241072281235219, 1.08375,340.288208007813
0.0551642033333333, 242.033664932208, -0.000221229777903866, 1.0975,283.816436767578
0.0558314033333333, 242.043388976237, -0.000182236236539839, 1.11,277.903869628906
0.056497365, 242.053483281926, -0.000103317700502314, 1.12375,277.903869628906
0.0571639833333333, 242.063142033891, -7.54551000689868E-05, 1.13625,284.303497314453
0.0578316033333333, 242.073134559988, -6.30027255477305E-05, 1.15,278.068023681641
0.058497875, 242.08294971621, 4.05115750202198E-05, 1.16375,276.77099609375
0.0591647533333333, 242.093403164453, 9.73887181686418E-05, 1.17625,274.909576416016
0.0598306916666667, 242.103599404013, -0.000236166027725761, 1.19,274.909576416016
0.0604989466666667, 242.114560041079, -0.00044494654084097, 1.20375,275.328887939453
0.06116547, 242.124894315674, -0.000703691044382265, 1.2175,277.776611328125
0.06183218, 242.135650676126, -0.000690763193718905, 1.23,277.388977050781
0.0624988133333333, 242.145229298772, -0.000581561178814859, 1.24375,280.474212646484
0.063165445, 242.155520736402, -0.000487700393342841, 1.2575,280.474212646484
0.0638321183333333, 242.165580770236, -0.000169402881113885, 1.27125,274.815704345703
0.0644987133333333, 242.176301219196, -0.0001551010994846, 1.28375,276.066772460938
0.065164975, 242.186186255486, -6.48776313068519E-05, 1.2975,277.942016601563
0.0658314083333333, 242.196256737819, -2.10153344796866E-05, 1.31125,285.801818847656
0.066498045, 242.205969474724, 0.000121736995215038, 1.32375,285.801818847656
0.067164175, 242.216173076129, -0.000154288140351764, 1.3375,278.486053466797
0.0678320316666667, 242.225846672713, 6.52813309302015E-05, 1.35125,277.403259277344
0.068498835, 242.236035974937, 7.03945740710714E-05, 1.365,288.793731689453
0.0691645966666667, 242.2462304228, -0.000102528740138676, 1.3775,276.779754638672
0.069830705, 242.255972725079, -8.81384629483448E-05, 1.39125,276.779754638672
0.0704989966666667, 242.266058664995, 5.17335010706386E-06, 1.405,289.505706787109
0.0711643233333333, 242.275972111381, -0.000253257669170187, 1.41875,335.408874511719
0.0718310066666667, 242.286318080592, -0.000261807239756544, 1.4325,281.037445068359
0.072497805, 242.297144153302, -0.000202156735940162, 1.44375,276.189392089844
0.0731640266666667, 242.308049305418, -0.000249269369501794, 1.4575,276.189392089844
0.0738324533333333, 242.319130854395, -0.00020106029098884, 1.47125,287.618743896484
0.07449869, 242.330265175129, -0.000123499186812566, 1.485,286.784301757813
0.0751645366666667, 242.341127550594, -2.30312331752225E-05, 1.4975,278.56884765625
0.0758321583333333, 242.351864332046, -0.000137361490464172, 1.51125,287.927642822266
0.076497965, 242.363081483131, -0.000259159872653441, 1.525,287.927642822266
0.0771643616666667, 242.373609502582, -8.8825428367545E-05, 1.5375,284.720245361328
0.0778309533333333, 242.385111227492, -0.000304003120231624, 1.55125,287.507598876953
0.0784973733333333, 242.396193095074, -0.000592183645224075, 1.565,279.392547607422
0.07916419, 242.407817529412, -0.000856413373243263, 1.5775,293.031066894531
0.0798306833333333, 242.418502564029, -0.00095811726473767, 1.59125,293.031066894531
0.080497635, 242.429686473913, -0.0011938634234718, 1.605,291.754577636719
0.0811647483333333, 242.439881270236, -0.00113507687628173, 1.6175,285.134887695313
0.0818306766666667, 242.450117449168, -0.00124251497978999, 1.63125,288.467315673828
0.0824981783333333, 242.459959421784, -0.00119354243964951, 1.64375,285.759674072266
0.08316401, 242.470330890828, -0.00136776018889557, 1.6575,285.759674072266
0.083831535, 242.479702469771, -0.00131826117518327, 1.67125,278.763885498047
0.0844975833333333, 242.488978787354, -0.00128692924892508, 1.68375,283.751312255859
0.08516434, 242.498284045259, -0.00110070610271495, 1.6975,279.734130859375
0.0858307, 242.507552045366, -0.000779357743718412, 1.71,276.586761474609
0.0864974916666667, 242.516943516042, -0.000856279879992627, 1.72375,276.586761474609
0.0871640516666667, 242.525762196873, -0.000920598149359603, 1.73625,338.174499511719
0.0878310366666667, 242.53514282697, -0.00057521799747203, 1.75,277.784088134766
0.0884975983333333, 242.544189220447, -0.000601697667414267, 1.7625,282.891693115234
0.08916439, 242.5531352353, -0.000971088613314994, 1.77625,282.701843261719
0.08983076, 242.561691773624, -0.000420515768016158, 1.78875,282.701843261719
0.0904979283333333, 242.570491614653, -0.000287250461787351, 1.8025,278.052001953125
0.091164875, 242.579697944772, -0.000782869067362808, 1.81625,278.884216308594
0.0918312683333333, 242.588228030306, -0.000590947707367012, 1.83,280.809112548828
0.0925004133333333, 242.597451941668, -0.000858424772293114, 1.84125,284.803588867188
0.0931640533333333, 242.606379507439, -0.00135784118709524, 1.855,284.803588867188
0.093830695, 242.615508680328, -0.00167165992433343, 1.86875,281.425384521484
0.0944973516666667, 242.624132265063, -0.00131362040829319, 1.88125,281.239349365234
0.09516435, 242.633767167659, -0.00123858067746388, 1.895,273.445617675781
0.0958307066666667, 242.641636824629, -0.00076501096435703, 1.90875,269.885009765625
0.0964974933333333, 242.650342660397, -0.000428255379254722, 1.9225,269.885009765625
0.0971645516666667, 242.658304283545, -0.000119941365554178, 1.93625,276.253784179688
0.0978307383333333, 242.666072506654, -9.53755994693097E-05, 1.94875,271.09375
0.09849736, 242.673846727468, -0.000345884016688291, 1.9625,272.46875
0.0991640733333333, 242.682009009829, -0.000438786350317848, 1.975,275.177062988281
0.0998313116666667, 242.68992488245, -0.000669146279563448, 1.98875,275.177062988281
0.100498035, 242.697890178101, -0.000660562210694563, 2.0025,270.479614257813
0.10116409, 242.705726220259, -0.00081516994491303, 2.015,274.406280517578
0.101831306666667, 242.712852954378, -0.000710896682448253, 2.03,271.732513427734
0.102498766666667, 242.720163705451, -0.000312494193766254, 2.04125,277.023101806641
0.103164091666667, 242.727052314538, -0.000167266988402326, 2.055,277.023101806641
0.10383127, 242.734548460953, 9.8171168246976E-06, 2.06875,329.343475341797
0.10449737, 242.74176406079, 0.0002489951031886, 2.0825,277.359008789063
0.105164005, 242.749250976562, 0.000440520483078174, 2.09625,274.858978271484
0.105830731666667, 242.757099081529, 0.000313983838891357, 2.10875,276.20166015625
0.10649811, 242.764620886309, 0.00059307932024298, 2.1225,276.20166015625
0.107164503333333, 242.772224625152, 0.00047374531425209, 2.135,274.230621337891
0.107830631666667, 242.77986541184, 0.000412498890615593, 2.15,275.161651611328
0.108499265, 242.787849587123, 0.000546046182653467, 2.1625,273.81298828125
0.109164198333333, 242.795232313536, 0.000435789720702643, 2.17625,276.785247802734
0.109831655, 242.802797069445, 0.00045648868103829, 2.18875,276.785247802734
0.110497355, 242.810375253275, 0.000511169934456514, 2.2025,276.518829345703
0.111164376666667, 242.818210230394, 0.000467945105607004, 2.21625,266.245025634766
0.111830665, 242.825627475154, 0.000341057479024808, 2.22875,272.882995605469
0.11249746, 242.833507435558, 0.000139475104289809, 2.2425,279.329010009766
0.113164268333333, 242.841145278827, 0.000230445534969158, 2.25625,279.329010009766
0.11383103, 242.849160557848, 7.20249922374783E-05, 2.26875,275.837127685547
0.114497381666667, 242.857203430671, -0.000241553757053681, 2.2825,280.417358398438
0.115164085, 242.865343030912, -0.000581385687638423, 2.29625,268.684326171875
0.115830631666667, 242.873565617989, -0.000306095515199251, 2.30875,265.919525146484
0.116497305, 242.882096508226, -0.000181412777872418, 2.32125,265.919525146484
0.117164728333333, 242.89059528888, -3.4412661523774E-05, 2.335,269.122833251953
0.11783072, 242.899446294941, 0.00031096899033071, 2.34875,262.221862792969
0.118497621666667, 242.908348208585, 0.000361021476232826, 2.3625,266.988525390625
0.119164038333333, 242.917140701934, 0.000414331798512678, 2.375,270.720520019531
0.119831303333333, 242.925931693951, 0.00021413085436562, 2.38875,270.720520019531
0.120497653333333, 242.934687966046, 0.00038003302131725, 2.40125,316.125335693359
0.121164008333333, 242.943310503262, 0.000536716651249892, 2.41625,259.666595458984
0.121830955, 242.951975147764, 0.00062662063544473, 2.42875,260.473754882813
0.122497631666667, 242.960863951892, 0.000426553184654578, 2.44125,262.05810546875
0.123164423333333, 242.96962457504, 0.000473910305957703, 2.455,262.05810546875
0.123831655, 242.978199355329, 0.000427037660321847, 2.4675,261.465423583984
0.124498951666667, 242.987074580906, 0.000107391715820567, 2.48125,264.249084472656
0.125164088333333, 242.995970315328, 5.97076109762775E-05, 2.495,263.964416503906
0.125831015, 243.005232861359, 0.000166833730123641, 2.5075,260.052856445313
0.126498636666667, 243.014319354676, 3.48133613620795E-05, 2.52125,260.052856445313
0.127164556666667, 243.023791866063, -0.000132585730377797, 2.53375,264.492004394531
0.127831178333333, 243.033108458338, -0.00012238924252036, 2.5475,263.864929199219
0.12849736, 243.042395082443, 6.59677862080473E-06, 2.56,264.952606201172
0.129164146666667, 243.051205552266, 7.33809241530725E-05, 2.57375,264.002838134766
0.129830898333333, 243.060633618075, 0.000239208094842032, 2.58625,264.002838134766
0.130497373333333, 243.069667080626, 0.000360605997130615, 2.6,262.633117675781
0.131165463333333, 243.078683304823, 0.000695507675372939, 2.61375,258.104034423828
0.131831305, 243.088083467294, 0.000828915474462563, 2.62625,258.59521484375
0.132497316666667, 243.097307674273, 0.00073222883090471, 2.63875,265.638061523438
0.13316535, 243.106392829173, 0.000616409148407023, 2.6525,265.638061523438
0.13383079, 243.115596289656, 0.000637967565532006, 2.66625,263.029602050781
0.134497928333333, 243.125058147855, 0.000283082391021915, 2.67875,273.142913818359
0.135164065, 243.13392779606, 0.000410610485388064, 2.6925,270.832977294922
0.13583216, 243.143455226748, 0.000204643830920957, 2.705,268.963531494141
0.136498861666667, 243.15301012315, 3.69927518600786E-05, 2.71875,268.963531494141
0.137165493333333, 243.162417913084, -0.000217554962457007, 2.73125,327.153259277344
0.137831235, 243.169918004545, -0.000156280040235594, 2.745,277.277374267578
0.138498708333333, 243.178302788091, -0.000473875587716301, 2.75875,269.412506103516
0.13916472, 243.186305035975, -0.000530013268006392, 2.77125,262.054748535156
0.139832243333333, 243.194675303201, -0.000294196612825305, 2.785,262.054748535156
0.140498316666667, 243.20319227634, -0.000281877731618447, 2.79875,265.116516113281
0.141165583333333, 243.213240911359, -0.000141031806180329, 2.8125,260.821014404297
0.141831278333333, 243.223267001239, -0.000196301030070901, 2.82625,267.083038330078
0.14249882, 243.233371033903, -0.000187011996668722, 2.83875,262.412414550781
0.143164628333333, 243.24333577655, -6.27117401497362E-05, 2.8525,262.412414550781
0.143831258333333, 243.253565534251, -0.000143176698438307, 2.86625,255.562866210938
0.144498576666667, 243.264146608471, -0.000510571244575725, 2.87875,262.495056152344
0.145164041666667, 243.274301696551, -0.00052039425115048, 2.8925,261.022369384766
0.145832346666667, 243.284575958226, -0.000432663657777282, 2.90625,267.479644775391
0.146498935, 243.294694267127, -0.000590605724496798, 2.91875,267.479644775391
0.147164016666667, 243.30504873393, -0.000551327197432391, 2.9325,259.452789306641
0.147831746666667, 243.315283993277, -0.000541567187661318, 2.94625,260.438598632813
0.148497341666667, 243.325445983638, -0.000294006122383583, 2.95875,259.5361328125
0.14916458, 243.335421889451, -0.00018404814545277, 2.9725,264.675201416016
0.149830686666667, 243.34533748881, 8.84326681327648E-05, 2.98625,264.675201416016
0.150497736666667, 243.355082617552, 0.000309019088308918, 2.99875,264.921264648438
0.151164781666667, 243.364624337689, 0.00025696420294588, 3.0125,252.422439575195
0.151830741666667, 243.374655575318, 0.000184187858423654, 3.02625,261.635894775391
0.152497383333333, 243.384811837243, 0.000110799544638629, 3.03875,263.798126220703
0.153164315, 243.394801396724, -0.000349699824944039, 3.0525,263.798126220703
0.15383067, 243.404643315598, -0.000721610644246068, 3.06625,308.111145019531
0.154498163333333, 243.414743593733, -0.000592744617078418, 3.08,265.193023681641
0.155164086666667, 243.424017885945, -0.000561771172858873, 3.09375,260.824829101563
0.155830671666667, 243.433885691493, -0.000556390943110461, 3.10625,251.043106079102
0.156497801666667, 243.443861296551, -0.000509809282851345, 3.12,251.043106079102
