Time (min), Depth (µm), Load (N), Position (µm), Acoustic (aJ)
9.57833333333333E-06, 241.402627919028, 0.000207465641712514, 0,1032.32775878906
0.00066764, 241.402781350822, 5.93300824205709E-05, 0.0049999999999998,1032.32775878906
0.00133405166666667, 241.402696100337, 0.000317383120684439, 0.0175000000000002,1031.67883300781
0.00200089, 241.404690449159, 0.000549920940567398, 0.0325000000000013,1018.08782958984
0.002667625, 241.407694631878, 0.000245475232540478, 0.0475000000000007,1025.88037109375
0.00333409833333333, 241.412369961739, -0.000101598334274676, 0.0612500000000005,1029.78430175781
0.00400095666666667, 241.4177290247, 8.39708447893642E-05, 0.0750000000000004,1029.78430175781
0.004666095, 241.424679149607, -5.27727867257124E-05, 0.0887500000000003,1034.9755859375
0.00533258, 241.431261513539, -8.88669737506513E-05, 0.1025,1038.11145019531
0.00600038833333333, 241.438933884125, -2.40822278092459E-05, 0.11625,1262.97106933594
0.00666592, 241.446631393983, -0.000154394182399194, 0.13,1045.36218261719
0.007334085, 241.455035676071, -0.00034718249889136, 0.1425,1046.19384765625
0.00800145, 241.463283772964, -0.000313270702255735, 0.15625,1046.19384765625
0.00866769833333333, 241.472241645711, -0.000374770613158891, 0.168750000000001,1039.12854003906
0.009334595, 241.481253741976, -0.000511350752892758, 0.18375,1040.65356445313
0.010165955, 241.493572233218, -8.49146723529523E-05, 0.1975,1050.15856933594
0.0108343033333333, 241.501398358789, -0.00018571860907788, 0.211250000000001,1047.91491699219
0.0115009133333333, 241.508980321523, -0.000131257844589442, 0.225000000000001,1047.91491699219
0.0121675816666667, 241.516721759441, -0.000107203552811101, 0.238750000000001,1063.45239257813
0.0128328766666667, 241.523860007784, -5.71405674594174E-05, 0.25125,1065.64074707031
0.0134993316666667, 241.533012394786, -7.06368895141197E-05, 0.266250000000001,1072.22607421875
0.0141659716666667, 241.542231036903, -0.000129643925676488, 0.278750000000001,1068.77954101563
0.0148327116666667, 241.552236457703, -0.000170696863628761, 0.29125,1068.77954101563
0.0155009333333333, 241.561625228168, 5.2841408283102E-05, 0.305000000000001,1075.068359375
0.0161674133333333, 241.571887474548, -3.41452224373011E-05, 0.3225,1076.08984375
0.0170008833333333, 241.582131222645, 4.16159721575058E-05, 0.335,1075.80773925781
0.01766755, 241.592830620633, 0.000338565056699188, 0.34875,1083.74914550781
0.0183344066666667, 241.603141861434, 0.000368142071086759, 0.36125,1069.07409667969
0.0190007166666667, 241.614218972692, 0.000381314409449104, 0.375,1069.07409667969
0.0196674516666667, 241.625234509079, -3.45112040979665E-05, 0.38875,1072.30932617188
0.02033413, 241.635916227312, -2.18443403445362E-05, 0.4025,1072.91967773438
0.0210007566666667, 241.646553197978, -0.000333132704668093, 0.41625,1075.53405761719
0.0216660716666667, 241.65779072961, -0.000279375404831054, 0.42875,1064.15771484375
0.0223326666666667, 241.668458809761, -0.000384331133005584, 0.4425,1064.15771484375
0.0229994416666667, 241.679005750876, 0.000425359697095975, 0.45625,1280.44360351563
0.0236674683333333, 241.690466063306, 0.000336667651989002, 0.47,1077.3701171875
0.0243340616666667, 241.701611740546, 0.00059372324035467, 0.48375,1068.68371582031
0.025001135, 241.712197674704, 0.000766370568452964, 0.49625,1070.32751464844
0.02566857, 241.722800669957, 0.00058785403516578, 0.51,1070.32751464844
0.0263342783333333, 241.733529853165, 0.000164281310800637, 0.5225,1070.98889160156
0.0270008633333333, 241.7438906484, 9.08959968644186E-05, 0.53625,1069.81774902344
0.02766747, 241.754664987833, -7.22043107918275E-05, 0.55,1059.87243652344
0.028334355, 241.765652227958, -0.000367794463611618, 0.5625,1068.76586914063
0.0290008783333333, 241.776971515104, -0.000270429854138475, 0.57625,1068.76586914063
0.0296675016666667, 241.787934392382, -0.000353770168039444, 0.59,1066.92016601563
0.0303326733333333, 241.799139066058, -2.76079886750159E-06, 0.602500000000001,1064.29382324219
0.0309994016666667, 241.810273484186, -1.75665551812973E-05, 0.616250000000001,1064.7001953125
0.0316659266666667, 241.821526399472, 0.000145368760748082, 0.63,1069.68493652344
0.0323326483333333, 241.832640347516, 0.000270495475740788, 0.64375,1069.68493652344
0.0330008216666667, 241.843941317285, 0.000307836100136121, 0.656250000000001,1068.14196777344
0.0336675783333333, 241.860787536424, -4.4955179503195E-05, 0.672500000000001,1062.76477050781
0.034500825, 241.871057343959, 0.000202164907893712, 0.686250000000001,1066.9638671875
0.035167505, 241.882440501781, 3.62282427233151E-05, 0.700000000000001,1068.07104492188
0.0358346066666667, 241.89229829036, -0.000127656525480851, 0.712500000000001,1057.94262695313
0.0365008666666667, 241.903345859246, -0.000262667744012608, 0.726250000000001,1057.94262695313
0.0371692216666667, 241.913107906354, -0.000240785343195266, 0.73875,1063.19177246094
0.0378327366666667, 241.924095308369, -0.00035056332915518, 0.752500000000001,1062.95458984375
0.0384994, 241.934683457669, -0.000432022737535652, 0.76625,1053.3134765625
0.0391660333333333, 241.945805286468, -0.000413444670688786, 0.778750000000001,1271.3349609375
0.0398326533333333, 241.95664802759, -0.000124440687092676, 0.792500000000001,1058.42663574219
0.0404996616666667, 241.967754519432, -9.97339280713938E-05, 0.806250000000001,1058.42663574219
0.04116745, 241.978761103431, -8.37762296246092E-05, 0.818750000000001,1056.41772460938
0.0418340916666667, 241.98964898955, -0.000126213598056139, 0.832500000000001,1057.72583007813
0.042500885, 242.000472265117, -0.000151667319536514, 0.845,1056.06579589844
0.043168075, 242.011046132464, -0.000405949547212969, 0.857500000000001,1053.07299804688
0.04383417, 242.0224059832, -0.000445378066738957, 0.871250000000001,1053.07299804688
0.0444994383333333, 242.033153488144, -0.000459955834500949, 0.885,1052.08520507813
0.045167575, 242.043990153223, -0.00045771344711425, 0.897500000000001,1050.96813964844
0.0458346583333333, 242.055213811195, -0.000572034704899288, 0.911250000000001,1047.259765625
0.04649931, 242.066485566233, -0.000508224909990033, 0.923750000000001,1047.259765625
0.04716617, 242.076908684422, -0.000627636912028638, 0.937500000000001,1050.55456542969
0.0478327366666667, 242.087709160023, -0.00057491306029673, 0.95,1057.78979492188
0.048501455, 242.098421428061, -0.000916304912537163, 0.962500000000001,1059.32299804688
0.0491675183333333, 242.108560346553, -0.00080425904049695, 0.976250000000001,1058.30883789063
0.0498342, 242.11878818158, -0.000880365217789522, 0.988750000000001,1058.30883789063
0.0505008133333333, 242.128901032835, -0.000700099772329328, 1.0025,1060.25476074219
0.0511660666666667, 242.138948384084, -0.000774040058422277, 1.0175,1060.95690917969
0.0518341866666667, 242.148902555912, -0.000461835240139551, 1.03,1059.30786132813
0.0525008283333333, 242.161545598279, -0.000399865852791904, 1.04125,1055.05334472656
0.0531675133333333, 242.174103223025, -0.000250827338796659, 1.05625,1055.05334472656
0.05383414, 242.186903517666, -0.00049761744282485, 1.07,1055.47351074219
0.054500805, 242.199437243492, -0.000810864708716619, 1.08375,1050.44812011719
0.055166065, 242.212151369002, -0.000542004713256917, 1.0975,1057.60485839844
0.0558328166666667, 242.221687367282, -0.000578788865634879, 1.11,1260.57763671875
0.0564992416666667, 242.231701503941, -0.000621961197109022, 1.1225,1053.60656738281
0.0571659616666667, 242.241611483892, -0.000671463210712633, 1.13625,1053.60656738281
0.057832905, 242.251855637272, -0.000546427991087272, 1.15,1057.35607910156
0.0585005183333333, 242.261953258544, -0.000851182683562517, 1.16375,1058.36596679688
0.05916589, 242.273047312377, -0.000980962164904292, 1.17625,1042.21520996094
0.0598343466666667, 242.283287086405, -0.00107952071441497, 1.19,1051.44091796875
0.060500785, 242.293784187644, -0.00108464595692981, 1.20375,1051.44091796875
0.061167935, 242.303601714913, -0.00109838226697405, 1.2175,1055.03515625
0.0618341933333333, 242.313539681421, -0.000917122371464464, 1.23,1052.89208984375
0.062500835, 242.323249988507, -0.000948449797885685, 1.24375,1051.50439453125
0.0631660966666667, 242.333107111276, -0.000906024428849382, 1.25625,1051.50439453125
0.0638327083333333, 242.34317881248, -0.000899286767260972, 1.27125,1052.32568359375
0.0644994833333333, 242.353070817971, -0.000673816592420156, 1.28375,1051.27514648438
0.0651659633333333, 242.362988910783, -0.000842237132806176, 1.2975,1052.98461914063
0.0658326983333333, 242.372778839565, -0.000769757773379557, 1.31125,1050.66320800781
0.0664992716666667, 242.382174177339, -0.000587971404340665, 1.32375,1050.66320800781
0.067165965, 242.391787663101, -0.00040119028618876, 1.3375,1048.03039550781
0.0678328783333333, 242.401731474634, -0.000611848705060675, 1.35125,1046.12744140625
0.068500815, 242.411487615589, -0.000630959245155714, 1.365,1052.04333496094
0.0691675316666667, 242.421172937785, -0.000619520819701093, 1.3775,1047.20629882813
0.069834175, 242.431172802166, -0.000666429463501374, 1.39125,1047.20629882813
0.0705007983333333, 242.440880995459, -0.00066259115629456, 1.40375,1050.13464355469
0.0711677616666667, 242.450709866989, -0.000490858782209778, 1.4175,1051.6240234375
0.07183267, 242.460254175339, -0.000120381890913567, 1.4325,1263.20812988281
0.0724995333333333, 242.47037786445, -0.000161221839579324, 1.445,1044.94104003906
0.073166545, 242.479833956627, -0.000213614207954349, 1.4575,1049.17517089844
0.0738325883333333, 242.489610066268, 2.82548256806882E-07, 1.47125,1049.17517089844
0.0744993383333333, 242.499527284927, -0.000237502008038912, 1.485,1058.47766113281
0.07516745, 242.509312902738, -0.000299217908119899, 1.4975,1052.79956054688
0.075834165, 242.518848103802, -0.000365835561958389, 1.51125,1047.30224609375
0.07650082, 242.528740650648, -0.000406507519048472, 1.52375,1047.30224609375
0.077168275, 242.538210605752, -0.000712186165168665, 1.5375,1055.8740234375
0.07783425, 242.547705885433, -0.000553122154825479, 1.55125,1059.52966308594
0.07850089, 242.557460258102, -0.000731307204777035, 1.56375,1051.44458007813
0.0791676366666667, 242.567117867148, -0.000868491814130432, 1.5775,1051.14721679688
0.0798341816666667, 242.576291737216, -0.00075458453556571, 1.59125,1051.14721679688
0.0804996066666667, 242.585656903721, -0.000819300284984565, 1.60375,1055.07836914063
0.0811675166666667, 242.594579170891, -0.000767141904816448, 1.6175,1054.32897949219
0.0818327216666667, 242.602791004279, -0.000651919192316274, 1.63125,1056.89978027344
0.082499655, 242.611475499418, -0.000320804823872307, 1.64375,1049.72802734375
0.0831659633333333, 242.620055388467, -0.000495388554694018, 1.65625,1049.72802734375
0.0838330883333333, 242.628593328639, -0.000190210883430784, 1.67,1048.12609863281
0.08449964, 242.636640383886, 0.000171048970855858, 1.68375,1049.25341796875
0.0851659883333333, 242.645715779688, 0.000153859834240203, 1.6975,1046.47875976563
0.085832645, 242.654544733456, 0.000223238849393935, 1.71,1044.20825195313
0.0864992816666667, 242.664507902583, -5.9076408393972E-06, 1.7225,1044.20825195313
0.087166035, 242.673464625778, 0.000192277404548363, 1.73625,1039.87536621094
0.0878330333333333, 242.683852954186, 8.2554915791369E-05, 1.74875,1043.58581542969
0.0885013783333333, 242.69378603682, -0.000175789107849239, 1.76375,1253.611328125
0.0891659633333333, 242.704119358821, -0.000417663958694027, 1.77625,1042.46997070313
0.0898325816666667, 242.713777384931, -0.000203459717958949, 1.78875,1040.36767578125
0.0904992533333333, 242.724520064643, -0.000685665997225032, 1.80125,1040.36767578125
0.0911659833333333, 242.734786117968, -0.00105352252016367, 1.815,1043.9716796875
0.09183317, 242.745091882167, -0.000699868783843702, 1.82875,1042.76879882813
0.0924995266666667, 242.754964819078, -0.000346296043420256, 1.8425,1040.20239257813
0.0931675983333333, 242.765357959021, -0.000347395488199131, 1.855,1040.20239257813
0.0938351016666667, 242.775390001878, -0.000309640884583482, 1.86875,1049.60327148438
0.0945008466666667, 242.785381484257, 9.53552728804517E-05, 1.88125,1046.9931640625
0.0951674883333333, 242.795786625932, -0.000237752495456764, 1.89375,1040.26330566406
0.095834315, 242.805808852373, -0.00043013583225378, 1.9075,1030.84948730469
0.0964993816666667, 242.815879310957, -0.000365066100633247, 1.92125,1030.84948730469
0.0971660533333333, 242.825401568418, -0.000445519059590354, 1.935,1031.89904785156
0.09783281, 242.835013603211, -0.000516607988861357, 1.9475,1029.47326660156
0.0984993783333333, 242.844325886825, -0.000110095407528173, 1.96125,1035.71557617188
0.0991661133333333, 242.853842991831, -0.000324964114922672, 1.975,1034.00732421875
0.099832665, 242.863331871649, -0.000525589537739614, 1.9875,1034.00732421875
0.100499328333333, 242.872808175899, -0.000322279249794505, 2.0025,1024.00463867188
0.101166023333333, 242.882454645966, -0.000688032878358455, 2.015,1041.03088378906
0.101832608333333, 242.890936093494, -0.00077744188745771, 2.0275,1039.80126953125
0.102500948333333, 242.899564123003, -0.000433441666191167, 2.04125,1032.91882324219
0.103167453333333, 242.907683729026, -0.000269531399229637, 2.055,1032.91882324219
0.103834111666667, 242.916193760237, -0.000148694468774142, 2.06875,1029.34631347656
0.104500996666667, 242.92421448166, -0.00017310724252737, 2.0825,1035.35522460938
0.105165936666667, 242.933454820887, -0.000287534994945039, 2.09625,1235.97290039063
0.105832915, 242.942286334952, -9.16433344161964E-05, 2.1075,1033.60205078125
0.106499328333333, 242.952071142603, -0.000171542821162231, 2.1225,1035.93212890625
0.107165905, 242.961001569885, -0.000117980511518869, 2.135,1035.93212890625
0.10783394, 242.970573511767, -0.000205880596413398, 2.14875,1041.18103027344
0.108499555, 242.97959015193, -3.385273719992E-05, 2.1625,1031.67407226563
0.109166195, 242.988625912877, -8.74180466708339E-05, 2.175,1031.67407226563
0.109832591666667, 242.997761240935, 0.000125109278347607, 2.18875,1034.81640625
0.110499263333333, 243.007761315528, -5.43522075049168E-05, 2.2025,1031.99072265625
0.111166043333333, 243.017937550657, 0.000175262259205994, 2.21625,1034.14440917969
0.111832981666667, 243.028889322694, -4.49056819978875E-05, 2.22875,1028.45788574219
0.11249947, 243.0405685133, -0.000289243409159161, 2.24125,1039.50390625
0.113166111666667, 243.051698110061, -0.000100126908307555, 2.25625,1039.50390625
0.113832636666667, 243.063583163553, 2.71147004975714E-05, 2.26875,1035.12658691406
0.114499323333333, 243.075188487333, 1.30019093430971E-05, 2.2825,1027.88000488281
0.115166278333333, 243.087137768183, 0.000122652401728734, 2.295,1026.97583007813
0.115832963333333, 243.098171853158, 0.000483064798600011, 2.30875,1022.197265625
0.11649934, 243.110164935248, 0.000495008698684801, 2.3225,1022.197265625
0.117166201666667, 243.121665741334, 0.000746450069031387, 2.335,1017.869140625
0.1178332, 243.133727467007, 0.000660754873455984, 2.34875,1016.65814208984
0.118499786666667, 243.145702641691, 0.000608813982368847, 2.3625,1017.78442382813
0.119166271666667, 243.157903312605, 0.000470235943011029, 2.375,1015.66827392578
0.119833118333333, 243.169649122913, 0.000340867441062017, 2.3875,1015.66827392578
0.120501116666667, 243.18167535317, 5.69437022699057E-05, 2.40125,1019.61932373047
0.121166331666667, 243.193719546728, 0.000221911416105765, 2.415,1009.41278076172
0.121832863333333, 243.205214530989, 0.000521551365494482, 2.4275,1202.70239257813
0.122499486666667, 243.217458282553, 0.00045339178909314, 2.44125,1012.83813476563
0.123167643333333, 243.229094044546, 0.000599551947627181, 2.455,1011.54290771484
0.123832823333333, 243.241244910055, 0.000816412554948019, 2.4675,1011.54290771484
0.124499508333333, 243.25257664333, 0.000677971008732151, 2.48125,1003.31042480469
0.125166126666667, 243.264410943085, 0.000301441921427344, 2.49375,1008.65563964844
0.125832878333333, 243.275855960415, 0.00019777312860335, 2.5075,1009.59338378906
0.126500275, 243.28755781761, 7.58622520413278E-05, 2.52125,1009.59338378906
0.127167671666667, 243.298816465446, -0.000192247781046712, 2.53375,1006.21801757813
0.127832808333333, 243.310464229287, -0.000303849675399799, 2.5475,1000.6640625
0.128501055, 243.321973418665, -0.00030909341200626, 2.56,1005.98937988281
0.1291677, 243.333494197941, -0.000471175270801407, 2.5725,1007.95758056641
0.129833668333333, 243.34515970069, -0.000459963333974186, 2.58625,1007.95758056641
0.130499578333333, 243.356577213945, -0.000350114851546065, 2.6,1009.83544921875
0.131166293333333, 243.367797833479, -0.000109160954412402, 2.6125,1004.31146240234
0.131832801666667, 243.379190800157, 4.44313308150273E-05, 2.625,1009.41033935547
0.1324996, 243.390670907175, 0.000116972187163433, 2.63875,1017.54583740234
0.133166178333333, 243.401798200322, -0.000101002864159058, 2.6525,1017.54583740234
0.13383288, 243.412829214709, -0.000304922121518161, 2.665,1006.39086914063
0.134499475, 243.423946907643, -0.000443869142364197, 2.67875,1016.44226074219
0.13516702, 243.435170645781, -0.000755829472926684, 2.69125,1017.49859619141
0.135833805, 243.446471505501, -0.000572645174088906, 2.705,1020.34167480469
0.136499926666667, 243.457518694617, -0.000130087903257344, 2.7175,1020.34167480469
0.137166528333333, 243.46923213046, 0.000115314770442784, 2.73125,1022.67590332031
0.137833008333333, 243.479319733089, 0.000324450765747836, 2.745,1025.28869628906
0.138499621666667, 243.489334623713, 0.000572278817633113, 2.75875,1008.9794921875
0.139166353333333, 243.499551674861, 0.000614027720614768, 2.77125,1008.66003417969
0.1398329, 243.51047013489, 0.000277198639152939, 2.785,1002.84442138672
0.140499603333333, 243.52114571389, 2.00170571161423E-05, 2.7975,1002.84442138672
0.141167898333333, 243.534098825301, -0.000339165401531922, 2.8125,1001.15911865234
0.141834473333333, 243.546444081701, -0.000301658285506574, 2.82625,999.24169921875
0.142500308333333, 243.55897463962, -0.000584613072985402, 2.83875,1002.51849365234
0.143166245, 243.571261641078, -0.000397524470224558, 2.85125,1002.51849365234
0.143832888333333, 243.583358529682, -0.000271322309200922, 2.865,998.519836425781
0.144501228333333, 243.594856439609, 0.000100662006396866, 2.87875,994.344970703125
0.145168491666667, 243.606686320468, 3.42039072479118E-06, 2.8925,990.592224121094
0.145834583333333, 243.617945448571, 9.05270154612173E-05, 2.905,989.170715332031
0.14650006, 243.628876855345, 0.000130174524013843, 2.91875,995.4482421875
0.14716631, 243.640389980813, 0.000244968258028415, 2.9325,995.4482421875
0.147833206666667, 243.651858401441, -3.2078326227038E-05, 2.94625,993.051574707031
0.148500545, 243.663176209193, 0.000158233614629013, 2.95875,990.921264648438
0.14916789, 243.67457002588, 0.000203327349603794, 2.9725,993.071838378906
0.149834448333333, 243.68676506433, -1.48831898925165E-05, 2.98625,988.90478515625
0.150501075, 243.69816275123, -0.00030428465356176, 2.99875,988.90478515625
0.151167816666667, 243.709593303183, -9.41902064142478E-05, 3.0125,988.937255859375
0.1518346, 243.721531532046, -0.000454395613675367, 3.02625,989.397888183594
0.152501153333333, 243.73317179224, -0.000411724256994421, 3.03875,991.70361328125
0.153167835, 243.744634836372, -0.000385631567633242, 3.0525,982.419677734375
0.153834435, 243.756222407112, 5.61892401675424E-05, 3.06625,982.419677734375
0.154499758333333, 243.767937254226, -0.000119250947637207, 3.08,1186.05053710938
0.155166338333333, 243.779685552958, 0.000144501804315475, 3.0925,986.624816894531
0.15583297, 243.791314976285, 0.000113906341066805, 3.10625,992.342651367188
0.156499718333333, 243.80309573166, 0.000218667079026404, 3.12,989.899597167969
0.157166538333333, 243.814329403444, 0.000295541217719715, 3.1325,989.899597167969
