Time (min), Depth (µm), Load (N), Position (µm), Acoustic (aJ)
9.28833333333333E-06, 241.431586107051, 0.000897260890968241, 0,931.211486816406
0.000667968333333333, 241.431361980549, 0.000513548664463495, 0.00375000000000028,928.982482910156
0.00133427666666667, 241.43254752801, 0.000306236577509108, 0.0187500000000014,931.489685058594
0.002167065, 241.435431408957, -0.000105975717512891, 0.0337500000000008,930.915100097656
0.00283329333333333, 241.439564115345, 6.82300323591993E-05, 0.0487500000000002,930.915100097656
0.00350017166666667, 241.444856325418, 0.000182650285154852, 0.0625000000000001,937.579833984375
0.00416767333333333, 241.451303758376, 0.000201054360728432, 0.0762499999999999,948.149108886719
0.00483496333333333, 241.457755638468, 0.000304054187162303, 0.0912500000000011,951.156982421875
0.00550150666666667, 241.464111747863, 0.000530547310658682, 0.105000000000001,964.889953613281
0.00616980166666667, 241.470994780646, 0.000294393172401845, 0.118750000000001,964.889953613281
0.00683328, 241.478732828278, 0.000114241721217553, 0.131250000000001,961.871948242188
0.007500505, 241.486767487853, 0.000223902713052758, 0.145000000000001,967.747314453125
0.0081676, 241.495702217936, -0.000109005565338824, 0.157500000000001,960.800354003906
0.00883339666666667, 241.504862314501, -5.09674805322477E-05, 0.171250000000001,962.155578613281
0.00950113166666667, 241.51416040005, 0.000247538525837574, 0.18375,962.155578613281
0.0101668166666667, 241.523155045911, 2.13093890999306E-05, 0.19625,964.871948242188
0.0108342983333333, 241.53016551054, 0.000107399064920915, 0.21,968.367065429688
0.0114996166666667, 241.537621296584, 0.000471423280414114, 0.2225,1171.52783203125
0.0121668983333333, 241.545307721778, 0.000109476460602001, 0.23625,985.892456054688
0.012834445, 241.553075810446, -2.71591763560411E-05, 0.25125,985.892456054688
0.0135027583333333, 241.56157156221, 0.000218691974804423, 0.262500000000001,986.436950683594
0.0141680866666667, 241.571845871526, 0.000178526992247657, 0.27625,988.768432617188
0.0148343833333333, 241.581869777098, 8.99339421725531E-05, 0.29,1000.87701416016
0.015499575, 241.592069999869, 3.39612536518366E-05, 0.30375,993.819580078125
0.016166145, 241.601687976537, 0.000165491147048517, 0.3175,993.819580078125
0.0168331583333333, 241.611469286501, 9.00074385533292E-05, 0.33,1005.90277099609
0.0175010383333333, 241.621560038722, -7.56562403331665E-05, 0.34375,1001.54498291016
0.0181667966666667, 241.631401897849, 4.68722405748641E-06, 0.356250000000001,1004.84899902344
0.0188334, 241.641359377774, 0.000373841181817483, 0.370000000000001,1003.31298828125
0.0195010866666667, 241.652210954214, 2.35472767134191E-05, 0.38375,1003.31298828125
0.0201677583333333, 241.662357025118, 0.000241789314600944, 0.3975,1006.63665771484
0.0208361583333333, 241.672427314443, 0.000301049838029971, 0.410000000000001,1011.09521484375
0.0215016466666667, 241.683176144249, 3.27838127827382E-05, 0.423750000000001,1002.74041748047
0.0221668183333333, 241.693572361726, -0.000116458690910096, 0.4375,1002.21575927734
0.022834345, 241.703721553991, -8.8768581740635E-05, 0.45125,1002.21575927734
0.0234995033333333, 241.714170682315, -0.000143998807554214, 0.463750000000001,1009.52252197266
0.0241668933333333, 241.724755333856, -0.00035803805658368, 0.4775,998.348388671875
0.0248329966666667, 241.73515509828, -5.8534600358167E-05, 0.490000000000001,1006.12713623047
0.0254994866666667, 241.74582986987, 0.000209407441175454, 0.503750000000001,996.649780273438
0.026166885, 241.755962574259, 0.000439456886027072, 0.517500000000001,996.649780273438
0.0268335016666667, 241.766561309708, 0.000429321895048914, 0.53125,997.908020019531
0.0274994633333333, 241.777211388264, 0.000793140620856359, 0.543750000000001,1000.83148193359
0.0281665316666667, 241.787779509055, 0.00084411556043651, 0.557500000000001,1202.98168945313
0.0288329433333333, 241.798502954921, 0.000396692534075632, 0.571250000000001,997.3740234375
0.02950018, 241.809110002517, 0.00045399865562464, 0.583750000000001,997.3740234375
0.0301668266666667, 241.819639220649, 0.00033150730823354, 0.597500000000001,1001.32434082031
0.03083427, 241.830416903053, -3.38068424164929E-05, 0.611250000000001,1003.05859375
0.03149994, 241.841102570689, -0.000236713650633364, 0.625000000000001,1001.55792236328
0.03216634, 241.851941079146, 5.29233012309532E-05, 0.637500000000001,1002.01446533203
0.0328328783333333, 241.863349878343, -0.000142936860927929, 0.651250000000001,1002.01446533203
0.0335014116666667, 241.874556033233, 1.09074116205015E-05, 0.663750000000001,1004.56262207031
0.0341661333333333, 241.885364886975, 0.00017251229439165, 0.677500000000001,1003.41784667969
0.0348343916666667, 241.896643490318, 3.91704920182773E-05, 0.691250000000001,1004.16632080078
0.0355005616666667, 241.907851490889, -3.03390166223002E-05, 0.705000000000001,1005.90252685547
0.036166235, 241.919164566959, -0.00021801858966179, 0.717500000000001,1005.90252685547
0.0368342333333333, 241.930472508756, -0.000184438276383047, 0.731250000000001,1008.01940917969
0.037501115, 241.941770260707, -0.00038096140523444, 0.74375,1009.83392333984
0.0381679483333333, 241.95290058607, 1.06790581354819E-06, 0.7575,999.552795410156
0.038835935, 241.964338040684, -0.000132383391041263, 0.77125,1006.82434082031
0.03950112, 241.975734279314, -6.24959014085562E-05, 0.783750000000001,1006.82434082031
0.0401663983333333, 241.986532646914, -0.000313971770016417, 0.7975,995.047180175781
0.0408328466666667, 241.997682024568, 4.55286726689003E-05, 0.810000000000001,993.922302246094
0.0415011316666667, 242.008203158204, -0.000288564546213797, 0.8225,996.273071289063
0.04216617, 242.01856329069, -0.000122995362585961, 0.83625,1001.11767578125
0.0428335333333333, 242.02865368626, -0.000105914220548595, 0.850000000000001,1001.11767578125
0.0435002333333333, 242.039496212733, 7.72607142983923E-06, 0.8625,995.613586425781
0.0441696966666667, 242.049751081818, -0.000155663721678744, 0.87625,992.505920410156
0.044834455, 242.060600300982, -1.91255798706758E-05, 0.888750000000001,1199.8671875
0.0455015166666667, 242.071459110445, -6.1093471857715E-05, 0.902500000000001,989.576965332031
0.04616777, 242.082326071788, -0.000183686814086982, 0.91625,989.576965332031
0.0468328733333333, 242.093030480994, -8.41278148505536E-05, 0.928750000000001,997.504211425781
0.047499925, 242.103800991016, -0.000101195457547036, 0.942500000000001,1001.15106201172
0.0481665166666667, 242.11394261562, 0.000106317619277388, 0.955000000000001,1001.40838623047
0.0488334833333333, 242.123840220394, 0.00014085488453795, 0.968750000000001,1001.22473144531
0.0495003933333333, 242.134435666169, 9.05050495421921E-06, 0.982500000000001,1001.22473144531
0.0501668266666667, 242.145054521237, -0.000108699580569272, 0.995,1012.08160400391
0.0508342633333333, 242.156003284354, -0.000422935296876584, 1.0075,1004.48474121094
0.0515004016666667, 242.166645577651, -0.00073344670018922, 1.02125,1004.91461181641
0.0521661583333333, 242.178267348878, -0.00086104979081804, 1.03375,999.080200195313
0.052833075, 242.19014272952, -0.0007491719103535, 1.0475,999.080200195313
0.0534995516666667, 242.201911247752, -0.000504805684586056, 1.06125,1008.04058837891
0.0541667783333333, 242.21343347951, -0.000269885984346896, 1.075,1007.31091308594
0.0548328166666667, 242.225540487524, -0.000158228592790888, 1.0875,1005.58087158203
0.0555000866666667, 242.236330739596, -0.000117123157505755, 1.10125,1010.87292480469
0.0561661933333333, 242.246826294751, 9.46452055733499E-05, 1.115,1010.87292480469
0.05683472, 242.257135627901, -0.000274519251678723, 1.1275,1004.33740234375
0.0575010066666667, 242.267639063539, -4.65966999922445E-05, 1.14125,1001.35809326172
0.0581667816666667, 242.277945566012, 0.000233347738699147, 1.155,1008.73699951172
0.058832805, 242.288325734546, -3.66506995526599E-05, 1.16875,1009.45989990234
0.059500355, 242.298499639756, -0.000264432258302724, 1.18125,1009.45989990234
0.0601677583333333, 242.308885668266, -5.75056520049911E-05, 1.195,1003.44122314453
0.06083337, 242.318855863653, -0.000292951825815965, 1.20875,1002.36987304688
0.06150011, 242.328941286881, -0.000723833683073429, 1.2225,1201.69982910156
0.0621663533333333, 242.339348140101, -0.000777719976387894, 1.23625,1006.50457763672
0.0628328783333333, 242.348884250281, -0.00065492714419174, 1.24875,1006.50457763672
0.0634997066666667, 242.358237510207, -0.000680992834934915, 1.26125,996.798767089844
0.0641679466666667, 242.367426731715, -0.000479039978787295, 1.275,999.007995605469
0.0648342266666667, 242.37686808423, -0.000671844794447897, 1.28875,997.505859375
0.0655004966666667, 242.385831803313, -0.000377093099497052, 1.30125,1004.23327636719
0.0661668766666667, 242.395181885533, -0.000330545937499211, 1.31625,1004.23327636719
0.066833845, 242.404677815905, -0.000464876190224364, 1.32875,1004.89123535156
0.06750012, 242.414170190223, -0.000563049259078387, 1.3425,1007.31671142578
0.0681682583333333, 242.423075304266, -0.000276703141907424, 1.35625,1012.91986083984
0.0688348683333333, 242.432142529832, -0.000187183138423582, 1.36875,1000.02838134766
0.069501025, 242.44117238173, -0.000105545238996615, 1.3825,1000.02838134766
0.0701677533333333, 242.450138047018, -4.90325775632007E-05, 1.39625,1008.56378173828
0.0708333216666667, 242.459522750884, -0.000386734615155251, 1.40875,998.456726074219
0.0714997016666667, 242.468225326503, -0.000425095188336086, 1.4225,1000.84814453125
0.0721682516666667, 242.476989917803, -0.000508141516990254, 1.43625,1008.38037109375
0.07283341, 242.485940771811, -0.000632929249004061, 1.44875,1008.38037109375
0.0735026133333333, 242.495094550068, -0.000499893431272715, 1.46125,1007.84436035156
0.0741662366666667, 242.504043183431, -0.000410616415542201, 1.47625,1006.62689208984
0.0748328583333333, 242.51372252644, -0.000259320515001241, 1.49,1013.29931640625
0.0755003266666667, 242.523608631371, -0.000404454725073421, 1.5025,1006.28912353516
0.07616684, 242.533420591114, -0.000758844924445421, 1.51625,1006.28912353516
0.0768335233333333, 242.542254177104, -0.000439491465266538, 1.52875,1010.74420166016
0.0775001433333333, 242.551195958768, -0.000111706929529157, 1.5425,1215.17126464844
0.0781661683333333, 242.560575035661, -0.000294057270249945, 1.55625,1014.03576660156
0.0788343983333333, 242.569809283358, -0.000458369517036564, 1.57,1017.16217041016
0.07949983, 242.578600646767, -0.000125800221645135, 1.5825,1017.16217041016
0.080166895, 242.588277500114, -0.000981694730928664, 1.59625,1015.88800048828
0.0808333116666667, 242.597727980305, -0.00139279408185216, 1.60875,1017.64813232422
0.0815027483333333, 242.606882582036, -0.00156271154709019, 1.6225,1012.10894775391
0.0821666383333333, 242.616264372949, -0.00156353500569385, 1.635,1011.01348876953
0.0828332033333333, 242.625753968665, -0.00149844427513167, 1.64875,1011.01348876953
0.0834999633333333, 242.635657554386, -0.0011313467140686, 1.66125,1013.32073974609
0.0841667316666667, 242.645836571793, -0.000967053966299226, 1.675,1010.88989257813
0.08483446, 242.656508865042, -0.000637231032979006, 1.68875,1005.90161132813
0.0855010283333333, 242.666806172897, -0.000594411183782138, 1.70125,1011.02783203125
0.0861676733333333, 242.677496565335, -0.000533431746731928, 1.71375,1011.02783203125
0.08683336, 242.687849192471, -0.000300991421998944, 1.7275,1002.92010498047
0.0875015383333333, 242.69856810885, -0.000392479326661179, 1.74125,1000.64239501953
0.08816786, 242.7078767308, -0.000175912704587143, 1.75375,1000.33459472656
0.0888344983333333, 242.717563837668, -0.000151073952218373, 1.7675,1005.76892089844
0.08950096, 242.72733709517, -0.000172296386255773, 1.78125,1005.76892089844
0.090168045, 242.737207457591, -0.000556817072183908, 1.7925,1005.73638916016
0.0908330783333333, 242.746509145914, -0.000526100115037321, 1.80625,1006.14923095703
0.0914996516666667, 242.755949522364, -0.000563241249423258, 1.82,1001.37951660156
0.0921662766666667, 242.765546089296, -0.000712135770612028, 1.83375,1003.95928955078
0.092834345, 242.774860465409, -0.00085501859375109, 1.8475,1003.95928955078
0.0934999383333333, 242.784072502097, -0.000759048914185518, 1.86,1008.03491210938
0.0941663316666667, 242.793640660119, -0.000930967278917558, 1.8725,1212.46997070313
0.0948333833333333, 242.803424260821, -0.00111657995581055, 1.88625,1007.12573242188
0.0955026666666667, 242.812427053917, -0.000738711435779835, 1.9,980.150024414063
0.0961675533333333, 242.821369874469, -0.000876196030077646, 1.91375,980.150024414063
0.096834345, 242.829996969623, -0.000904681099308358, 1.92625,994.269104003906
0.0974998233333333, 242.838092461705, -0.000926591998753124, 1.94,983.163818359375
0.098166905, 242.846332307442, -0.000964777080757524, 1.9525,990.519958496094
0.0988330116666667, 242.854622024253, -0.000970827776820463, 1.96625,996.023498535156
0.0994994666666667, 242.863198379872, -0.00146907575032117, 1.98,996.023498535156
0.100168348333333, 242.870985272965, -0.00139428950675851, 1.9925,989.015747070313
0.100833516666667, 242.879060201092, -0.00120361158432681, 2.00625,995.285766601563
0.10150158, 242.887108838974, -0.00106404209474715, 2.02,987.013000488281
0.102166293333333, 242.894633111119, -0.00100461207986056, 2.0325,987.073547363281
0.10283362, 242.90256351233, -0.000645989093163686, 2.0475,987.073547363281
0.103500398333333, 242.910246166499, -0.000835270585720904, 2.05875,993.434143066406
0.104167135, 242.91844174422, -0.000883313172625096, 2.0725,993.020324707031
0.104834715, 242.926350326242, -0.00118174718260231, 2.08625,989.588256835938
0.105500848333333, 242.935224779199, -0.00131837981966903, 2.1,997.509704589844
0.106167785, 242.942843703961, -0.00112101673300304, 2.11375,997.509704589844
0.106834453333333, 242.951837131923, -0.00059603110252023, 2.12625,995.136901855469
0.107501588333333, 242.960235769818, -0.000759974367776123, 2.14,995.638366699219
0.108167875, 242.969525580834, -0.000748502943963376, 2.15375,994.952453613281
0.108833965, 242.978354160938, -0.000852188235955806, 2.1675,999.547546386719
0.109500216666667, 242.988562019428, -0.000913976132429404, 2.18125,999.547546386719
0.110167103333333, 242.998196241224, -0.00127177266067381, 2.1925,997.384826660156
0.110834431666667, 243.008462116346, -0.000966169010837542, 2.2075,1190.14282226563
0.111500541666667, 243.018990688023, -0.000985198554993551, 2.22,993.794067382813
0.112167008333333, 243.02989937323, -0.00102740943481893, 2.23375,990.025390625
0.112834463333333, 243.040905722193, -0.000998501386821488, 2.2475,990.025390625
0.113501898333333, 243.052631957441, -0.000931025776033047, 2.26125,986.520080566406
0.114167786666667, 243.064911856406, -0.00110178769883763, 2.27375,986.432556152344
0.114834983333333, 243.076347191558, -0.00116282563298208, 2.2875,989.598388671875
0.115500355, 243.08819406816, -0.00112320962286318, 2.3,985.584533691406
0.11616636, 243.09945217457, -0.00110535751955501, 2.31375,985.584533691406
0.116833726666667, 243.110970609728, -0.000968004918647195, 2.32625,987.446838378906
0.117500203333333, 243.121791781949, -0.000710964329546813, 2.34,985.26123046875
0.118167836666667, 243.133615995993, -0.000538721981122416, 2.35375,979.299011230469
0.118834588333333, 243.144777151847, -0.000512065320036832, 2.3675,982.726135253906
0.119501823333333, 243.156112961573, -0.000193859303217729, 2.38,982.726135253906
0.120167816666667, 243.167310957883, 1.80875509078721E-05, 2.3925,982.116455078125
0.120834503333333, 243.178942191552, -1.36073570984182E-05, 2.40625,982.878479003906
0.121501598333333, 243.190594553976, -6.59442282492689E-05, 2.42,981.792114257813
0.12216832, 243.20219733391, 0.000150983875669715, 2.4325,977.0224609375
0.122834416666667, 243.213828997663, 0.000203737725910942, 2.4475,977.0224609375
0.123502568333333, 243.22555506762, -0.000125111756344039, 2.45875,979.105590820313
0.124166335, 243.237025902903, 7.66307449863182E-06, 2.4725,976.456970214844
0.124833021666667, 243.247482561564, 0.000267082544106409, 2.485,967.993103027344
0.125499728333333, 243.258700685645, -2.03420188592754E-05, 2.49875,973.789855957031
0.126166273333333, 243.269311388592, -0.00035022494917688, 2.5125,973.789855957031
0.126834503333333, 243.280257442573, -0.000257484607404129, 2.525,975.826232910156
0.127499658333333, 243.290858267652, -0.000472917286480524, 2.5375,1167.84497070313
0.12816664, 243.301824030564, -0.000535182158978121, 2.55125,975.327514648438
0.128833293333333, 243.312368744028, -0.000473724245937002, 2.56625,975.327514648438
0.12949966, 243.323312072615, -0.000514052720296231, 2.5775,975.628051757813
0.130166298333333, 243.334320634462, -0.000768459441740664, 2.59125,783.810913085938
0.130833173333333, 243.345286192185, -0.000941594245333779, 2.60375,976.322814941406
0.13150012, 243.356281255395, -0.000830328334068276, 2.6175,975.346252441406
0.132168051666667, 243.367245175314, -0.000834711113918489, 2.63,984.005676269531
0.132833716666667, 243.378508339575, -0.000913383662247609, 2.64375,984.005676269531
0.133500445, 243.389214688436, -0.000905303568105743, 2.65625,986.351684570313
0.134168558333333, 243.399969982554, -0.000639899399087516, 2.67,982.942932128906
0.134833645, 243.410733224183, -0.000938441403664271, 2.6825,979.834533691406
0.135501196666667, 243.421503854343, -0.000805584076958166, 2.69625,988.649841308594
0.136167076666667, 243.432019778705, -0.000857157486502742, 2.71,988.649841308594
0.136834706666667, 243.442557731225, -0.000817350985942117, 2.7225,990.808349609375
0.13750275, 243.45309546138, -0.00113219567159966, 2.73625,996.732177734375
0.138167945, 243.462696229514, -0.000735333605556109, 2.75,985.637939453125
0.138835008333333, 243.472602963711, -0.000810964306685324, 2.7625,962.577575683594
0.139501398333333, 243.482596159834, -0.000361924361477668, 2.77625,962.577575683594
0.140167545, 243.492792823342, -6.73796561369817E-05, 2.79,963.5986328125
0.14083454, 243.50384776781, 0.000208814970887388, 2.80375,963.358947753906
0.141500415, 243.515636824897, 7.24028227291936E-05, 2.81625,968.658447265625
0.142167295, 243.527524265556, 0.000250976353143702, 2.83125,960.330383300781
0.142833758333333, 243.538908892646, 0.000217940512508358, 2.84375,960.330383300781
0.143499986666667, 243.550717561457, -6.32353643093951E-05, 2.85625,959.066467285156
0.144168001666667, 243.561807530739, -0.00011317985567573, 2.87,1148.53625488281
0.144834631666667, 243.573323744383, -0.000136217198517375, 2.88375,951.710510253906
0.145499913333333, 243.584568199764, -0.000316496143297199, 2.8975,957.56982421875
0.146166476666667, 243.596203814345, -0.000436158632796164, 2.91,957.56982421875
0.146834626666667, 243.607262198336, -8.30478691951917E-05, 2.92375,959.084350585938
0.147500541666667, 243.619007193535, -0.000268521053033661, 2.9375,951.976196289063
0.148168105, 243.630330861385, -0.000321741379828063, 2.95,961.999877929688
0.14883464, 243.64183193368, -0.000407048094940514, 2.96375,950.666625976563
0.149501975, 243.653205051368, -0.000431360373779978, 2.9775,950.666625976563
0.150167166666667, 243.664243931284, -0.000723184215743056, 2.99,954.059936523438
0.150835151666667, 243.67529961015, -0.000708282464267452, 3.005,960.243774414063
0.151501443333333, 243.686541712925, -0.000852446223101945, 3.0175,960.127563476563
0.152167143333333, 243.697755104158, -0.000652101286233429, 3.03125,953.890014648438
0.152833283333333, 243.708842861041, -0.000178212089207435, 3.045,953.890014648438
0.153500073333333, 243.720364277988, -9.36448369108066E-05, 3.0575,956.895202636719
0.154168128333333, 243.731308191587, -2.89215878699347E-05, 3.07125,950.812438964844
0.154833891666667, 243.74239104283, 0.000175587139907173, 3.085,961.65673828125
