Time (min), Depth (µm), Load (N), Position (µm), Acoustic (aJ)
8.8E-06, 241.277680313757, -0.000371069463880349, 0,371.859924316406
0.000663121666666667, 241.277453064835, 0.000241643760169359, 0.00625000000000105,379.182312011719
0.001331175, 241.279277317537, -0.000123067420764294, 0.0212500000000004,379.182312011719
0.00216451833333333, 241.281668930905, -0.000174771323731953, 0.0375000000000011,379.651519775391
0.00283099166666667, 241.286576631452, 0.000117617989879932, 0.0512500000000009,388.166839599609
0.00349774166666667, 241.293143073949, -0.000136862227817753, 0.0650000000000008,397.126434326172
0.00416443166666667, 241.301788972786, -0.000316866686389272, 0.0775000000000012,406.892761230469
0.00482986666666667, 241.310959327464, -0.000208992104837158, 0.0925000000000006,406.892761230469
0.00549804333333333, 241.321212867545, -5.23354735437743E-05, 0.10625,403.173950195313
0.00616459, 241.331085335484, 0.000286509506613591, 0.12,411.840545654297
0.00683131166666667, 241.34130405081, 0.000608330341903423, 0.132500000000001,408.794006347656
0.00749674666666667, 241.351257502778, 0.000660286232234592, 0.146250000000001,481.350952148438
0.00816540666666667, 241.361442727702, 0.000820061206914955, 0.158750000000001,408.856140136719
0.00883037833333333, 241.371097293042, 0.000611975158862217, 0.172500000000001,408.856140136719
0.00949791, 241.380849882092, 0.00027411562918657, 0.186250000000001,404.886138916016
0.0101649383333333, 241.38971502462, 0.000161183301653998, 0.198750000000001,414.250030517578
0.010831175, 241.39759280954, 0.000206307035138099, 0.211250000000001,414.740936279297
0.011498525, 241.405691565357, 0.000329875328442024, 0.225000000000001,414.740936279297
0.0121637316666667, 241.414569953576, 0.000278493909263573, 0.238750000000001,421.033782958984
0.0128311683333333, 241.423874029721, 0.000414721566720167, 0.252500000000001,434.909851074219
0.0134964616666667, 241.433549835066, 0.000467023939630997, 0.266250000000001,429.644165039063
0.0141630866666667, 241.44481932519, 0.000186329538610452, 0.278750000000001,431.647277832031
0.01483114, 241.456052212935, -0.000170204053116377, 0.29125,439.531829833984
0.0154977633333333, 241.466633403551, 4.75970070178439E-05, 0.305000000000001,439.531829833984
0.0161653033333333, 241.476987374392, -2.21869878310379E-05, 0.318750000000001,442.592956542969
0.0168310883333333, 241.48779664581, -9.81821706540071E-05, 0.332500000000001,441.17822265625
0.017497765, 241.497973518814, 0.000427671916249575, 0.345,448.567749023438
0.018164535, 241.508705735109, 0.000284220621634154, 0.358750000000001,444.630706787109
0.018831395, 241.519679787282, 3.27123342254731E-06, 0.372500000000001,444.630706787109
0.0194985966666667, 241.53064821281, 0.000125512093417049, 0.386250000000001,443.945343017578
0.0201635466666667, 241.541425283652, -3.71091584359325E-06, 0.39875,438.218017578125
0.02082973, 241.552449990147, -0.000230285035300256, 0.412500000000001,441.717681884766
0.0214970633333333, 241.563419040268, -0.000124706838392104, 0.426250000000001,440.042358398438
0.0221639483333333, 241.573666393842, 0.000192821212554219, 0.440000000000001,440.042358398438
0.02283032, 241.584644870291, 3.94014186756727E-05, 0.4525,444.102508544922
0.023497705, 241.595283913799, 0.000278597404089906, 0.466250000000001,441.046081542969
0.0241645783333333, 241.605609277147, -4.48493494868522E-05, 0.480000000000001,525.157958984375
0.0248330283333333, 241.615732593814, -4.3713906501045E-05, 0.4925,442.993499755859
0.0254992933333333, 241.626334992581, -0.000244513320591273, 0.50625,442.993499755859
0.0261630916666667, 241.636022004309, 1.38457022933675E-05, 0.520000000000001,434.699310302734
0.0268300183333333, 241.646380721411, 1.37602066023818E-05, 0.5325,433.057342529297
0.0274969016666667, 241.656758495213, 0.000539368305861322, 0.54625,437.431945800781
0.0281636666666667, 241.667558968979, 0.000812120605806354, 0.55875,435.853088378906
0.02883046, 241.678455896548, 0.00068804833788168, 0.5725,435.853088378906
0.02949709, 241.689220658163, 0.000669369776057287, 0.58625,440.541564941406
0.030163185, 241.70031375679, 0.000528403856603146, 0.6,442.314575195313
0.0308302666666667, 241.711324537568, 0.000236472020040525, 0.6125,441.512847900391
0.0314969883333333, 241.72210451847, 0.000175276593812484, 0.627500000000001,442.456115722656
0.032164185, 241.733170800103, 0.000406662471498692, 0.64,442.456115722656
0.0328318616666667, 241.744507596565, 0.000287580452871312, 0.6525,443.349090576172
0.03349941, 241.75536622426, 0.000504061579275618, 0.667500000000001,446.969909667969
0.0341652183333333, 241.766121761626, 0.000488250873399098, 0.678750000000001,440.929260253906
0.03483255, 241.777176408282, 0.000492519658973409, 0.6925,442.271759033203
0.035497745, 241.787681536557, 0.000744733490557706, 0.70625,442.271759033203
0.0361652266666667, 241.798220379742, 0.000992846528100856, 0.72,441.263824462891
0.0368326766666667, 241.809337615085, 0.000704821995288853, 0.7325,429.400512695313
0.0374986583333333, 241.820418275163, 0.000777329853279133, 0.74625,436.634033203125
0.0381643666666667, 241.83098576726, 0.000688865796723963, 0.758750000000001,436.1669921875
0.0388316666666667, 241.84221972182, 0.000507109426151882, 0.772500000000001,436.1669921875
0.0394968383333333, 241.852809312093, 0.000177808466587757, 0.78625,434.943389892578
0.0401646533333333, 241.863049535596, 0.000365780524907136, 0.798750000000001,441.302001953125
0.0408301966666667, 241.873073699675, 0.000548124865930311, 0.81125,520.64794921875
0.0414964633333333, 241.883476974498, 0.000681622660484131, 0.825,434.607055664063
0.0421636966666667, 241.892979124062, 0.000835777417447799, 0.837500000000001,434.607055664063
0.0428297283333333, 241.903021013402, 0.000978286759346687, 0.85125,433.497528076172
0.04349699, 241.912481318756, 0.00111551486650778, 0.865,432.056213378906
0.044164645, 241.922748267445, 0.000991123114600193, 0.877500000000001,437.699554443359
0.0448311533333333, 241.932348157621, 0.000917245825395944, 0.891250000000001,429.176666259766
0.0454966016666667, 241.942424667847, 0.000685556962874008, 0.905,429.176666259766
0.0461636466666667, 241.951869312288, 0.000677890847952457, 0.917500000000001,435.80078125
0.0468297216666667, 241.96182553727, 0.000452278180229569, 0.931250000000001,436.496246337891
0.0474978666666667, 241.970950309624, 0.000571637684935314, 0.943750000000001,438.17919921875
0.0481645, 241.980587222032, 0.000598786321267674, 0.95625,437.370391845703
0.0488310883333333, 241.989660917201, 0.000602534633010292, 0.97,437.370391845703
0.0494969416666667, 241.998958293729, 0.000578139858349904, 0.98375,441.9482421875
0.0501651633333333, 242.008167722732, 0.000485730999955289, 0.997500000000001,438.986755371094
0.0508311116666667, 242.018027158244, 9.76164945405792E-05, 1.01,448.42578125
0.05149923, 242.027849369772, 3.04183698517582E-05, 1.0225,437.262908935547
0.05216529, 242.038807390408, 0.000311459253451964, 1.035,437.262908935547
0.0528311683333333, 242.050708437685, 0.000220865303882849, 1.05,435.3681640625
0.05349713, 242.062259617523, 0.000112008271655313, 1.06375,430.594329833984
0.0541632333333333, 242.07425774622, 0.000245662058368327, 1.07625,427.328826904297
0.054831185, 242.085586960162, 0.000193610172832841, 1.09,427.079711914063
0.0554967366666667, 242.096819865877, -0.000400626979229423, 1.10375,427.079711914063
0.0561630316666667, 242.106562309547, -0.000283223376285592, 1.11625,431.591186523438
0.0568315416666667, 242.116813708996, -1.79002032063959E-05, 1.13,429.061553955078
0.05749789, 242.126380066327, 0.000176280043344534, 1.1425,511.344940185547
0.0581636416666667, 242.135970614703, 0.000312971177526751, 1.15625,424.711700439453
0.0588302433333333, 242.145275585053, 0.000389774819730601, 1.17,424.711700439453
0.0594966566666667, 242.155495352806, 0.000452941146943334, 1.18375,427.043182373047
0.06016381, 242.164658605521, 0.000329104367128717, 1.1975,433.102325439453
0.0608301916666667, 242.174279782722, 6.47636446399247E-05, 1.21,433.291107177734
0.0614966016666667, 242.183253047825, 0.000257433467019217, 1.22375,431.709625244141
0.0621632533333333, 242.192391936709, 0.000670614713354499, 1.2375,431.709625244141
0.0628300333333333, 242.200962181783, 0.000834565478274917, 1.25125,427.298492431641
0.06349639, 242.210554369418, 0.000770856178321934, 1.265,426.724761962891
0.0641646016666667, 242.219152431609, 0.00127951812876106, 1.2775,423.055786132813
0.0648297266666667, 242.22844375056, 0.00119891667733053, 1.29125,425.521148681641
0.0654982233333333, 242.237723704393, 0.00104082911790139, 1.30375,425.521148681641
0.066165075, 242.246902784774, 0.000838858262682188, 1.3175,423.372161865234
0.0668311183333333, 242.25550591728, 0.000894118487005087, 1.33125,430.168090820313
0.0674984733333333, 242.264750149762, 0.000519897783718214, 1.34375,427.065063476563
0.068164445, 242.274310776071, 0.000462527165377357, 1.3575,428.843658447266
0.0688311516666667, 242.283546171448, 0.00049259765499987, 1.37125,428.843658447266
0.069499045, 242.29341211663, 0.000307358459368309, 1.385,429.667022705078
0.0701646066666667, 242.302981095874, 0.000615828465185538, 1.3975,430.138885498047
0.0708311983333333, 242.313082173862, 0.000339357852028461, 1.41125,426.803894042969
0.0714968883333333, 242.322172920908, 0.000287758943769029, 1.42375,425.165588378906
0.0721644283333333, 242.331096144003, 0.000277382464961948, 1.4375,425.165588378906
0.0728296933333333, 242.339753105637, 0.00065562446627534, 1.45125,425.903686523438
0.0734979533333333, 242.348416748416, 7.65950503732159E-05, 1.46375,517.15576171875
0.0741647916666667, 242.356397023425, 0.000411391733864803, 1.4775,430.857696533203
0.0748310783333333, 242.365402319625, 0.000221676763048773, 1.49125,427.904022216797
0.0754986366666667, 242.374736407983, 3.68800452011896E-05, 1.505,427.904022216797
0.0761644683333333, 242.384420388376, -0.000405593229821282, 1.5175,427.956451416016
0.0768311466666667, 242.395019395791, -0.000480961444179927, 1.5325,437.152252197266
0.0774984916666667, 242.405079289075, -0.00050641216583275, 1.545,429.802276611328
0.078165815, 242.41509306369, -0.000296926688035469, 1.5575,432.532257080078
0.0788318133333333, 242.425176084733, -0.000188828617704761, 1.57125,432.532257080078
0.079497845, 242.435659922977, -0.00010982908574946, 1.58375,440.926208496094
0.0801648183333333, 242.446061911888, 0.000137156008451154, 1.5975,442.806732177734
0.0808296716666667, 242.456963296147, 2.7019540516353E-05, 1.61,437.095245361328
0.0814978516666667, 242.467626356734, 0.000184651122820632, 1.62375,440.133697509766
0.0821650533333333, 242.478281547405, 0.000182075752173903, 1.6375,440.133697509766
0.082831545, 242.488630617324, 0.000344651086182738, 1.65125,441.418609619141
0.083499195, 242.498944294883, 0.000562984619565132, 1.66375,432.332946777344
0.0841644983333333, 242.509270309987, 0.00065439452811589, 1.6775,431.001922607422
0.0848311583333333, 242.519908088572, 0.000377428939841976, 1.69,430.91357421875
0.08549792, 242.530665017611, 0.000307203967176028, 1.70375,430.91357421875
0.0861643283333333, 242.540566839252, 0.000159810870569968, 1.7175,427.543975830078
0.0868319366666667, 242.551009567266, -0.000249565066895372, 1.72875,425.821838378906
0.0874972116666667, 242.561403836428, -0.000671885354171253, 1.7425,423.142608642578
0.0881632733333333, 242.571800431215, -0.000961207321847124, 1.75625,434.982116699219
0.088831135, 242.581912862157, -0.00110311369402963, 1.76875,434.982116699219
0.08949683, 242.592467104126, -0.00100036435501361, 1.7825,426.931610107422
0.0901646, 242.602806143064, -0.000869870909592126, 1.795,515.15576171875
0.0908315816666667, 242.61305841912, -0.000800412398445021, 1.80875,425.38134765625
0.09149846, 242.6229121442, -0.000664438228297595, 1.8225,428.957061767578
0.0921660466666667, 242.632526231034, -0.000410988458834981, 1.835,428.957061767578
0.092831135, 242.642112377819, -0.000564814732311826, 1.84875,429.124969482422
0.0934993766666667, 242.651250780095, -0.000702785302180055, 1.8625,429.579437255859
0.094164915, 242.660325219971, -0.000517993084105681, 1.87375,432.369171142578
0.0948300666666667, 242.670171095513, -0.000298203123893928, 1.8875,421.62451171875
0.0954972333333333, 242.680162175856, -0.000407406638701124, 1.9025,421.62451171875
0.0961635083333333, 242.689491834015, -0.00014483132761754, 1.91625,411.489868164063
0.0968296816666667, 242.698058881574, 2.44921674717816E-05, 1.92875,417.484527587891
0.09749803, 242.70712349187, -0.0002937708464959, 1.94125,418.231781005859
0.0981631083333333, 242.714419961815, -0.000561271910212454, 1.955,416.263824462891
0.0988301916666667, 242.722462087518, -0.000725548158792141, 1.96875,416.263824462891
0.0994970133333333, 242.730046400226, -0.000874211691580301, 1.98125,419.857238769531
0.10016327, 242.739226878725, -0.00085944493330099, 1.995,421.095855712891
0.100830285, 242.746922237495, -0.000129611592083429, 2.0075,417.211639404297
0.101497016666667, 242.755687867408, 0.000146350546615928, 2.02125,426.386962890625
0.102163251666667, 242.763688454134, 5.80079839799301E-05, 2.035,426.386962890625
0.102830485, 242.772620506584, 0.00012801096785545, 2.04875,422.230346679688
0.103496778333333, 242.780349281733, 2.44111715327516E-05, 2.06125,417.511749267578
0.104163471666667, 242.789122302488, -0.000422653372874494, 2.075,419.032684326172
0.104830211666667, 242.797437208023, -0.000918153484422093, 2.08875,416.604797363281
0.105496766666667, 242.805397853181, -0.000778856981126336, 2.10125,416.604797363281
0.106163838333333, 242.813253865132, -0.00112468711046241, 2.11625,415.953247070313
0.106831876666667, 242.821150696277, -0.00135317813358274, 2.12875,511.146697998047
0.107498735, 242.828882089945, -0.00129534253863437, 2.1425,426.992584228516
0.10816462, 242.836102393997, -0.00110905039588043, 2.155,416.474914550781
0.108830196666667, 242.843848617881, -0.00134118173616509, 2.16875,416.474914550781
0.109496786666667, 242.851119444096, -0.000995606594041332, 2.1825,422.076263427734
0.110163445, 242.858429116948, -0.00095221677348621, 2.19625,419.828491210938
0.110830086666667, 242.865739577789, -0.00112407064140515, 2.20875,414.729400634766
0.1114975, 242.873091756913, -0.000865189644743156, 2.2225,419.939697265625
0.112163548333333, 242.880653885872, -0.000595204705810979, 2.23625,419.939697265625
0.11283028, 242.888345008231, -0.00064733008762097, 2.25,416.999298095703
0.113496978333333, 242.895984594145, -0.000395828720298254, 2.2625,415.65673828125
0.114163281666667, 242.903672182744, -0.000389776524289658, 2.275,413.77392578125
0.114832435, 242.911900930824, -0.000484831249799209, 2.28875,411.374755859375
0.115498568333333, 242.918764679207, -0.000292353417764788, 2.3025,411.374755859375
0.116165216666667, 242.926713763425, -0.000268185131753054, 2.31625,411.180938720703
0.116832568333333, 242.933938904651, -0.000197646674801809, 2.33,406.911560058594
0.117498015, 242.941058688711, 5.70675311452923E-05, 2.3425,409.786834716797
0.118166166666667, 242.948101282496, 0.000213295183974327, 2.355,408.646148681641
0.118829566666667, 242.95608501045, 0.000252668206297395, 2.36875,408.646148681641
0.119497785, 242.963646772286, 0.000494271570867701, 2.38125,403.076538085938
0.120163596666667, 242.971950186062, 0.000443553118381761, 2.395,405.229064941406
0.120831146666667, 242.980138048595, 0.000872182088781704, 2.40875,406.185211181641
0.121498295, 242.988997635071, 0.000839087751073379, 2.42125,402.363433837891
0.122163265, 242.998117190262, 0.000731732143428554, 2.435,402.363433837891
0.122831223333333, 243.0071271538, 0.000620035753816807, 2.4475,396.0263671875
0.12349839, 243.016757178057, 0.000787178358419965, 2.46125,483.561065673828
0.124165205, 243.026123410788, 0.000588741325689949, 2.47375,399.660522460938
0.124830443333333, 243.035688573141, 0.000710463211755907, 2.4875,403.106140136719
0.12549816, 243.044709211576, 0.000724142524694078, 2.50125,403.106140136719
0.126165106666667, 243.054220742288, 0.00067641492202084, 2.515,402.904724121094
0.126831138333333, 243.063841033766, 0.000465579512111848, 2.5275,400.059387207031
0.127497783333333, 243.073739779199, 5.64585618163156E-05, 2.54,403.57568359375
0.128165103333333, 243.083563495863, -0.000130769533914031, 2.55375,406.416778564453
0.128831226666667, 243.093574840672, -0.000219859059051629, 2.56625,406.416778564453
0.129496878333333, 243.102938567202, 8.77109920173743E-05, 2.58,403.180114746094
0.13016455, 243.112007421363, 0.000370877268858316, 2.59375,407.518920898438
0.130830131666667, 243.121115793616, 0.000314345108428914, 2.60625,402.905883789063
0.131496878333333, 243.130304343489, 0.000412045701032148, 2.61875,403.517181396484
0.13216364, 243.139771403927, 0.000234325627709364, 2.6325,403.517181396484
0.132829858333333, 243.14915193788, -4.60837876320532E-05, 2.64625,401.173614501953
0.13349782, 243.158784264967, -0.000190381039738436, 2.65875,408.055023193359
0.134163563333333, 243.168128852675, 0.000255308073757227, 2.67125,410.260955810547
0.134830195, 243.177500579475, 5.16933011157474E-05, 2.68625,409.608795166016
0.135497471666667, 243.186787278573, 0.000337520444294404, 2.69875,409.608795166016
0.136164486666667, 243.196821967156, 0.000126221557638535, 2.7125,408.918548583984
0.136830236666667, 243.206725590067, -0.000201325989958115, 2.725,410.163757324219
0.137496961666667, 243.216825499464, -0.000582503343817528, 2.73875,412.7666015625
0.138163285, 243.226110335114, -0.000164316848877156, 2.75125,407.760925292969
0.138829678333333, 243.235717328301, 2.09508453180669E-05, 2.765,407.760925292969
0.139496961666667, 243.244838072763, 0.000254445617119083, 2.7775,412.585998535156
0.140165416666667, 243.254069812412, 0.000523772089110706, 2.79125,484.848419189453
0.140831775, 243.263674368143, 0.000663958047726374, 2.805,407.415832519531
0.14149829, 243.273864105249, 0.000532894630925377, 2.81875,403.345031738281
0.142165191666667, 243.284547790033, 5.67855453999881E-05, 2.8325,403.345031738281
0.142841888333333, 243.29551220268, -0.000264336324969147, 2.845,407.835479736328
0.143497266666667, 243.3058678777, -0.000214103848117387, 2.85875,404.778411865234
0.144163715, 243.316460632548, -4.06930583278018E-05, 2.8725,406.129425048828
0.144830361666667, 243.327065839459, -0.000474856750753455, 2.885,401.910186767578
0.145496591666667, 243.337376931168, -0.000288500111271434, 2.89875,401.910186767578
0.14616455, 243.347623228764, -0.000165455291690516, 2.9125,399.613189697266
0.14683049, 243.358204122851, -0.000283466364081428, 2.92625,403.936828613281
0.147496936666667, 243.368859349746, -0.000387651131006413, 2.93875,399.419250488281
0.148163613333333, 243.379258125919, 5.31932258590709E-05, 2.9525,404.907470703125
0.148831203333333, 243.389576485237, -4.79286949031094E-05, 2.96625,404.907470703125
0.149496588333333, 243.399762081261, -6.01815794574783E-05, 2.98,402.158020019531
0.150165206666667, 243.409990710121, 9.21942668663678E-05, 2.9925,402.993041992188
0.150830351666667, 243.420445201273, -4.20139127223731E-06, 3.00625,401.141052246094
0.151496306666667, 243.430871023744, -0.000272297925019393, 3.01875,401.062744140625
0.152163791666667, 243.441008648098, -1.78192072248577E-05, 3.0325,401.062744140625
0.152829975, 243.451172494933, 0.000266562008595264, 3.04625,397.642822265625
0.153497088333333, 243.461383562225, 6.22062731497964E-05, 3.06,403.626281738281
0.154163628333333, 243.471153535129, 9.80634720765124E-05, 3.0725,407.503631591797
0.154829888333333, 243.481219666028, 1.74845194482774E-05, 3.08625,400.730010986328
0.155497006666667, 243.491354884289, -0.000224882306728304, 3.1,400.730010986328
0.156163145, 243.50208662502, -0.000588996517621936, 3.1125,484.659729003906
