Time (min), Depth (µm), Load (N), Position (µm), Acoustic (aJ)
9.26833333333333E-06, 241.215447244324, -0.000173318724620575, 0,310.906524658203
0.000666043333333333, 241.216027136049, -0.000458392905642526, 0.00625000000000105,306.603698730469
0.00133113333333333, 241.21699682088, -0.000832516113800679, 0.0187500000000014,306.603698730469
0.00199781666666667, 241.218891650323, -0.000660597749068639, 0.0325000000000013,327.992401123047
0.00266462666666667, 241.222650713271, -0.000999906205930374, 0.0475000000000007,325.129241943359
0.003331015, 241.229091345974, -0.00153635126087321, 0.0612500000000005,323.797241210938
0.00399925833333333, 241.236787544226, -0.00142189500991314, 0.0750000000000004,323.797241210938
0.00466603333333333, 241.246105544025, -0.00107398448508968, 0.0887500000000003,326.791290283203
0.00533262333333333, 241.256313371423, -0.00131865669547789, 0.1025,336.226409912109
0.00599934666666667, 241.266820786702, -0.00117942768882279, 0.11625,326.566253662109
0.00666597166666667, 241.276877610325, -0.000647372913373435, 0.12875,267.553344726563
0.00733275833333333, 241.28758180496, -0.000755547479848709, 0.1425,267.553344726563
0.00799923, 241.298005435092, -0.000836567410336518, 0.15625,328.777648925781
0.00866598166666667, 241.308880070662, -0.000990105698264176, 0.168750000000001,329.095703125
0.00933136666666667, 241.319729858768, -0.000867425360355758, 0.1825,333.619384765625
0.00999802333333333, 241.33030695297, -0.00101227158487875, 0.195000000000001,330.930541992188
0.0106644333333333, 241.338923938924, -0.000620011287690796, 0.208750000000001,330.930541992188
0.0113325033333333, 241.348501423419, -0.000669202816857916, 0.2225,338.277313232422
0.0119992116666667, 241.357314140354, -0.000448287913173688, 0.23625,343.665283203125
0.0126659366666667, 241.365974531268, -0.000341893757241384, 0.248750000000001,342.508911132813
0.0133325766666667, 241.375269743676, -0.000162727756560065, 0.261250000000001,345.605102539063
0.0139993783333333, 241.386446732504, -0.000152829753722638, 0.275000000000001,345.605102539063
0.0146660916666667, 241.396344658498, 0.000298107596152696, 0.288750000000001,349.439544677734
0.0153325883333333, 241.406961779823, 0.000542037343791267, 0.302500000000001,425.917205810547
0.0159993483333333, 241.41778417656, 0.000638830481960497, 0.316250000000001,354.361663818359
0.0166660233333333, 241.428722489368, 0.000779961393098997, 0.328750000000001,356.485534667969
0.01733213, 241.439210437261, 0.000789052436458692, 0.342500000000001,359.507019042969
0.017997735, 241.450509793715, 0.000540250933508175, 0.356250000000001,359.507019042969
0.01866561, 241.461973367869, 0.000333198333581822, 0.368750000000001,354.085357666016
0.0193311283333333, 241.473050690044, 0.00018111797242918, 0.382500000000001,360.720458984375
0.019997745, 241.484230312927, -0.000258881926827237, 0.395000000000001,353.652130126953
0.020665895, 241.495221618913, -0.000399118882915124, 0.408750000000001,353.652130126953
0.0213326216666667, 241.506306509462, -0.000278800926366919, 0.422500000000001,353.503234863281
0.0219993016666667, 241.516967159457, -0.000280296351230762, 0.436250000000001,353.649047851563
0.0226663083333333, 241.52812604054, -1.92389638983245E-05, 0.450000000000001,360.671813964844
0.0233326766666667, 241.538689286171, 0.000243756326124442, 0.462500000000001,359.792785644531
0.024002175, 241.550426125294, 0.000194197315436015, 0.476250000000001,359.792785644531
0.0246660366666667, 241.560996439762, 0.00021082997999179, 0.490000000000001,367.768280029297
0.02533259, 241.57263685532, 0.000191846933492282, 0.502500000000001,360.070587158203
0.0259983966666667, 241.583395403894, 0.000143927340474173, 0.516250000000001,357.498504638672
0.0266652833333333, 241.594732637834, 2.09560171890148E-05, 0.530000000000001,354.057800292969
0.0273310933333333, 241.605246353538, -1.10538749844678E-05, 0.542500000000001,354.057800292969
0.027997725, 241.616439121255, -8.63815913629708E-05, 0.556250000000001,357.261535644531
0.0286659616666667, 241.626828118767, 1.32224056268093E-05, 0.570000000000001,358.912719726563
0.02933251, 241.638003364324, -0.000276527040589006, 0.583750000000001,360.430572509766
0.0299993033333333, 241.648779026796, -0.000113338237371714, 0.596250000000001,357.890258789063
0.030666205, 241.659674971639, 1.68207248865937E-05, 0.610000000000001,357.890258789063
0.031332575, 241.670607506724, -1.92764619658977E-05, 0.6225,360.970397949219
0.031999225, 241.681575494668, 0.000234293301470231, 0.636250000000001,432.797454833984
0.0326660533333333, 241.697764416878, 0.000259583531211905, 0.6525,357.074157714844
0.033499395, 241.70880589632, 0.000143552359309596, 0.667500000000001,363.504302978516
0.0341654083333333, 241.720196778824, 0.000219708034086222, 0.68,353.3935546875
0.0348312566666667, 241.731103633147, 0.000154204824228132, 0.6925,353.3935546875
0.0354977983333333, 241.742487407838, 0.000157102678642816, 0.70625,354.684936523438
0.0361645033333333, 241.752762149391, 0.000290481979147525, 0.72,355.194183349609
0.0368326666666667, 241.763541664815, 0.000285575725595559, 0.7325,352.069946289063
0.0374992466666667, 241.773626914731, 0.000515925155391591, 0.74625,352.4833984375
0.0381661383333333, 241.784412268514, 0.000536612116332011, 0.758750000000001,352.4833984375
0.0388325816666667, 241.794841513749, 0.000379358515019861, 0.772500000000001,352.932922363281
0.0394992116666667, 241.805786474777, 0.000304831758400222, 0.78625,351.714019775391
0.040166085, 241.816748208552, 5.57872676538697E-05, 0.798750000000001,348.529754638672
0.0408326566666667, 241.827551303613, -0.000212097776773681, 0.81125,279.458557128906
0.04150025, 241.837979004316, -0.000450021826060157, 0.825,279.458557128906
0.0421659583333333, 241.848599263042, -0.000339480378430206, 0.838750000000001,346.924957275391
0.0428313166666667, 241.859123944969, -0.00017101184039952, 0.85125,352.396087646484
0.04349782, 241.86885378871, 0.000253159353908793, 0.866250000000001,348.858551025391
0.04416436, 241.879038273025, 0.000494147749303731, 0.877500000000001,351.767974853516
0.044832555, 241.889097453382, 0.000539173987659112, 0.891250000000001,351.767974853516
0.045499265, 241.899248893438, 0.000379499507956275, 0.905,346.475860595703
0.046165995, 241.909234863954, 0.000382646349864408, 0.917500000000001,345.520111083984
0.0468327316666667, 241.919542688897, 0.000166495206956345, 0.931250000000001,351.266754150391
0.047499415, 241.929396455278, 4.47433224023217E-05, 0.943750000000001,351.014373779297
0.0481659766666667, 241.93933469633, 0.000103921349925407, 0.957500000000001,351.014373779297
0.0488326066666667, 241.949219255918, 0.000179150071250787, 0.97,424.834930419922
0.04949933, 241.958839368299, -0.000113369735784182, 0.98375,359.007965087891
0.0501661583333333, 241.968617735398, -0.000106410085384091, 0.997500000000001,363.154510498047
0.0508318983333333, 241.978574871643, -1.63606084583743E-05, 1.01,355.993530273438
0.0514979033333333, 241.98885276433, -0.000263902174676359, 1.0225,355.993530273438
0.0521655816666667, 241.998996707376, -0.000110195895173028, 1.035,352.885162353516
0.0528328983333333, 242.010869984119, -0.000277178007801274, 1.05,354.835205078125
0.0534996583333333, 242.02225760847, -6.42787014883175E-05, 1.06375,351.95556640625
0.0541662483333333, 242.033350070269, -0.000255472598042263, 1.07625,355.041778564453
0.0548328216666667, 242.043760835186, 6.14194848082996E-05, 1.09,355.041778564453
0.0554995033333333, 242.054523913348, -0.000159615412849444, 1.10375,357.065704345703
0.0561661583333333, 242.063476392329, -0.000104287691907145, 1.11625,353.31640625
0.0568328183333333, 242.072965028754, -0.000233032225176877, 1.1325,352.699157714844
0.0576663266666667, 242.082547250726, 6.13489883826006E-05, 1.1475,355.977722167969
0.0583328983333333, 242.092496154648, -0.000172367772272606, 1.16,352.200653076172
0.0589990966666667, 242.102130452189, -0.000359244885628828, 1.17375,352.200653076172
0.0596647266666667, 242.112301452959, -0.000389739853921225, 1.1875,347.140258789063
0.0603329833333333, 242.122133645292, -0.000357386478995634, 1.2,354.633850097656
0.06099803, 242.13203058202, -0.000429475858056151, 1.215,347.478851318359
0.0616646466666667, 242.142207213469, -0.000451292262263511, 1.2275,355.945953369141
0.062332025, 242.152178405269, -0.000161206832960112, 1.24125,355.945953369141
0.0629979966666667, 242.16185509743, 0.000239430543444061, 1.25375,349.086456298828
0.0636646, 242.171407173753, 0.000292136396061876, 1.2675,349.970733642578
0.06433129, 242.18113627991, 0.000448998517062268, 1.28,348.161468505859
0.06499798, 242.190604443139, 0.000583420265197273, 1.29375,419.419769287109
0.0656646, 242.200109047597, 0.000548128537876856, 1.3075,350.343933105469
0.0663312983333333, 242.210310739064, 6.70906999121977E-05, 1.32,350.343933105469
0.0669979483333333, 242.220130491705, -8.11753528453367E-05, 1.33375,349.9912109375
0.0676648233333333, 242.230212958785, -0.000314044656063924, 1.3475,352.764892578125
0.0683313316666667, 242.240370438819, -0.000285192105311905, 1.36125,353.273895263672
0.06899797, 242.250651966918, -0.000387812450786735, 1.37375,353.273895263672
0.0696647816666667, 242.260797573035, -0.000304721124379216, 1.3875,355.736785888672
0.0703312933333333, 242.271668537055, -0.000428755894257571, 1.4025,352.749572753906
0.0709996933333333, 242.28230222713, -0.000454919080086958, 1.415,350.051300048828
0.0716662216666667, 242.292998767564, -0.000610260277444889, 1.4275,348.988861083984
0.0723330016666667, 242.304032020002, -0.000845863943339459, 1.44125,348.988861083984
0.0729996716666667, 242.314442413966, -0.000781632669609126, 1.455,351.169921875
0.0736663016666667, 242.324760990667, -0.000706901923228136, 1.46875,349.577209472656
0.0743312733333333, 242.33511764392, -0.000959678226569925, 1.4825,348.924499511719
0.0749980916666667, 242.346117967214, -0.000926598888105633, 1.495,349.182891845703
0.07566465, 242.356079698156, -0.000743872066274611, 1.5075,349.182891845703
0.0763313216666667, 242.366519695114, -0.000571623718131346, 1.52125,358.887420654297
0.0769978916666667, 242.376239255632, -0.000774163044826911, 1.535,352.576293945313
0.077664765, 242.386219194682, -0.000604559063810417, 1.54875,357.954803466797
0.07833194, 242.395249829007, -0.000546568976584745, 1.56125,346.010314941406
0.0789984966666667, 242.405535762135, -0.00067122321536917, 1.57375,346.010314941406
0.0796646616666667, 242.415601116178, -0.000789958751416889, 1.58875,352.303161621094
0.0803318083333333, 242.426082466143, -0.000344197641507362, 1.60125,354.225067138672
0.0809980016666667, 242.43619282738, -0.000484317603470541, 1.61375,423.452911376953
0.0816660633333333, 242.446938106582, -0.000678769336380969, 1.6275,358.713470458984
0.0823328733333333, 242.457061922816, -0.000452256713846093, 1.64125,346.792694091797
0.0829995583333333, 242.467258468162, -0.000630515260093409, 1.65375,346.792694091797
0.0836662616666667, 242.477636108993, -0.000765802464757873, 1.6675,349.715118408203
0.08433247, 242.488187083306, -0.00073505250925316, 1.68125,347.158508300781
0.0849979983333333, 242.498190524858, -0.000513206152365729, 1.6925,347.430328369141
0.085664755, 242.508362902214, -0.000473875127947207, 1.70625,347.430328369141
0.0863313683333333, 242.518269537878, -0.000408286422398131, 1.72,346.823303222656
0.0869979766666667, 242.528708214319, -0.000498035914358179, 1.7325,350.035766601563
0.087664695, 242.538358849006, -0.000662559650528166, 1.7475,342.322143554688
0.088332925, 242.548609965284, -0.00112417196418808, 1.76,343.427764892578
0.0889999783333333, 242.557915888368, -0.00103053616739781, 1.7725,343.427764892578
0.089666675, 242.567857767641, -0.00130271099634132, 1.78625,345.670623779297
0.0903328383333333, 242.577048887917, -0.00164885011016823, 1.79875,342.682220458984
0.09099994, 242.586631290288, -0.00170966305558842, 1.8125,338.455261230469
0.0916649016666667, 242.595477274929, -0.00172508828080829, 1.82625,345.516876220703
0.09233138, 242.605178238131, -0.00188347282531178, 1.83875,345.516876220703
0.0929988683333333, 242.614020982444, -0.00185116744798835, 1.8525,344.39208984375
0.093666375, 242.622756409303, -0.00168528478007521, 1.865,344.090942382813
0.09433126, 242.631208602123, -0.00149360940770281, 1.87875,347.108551025391
0.09499817, 242.641147498778, -0.00139410290584174, 1.89125,345.241149902344
0.0956651916666667, 242.650465487663, -0.001415350838594, 1.90625,345.241149902344
0.09633187, 242.659818136292, -0.00138882017117954, 1.91875,338.604187011719
0.0969980783333333, 242.669209333277, -0.00122010414562232, 1.93125,347.777801513672
0.097664755, 242.678720685166, -0.00113156359294384, 1.945,416.337158203125
0.0983314433333333, 242.686558721577, -0.00108749730633407, 1.9575,343.642150878906
0.098997865, 242.694815198714, -0.00111662284336999, 1.97125,347.846099853516
0.09966624, 242.703083794107, -0.00121301850152985, 1.98625,347.846099853516
0.100333001666667, 242.711029426274, -0.00119788126185917, 1.99875,349.878784179688
0.100998665, 242.71910169577, -0.000973302042220159, 2.01125,345.452758789063
0.101665268333333, 242.727577098586, -0.000888304311577287, 2.025,353.021545410156
0.102333091666667, 242.735710119306, -0.00102361101525899, 2.03875,353.021545410156
0.102998076666667, 242.743615491246, -0.000737302396219366, 2.0525,362.581359863281
0.10366521, 242.751899415055, -0.000826637909001607, 2.06625,351.701843261719
0.104331296666667, 242.760067807655, -0.000970233196359741, 2.07875,339.177001953125
0.10499822, 242.768156141804, -0.000910626190351053, 2.0925,339.177001953125
0.105664628333333, 242.776381738973, -0.00073971577500929, 2.105,350.998016357422
0.106331306666667, 242.78483688506, -0.000547668421342366, 2.11875,343.800109863281
0.10699793, 242.793275456772, -0.000599816302018406, 2.1325,352.600860595703
0.107664591666667, 242.801557170585, -0.000832454616857638, 2.14625,347.164123535156
0.108331803333333, 242.810051481166, -0.00097653437988304, 2.15875,347.164123535156
0.108997933333333, 242.818253706322, -0.0012586387100977, 2.1725,341.942626953125
0.109665168333333, 242.826589815154, -0.00156510781650593, 2.18625,342.798461914063
0.110331255, 242.834265663028, -0.00154271694118836, 2.19875,341.951965332031
0.110998026666667, 242.842063962765, -0.00119086611425616, 2.2125,349.8681640625
0.11166467, 242.849417493631, -0.00105750481286554, 2.22625,342.871307373047
0.112331301666667, 242.857335733264, -0.00125919818202764, 2.23875,342.871307373047
0.112998031666667, 242.864592564575, -0.00115963168310543, 2.2525,343.786560058594
0.113664986666667, 242.872952532705, -0.00138726924907027, 2.26625,343.790252685547
0.114331253333333, 242.881350169719, -0.00160972757524176, 2.27875,408.188232421875
0.114997966666667, 242.890248433321, -0.00167758116702233, 2.2925,342.076416015625
0.115664641666667, 242.898320835978, -0.00120909769843835, 2.30625,340.016845703125
0.116331241666667, 242.907012855205, -0.00127126357594658, 2.31875,340.016845703125
0.116998001666667, 242.915044075036, -0.000893405555344185, 2.3325,335.923858642578
0.117664876666667, 242.922792046514, -0.000649639299444315, 2.345,339.676483154297
0.118331291666667, 242.930473368701, -0.000418388414911892, 2.35875,340.272827148438
0.118998163333333, 242.938389986262, -0.000234290661942497, 2.37125,340.272827148438
0.119664975, 242.946485945525, -1.23003122698454E-05, 2.38625,337.924926757813
0.120333068333333, 242.954377103473, -0.000170597861179204, 2.39875,336.026153564453
0.120999546666667, 242.962740145513, -0.000157491519469349, 2.41125,339.6533203125
0.121666655, 242.970600983733, -0.000217182521265873, 2.42625,332.932861328125
0.122332798333333, 242.978768402473, -0.000181185829327145, 2.4375,332.932861328125
0.122998083333333, 242.986101431789, -0.000218445457847211, 2.45125,337.785034179688
0.123664668333333, 242.994478393509, -0.000404110632094314, 2.465,337.525299072266
0.12433126, 243.001974835061, -0.000687593393069359, 2.4775,331.142272949219
0.124997895, 243.009391992996, -0.000572799659076041, 2.49125,335.1435546875
0.12566479, 243.016783570606, -0.000599718806953449, 2.50375,335.1435546875
0.126333183333333, 243.024784264737, -0.000378947896033187, 2.5175,334.178344726563
0.126998083333333, 243.032423036559, 0.000138713602377031, 2.53125,331.021209716797
0.127664751666667, 243.041019004729, 0.000505166195840424, 2.54375,330.542541503906
0.128331318333333, 243.050284484277, 0.000517890056763686, 2.55625,330.569610595703
0.128997921666667, 243.059743161755, 0.000660853875841778, 2.57125,330.569610595703
0.129664723333333, 243.069331904208, 0.000555058189831391, 2.58375,330.682098388672
0.130331925, 243.078512874084, 0.000716528079363738, 2.59625,337.362609863281
0.13099856, 243.087980653051, 0.000676718578933052, 2.61,400.048980712891
0.131664596666667, 243.0973090954, 0.000728722466823872, 2.6225,337.96484375
0.132331336666667, 243.106989320463, 0.000563547763377854, 2.63625,334.053527832031
0.132998586666667, 243.11632466845, 0.000434491245747228, 2.64875,334.053527832031
0.133664745, 243.1261248142, 0.000173190870576446, 2.6625,334.716125488281
0.134331223333333, 243.136002423487, 9.59702493034747E-05, 2.67625,335.553863525391
0.13499821, 243.145930789477, -7.8808471733168E-05, 2.68875,335.220886230469
0.135664718333333, 243.15530385719, 0.000293550825092959, 2.7025,335.220886230469
0.136331856666667, 243.165168051228, 0.000175665746309412, 2.715,336.511016845703
0.136998061666667, 243.174966150614, -0.000122210291683517, 2.72875,340.976867675781
0.137664578333333, 243.184559474393, -0.000483890124909342, 2.7425,342.82763671875
0.138331733333333, 243.193650918757, -0.000485310553574276, 2.755,337.190795898438
0.13899839, 243.202872987665, -0.000854419513644683, 2.76875,337.190795898438
0.139665141666667, 243.212416073615, -0.000752318142077142, 2.7825,341.447326660156
0.140331351666667, 243.222350768493, -0.000994644470294836, 2.79625,337.660430908203
0.140998093333333, 243.232066888326, -0.000813651561350283, 2.80875,339.809265136719
0.141664758333333, 243.242562765712, -0.000966240396960645, 2.82125,338.737426757813
0.142331525, 243.253677319349, -0.00101760381700375, 2.835,338.737426757813
0.142997986666667, 243.264780891646, -0.00122287300651707, 2.84875,338.295227050781
0.14366558, 243.275661911379, -0.000740648728136895, 2.8625,331.544647216797
0.144331381666667, 243.286545137896, -0.000595941996625914, 2.87625,338.405212402344
0.144998383333333, 243.297171891977, -0.00010175431916496, 2.88875,338.325836181641
0.14566469, 243.307563689137, -0.000273495692796162, 2.9025,338.325836181641
0.146331265, 243.318054223357, -0.000251014822014396, 2.91625,335.916412353516
0.146997906666667, 243.327952397088, -0.000341803761777188, 2.92875,338.318786621094
0.147665441666667, 243.337996884846, -0.000522319694633981, 2.9425,396.261993408203
0.148331795, 243.34735477477, -0.000659606298889307, 2.955,340.533843994141
0.148997941666667, 243.356613471302, -0.000664616047246352, 2.96875,338.929443359375
0.149665161666667, 243.365652634615, -0.000573422127830918, 2.9825,338.929443359375
0.15033183, 243.374954364726, -0.000257860478181094, 2.99625,335.893615722656
0.150997998333333, 243.384117633123, -7.19898142694907E-05, 3.00875,331.762145996094
0.151664825, 243.394934559317, -0.000438398909925189, 3.0225,342.864562988281
0.152331508333333, 243.405293493415, -0.0001307013652394, 3.03625,342.864562988281
0.15299841, 243.415655247623, 3.43068465766012E-05, 3.05,335.707977294922
0.153665315, 243.425782320053, 0.000144408816292635, 3.06375,336.401336669922
0.154332345, 243.436450019154, 0.000287174645328243, 3.0775,331.494018554688
0.154999535, 243.446449661181, 0.000449667483494899, 3.09,333.278900146484
