Time (min), Depth (µm), Load (N), Position (µm), Acoustic (aJ)
9.71E-06, 241.310179193323, 0.000334983294419042, 0,285.910888671875
0.00066655, 241.310251829199, 0.000356697703703219, 0.0049999999999998,285.910888671875
0.00133220333333333, 241.310917469424, 0.000188380658101024, 0.0175000000000002,344.145172119141
0.00199888, 241.313231271151, 0.000363889842492086, 0.0325000000000013,287.072845458984
0.002664925, 241.317088122569, 7.52983381281267E-05, 0.0475000000000007,297.891296386719
0.003331895, 241.322899380719, -0.000179382869503357, 0.0612500000000005,300.818511962891
0.00399866666666667, 241.329595849801, -0.000348746862487804, 0.0737500000000009,300.818511962891
0.0046649, 241.336476286794, -0.000119472878680195, 0.0887500000000003,313.371032714844
0.00533199166666667, 241.343885282174, -0.000305400539740376, 0.1025,314.835754394531
0.00599832833333333, 241.351641249064, -0.000405238524958319, 0.11625,316.126708984375
0.00666494333333333, 241.359279593815, -0.000263605139080966, 0.12875,313.793853759766
0.00733182666666667, 241.367177229924, -0.000271412246938931, 0.1425,313.793853759766
0.00799834166666667, 241.375315265491, -0.000265367550573605, 0.15625,318.491455078125
0.008665195, 241.38351980827, -0.000274668583413519, 0.168750000000001,333.415191650391
0.00933207333333333, 241.390927996366, -5.98557911841814E-06, 0.1825,329.917938232422
0.00999853666666667, 241.397723500252, 0.000309171090878764, 0.195000000000001,332.856018066406
0.010665565, 241.403541366783, 0.000755382178130523, 0.208750000000001,332.856018066406
0.01133254, 241.409464283604, 0.000816858090264481, 0.221250000000001,338.824890136719
0.0119984466666667, 241.415451418913, 0.00112645903935807, 0.235000000000001,351.253112792969
0.0126650166666667, 241.421916194851, 0.00114736498926137, 0.247500000000001,359.403045654297
0.013332355, 241.429616227953, 0.000852364306880834, 0.261250000000001,360.810302734375
0.0139987716666667, 241.438205260611, 0.000839508452673848, 0.275000000000001,360.810302734375
0.0146650583333333, 241.446760003626, 0.000765637163145957, 0.288750000000001,367.099029541016
0.0153321733333333, 241.456013835273, 0.000345269777740675, 0.302500000000001,372.683532714844
0.0160002966666667, 241.465502669412, 0.000144603857007353, 0.315000000000001,367.606231689453
0.0166652266666667, 241.474287625664, 0.000236168257792901, 0.327500000000001,373.185241699219
0.0173335033333333, 241.483807633115, 8.56223195385863E-05, 0.341250000000001,373.185241699219
0.0179987533333333, 241.493927654783, 0.000137258725886845, 0.355000000000001,454.428771972656
0.0186665416666667, 241.504310271729, 0.00028485581227551, 0.368750000000001,374.387664794922
0.01933215, 241.514862581019, 0.000456588186339038, 0.382500000000001,372.364532470703
0.0199986933333333, 241.525822835147, 0.000286148747344914, 0.396250000000001,372.382659912109
0.0206650516666667, 241.536413140951, 0.000276316741181231, 0.408750000000001,372.382659912109
0.0213317783333333, 241.546775238726, 0.000306975201233583, 0.422500000000001,374.028289794922
0.0219997983333333, 241.557101475867, 0.000443435346951427, 0.436250000000001,375.498046875
0.0226655816666667, 241.567282508075, 0.00058229687206397, 0.448750000000001,376.062530517578
0.02333224, 241.57711178737, 0.000865686637683505, 0.462500000000001,376.277008056641
0.0239986933333333, 241.587527702609, 0.000718355038020487, 0.476250000000001,376.277008056641
0.0246649533333333, 241.597529863086, 0.000886601587175729, 0.488750000000001,367.309051513672
0.0253321316666667, 241.607606155067, 0.000649841479396214, 0.502500000000001,364.362823486328
0.0259988233333333, 241.617134758497, 0.000612014879387955, 0.516250000000001,364.829986572266
0.0266650483333333, 241.627198428377, 0.000569225028679151, 0.528750000000001,369.721801757813
0.027331675, 241.637357098516, 0.00065332280453129, 0.542500000000001,369.721801757813
0.0279982233333333, 241.647811022262, 0.000305557772396201, 0.556250000000001,374.007659912109
0.028664965, 241.657679196556, 0.000589853492504082, 0.570000000000001,371.058685302734
0.029331675, 241.668533270583, 0.000452214405971482, 0.582500000000001,370.643981933594
0.02999886, 241.678879661622, 0.000351524463564965, 0.596250000000001,373.013763427734
0.0306650216666667, 241.689259868801, 0.000419174065584183, 0.60875,373.013763427734
0.0313326383333333, 241.699688447363, 0.000697879566505942, 0.6225,368.824157714844
0.0320001816666667, 241.709874588003, 0.000604980232746446, 0.636250000000001,374.801727294922
0.0326655466666667, 241.720409651598, 0.000725809663622432, 0.650000000000001,374.122650146484
0.033331915, 241.731259224079, 0.000568452567462695, 0.6625,369.680358886719
0.0339998083333333, 241.741996797677, 0.000690732425470427, 0.67625,369.680358886719
0.03466641, 241.752673350176, 0.000568265076891034, 0.690000000000001,452.443939208984
0.0353330866666667, 241.764023102807, 0.000497407135999386, 0.7025,366.359985351563
0.0359998133333333, 241.774768562399, 0.000667675583569031, 0.71625,368.793121337891
0.0366649566666667, 241.785362433852, 0.000886352599661025, 0.72875,370.900299072266
0.037333135, 241.79608893115, 0.000761489871405802, 0.742500000000001,370.900299072266
0.0379997366666667, 241.807449134575, 0.000632599845468953, 0.756250000000001,370.374664306641
0.0386664033333333, 241.817936856845, 0.000750040946522866, 0.76875,361.912353515625
0.0393321866666667, 241.828891417631, 0.000417713138981615, 0.7825,366.020935058594
0.039999005, 241.840108437773, 0.000377020182949886, 0.795000000000001,357.446868896484
0.0406649483333333, 241.85123748329, 0.000338574114056811, 0.80875,357.446868896484
0.04133209, 241.861676029077, 0.000659334502559744, 0.821250000000001,357.943511962891
0.0419985833333333, 241.872835735514, 0.000484239297388997, 0.835000000000001,365.856292724609
0.0426653766666667, 241.883454227535, 0.000461411944006317, 0.8475,358.382110595703
0.0433316016666667, 241.893792064006, 0.000593360316375268, 0.861250000000001,361.461212158203
0.043998555, 241.903667483356, 0.000800864393653272, 0.87375,361.461212158203
0.0446654433333333, 241.914225371052, 0.000681693879464846, 0.8875,363.582183837891
0.0453317733333333, 241.924253518106, 0.000820390412914284, 0.901250000000001,365.059753417969
0.0459984916666667, 241.935020421012, 0.000491489933250846, 0.913750000000001,365.874633789063
0.0466649666666667, 241.945617936598, 0.000227564689970535, 0.9275,370.682067871094
0.04733176, 241.956449392423, -0.000119294387676208, 0.940000000000001,370.682067871094
0.0479983216666667, 241.966606701759, -9.54920832188681E-05, 0.953750000000001,368.860260009766
0.0486649033333333, 241.977434496585, -0.000229748839627007, 0.966250000000001,371.955200195313
0.0493317716666667, 241.987527677991, 7.91246459609686E-05, 0.98125,378.404937744141
0.049999785, 241.998000078108, 0.000289943556722779, 0.993750000000001,374.085540771484
0.05066547, 242.008649627749, 0.000254231850505687, 1.00625,374.085540771484
0.0513317316666667, 242.019731276057, 0.000190234565024771, 1.02,452.086303710938
0.0519990016666667, 242.030383362519, 0.000109093140660298, 1.0325,376.499145507813
0.0526663416666667, 242.042538820739, -0.000105778566561755, 1.04625,377.004302978516
0.0533320966666667, 242.05445224885, -0.000254926575017183, 1.06,370.731262207031
0.053998295, 242.066133477065, -0.00035143622743169, 1.0725,370.731262207031
0.0546652983333333, 242.077054467173, -0.000264997069182238, 1.08625,362.006774902344
0.0553324766666667, 242.088545701957, -0.000244587594341437, 1.1,364.220245361328
0.05599857, 242.09864836428, -0.000110587325048763, 1.1125,361.885833740234
0.0566649383333333, 242.109148896283, 0.00026642773786897, 1.12625,358.234832763672
0.0573316933333333, 242.119400150994, 0.00022205696656283, 1.14,358.234832763672
0.0579997683333333, 242.130659640156, -0.000324643073310427, 1.1525,359.852416992188
0.058665335, 242.141189842979, -0.000455355507758553, 1.16625,366.770202636719
0.05933189, 242.151567639183, -0.000321296741392898, 1.18,360.370635986328
0.0599997466666667, 242.16205921465, -0.000756160898642397, 1.1925,353.036834716797
0.060666475, 242.1729950695, -0.000829279225992327, 1.2075,353.036834716797
0.0613321733333333, 242.182794000999, -0.000362036195059874, 1.22,356.826751708984
0.0619987183333333, 242.193115341006, -0.000328631372957566, 1.23375,362.234985351563
0.0626650866666667, 242.203331945157, -0.000606082936865661, 1.24625,363.787994384766
0.063331905, 242.213419911741, -0.000496690431519893, 1.26,359.536193847656
0.0639989116666667, 242.223805542732, -0.00023649700079251, 1.27375,359.536193847656
0.064665955, 242.234244834094, -0.000360969748681633, 1.2875,364.535919189453
0.0653316733333333, 242.245143885554, -0.00030164622842767, 1.30125,358.802551269531
0.06599886, 242.256379229559, -0.000502384145574856, 1.31375,366.264282226563
0.0666649666666667, 242.267204898915, -0.000561059698380342, 1.3275,428.373077392578
0.06733228, 242.277841202214, -0.000899235712126329, 1.34125,428.373077392578
0.0680003533333333, 242.288444728532, -0.000810599164243531, 1.35375,353.176055908203
0.0686650783333333, 242.298900200962, -0.000795682413481386, 1.3675,361.828125
0.0693321833333333, 242.309265165686, -0.000551706168122552, 1.38125,357.971923828125
0.069998465, 242.319507171202, -0.000617692353702254, 1.39375,363.599792480469
0.0706655683333333, 242.329880656125, -0.000302585181189125, 1.4075,363.599792480469
0.0713316133333333, 242.340372055243, -0.000513221101173738, 1.42125,355.486511230469
0.0719989983333333, 242.350790850457, -0.000603200081652501, 1.435,354.564453125
0.0726649483333333, 242.360950670367, -0.000362010696345018, 1.4475,369.369873046875
0.073331645, 242.371592801265, -0.000419943786422113, 1.46,363.406219482422
0.073998745, 242.381661123463, -0.000524926513235901, 1.47375,363.406219482422
0.0746649533333333, 242.391603209088, -0.000232316710736737, 1.4875,369.899627685547
0.0753317366666667, 242.401499663562, -0.000258089916178769, 1.50125,363.191467285156
0.0759986466666667, 242.411938757892, -0.000203401163138528, 1.51375,362.089569091797
0.0766664016666667, 242.421688818598, -2.74375015895165E-05, 1.5275,361.586517333984
0.0773337666666667, 242.432028167525, 0.00018327641448532, 1.54,361.586517333984
0.0779996716666667, 242.442623930718, 6.18180976621921E-06, 1.55375,371.378601074219
0.0786652416666667, 242.452693145515, 0.000208848630036061, 1.5675,374.566253662109
0.0793317716666667, 242.462950296255, 1.58743229178909E-05, 1.58125,374.177276611328
0.0799985283333333, 242.473466671942, -0.000208532405393491, 1.59375,374.832153320313
0.0806657116666667, 242.484019849459, -0.000325714019504386, 1.6075,374.832153320313
0.0813321866666667, 242.494183757537, -0.000244434602073559, 1.62125,369.195587158203
0.0819982983333333, 242.505085396489, -0.000478248857836231, 1.63375,369.481536865234
0.08266643, 242.5161105541, -0.000471751184194851, 1.6475,368.491119384766
0.0833317916666667, 242.527263671603, -0.000181143781114101, 1.66,437.850036621094
0.0839985633333333, 242.538381867333, -5.73325000568482E-05, 1.67375,437.850036621094
0.084665105, 242.550064051896, -0.000105139598723459, 1.68625,367.492980957031
0.0853321416666667, 242.561539066324, -0.000168181432210721, 1.7,356.325897216797
0.0859984416666667, 242.572522261962, -0.00040892084011221, 1.71375,360.856353759766
0.0866652383333333, 242.583791939518, -0.000672157617963901, 1.72625,355.174957275391
0.087331735, 242.594671720892, -0.000737471837262165, 1.73875,355.174957275391
0.0879986316666667, 242.606480544073, -0.000678326808075951, 1.7525,351.30712890625
0.088664905, 242.617953186274, -0.000417462911012788, 1.76625,355.501586914063
0.08933162, 242.629345247298, -4.59345724973526E-05, 1.77875,351.347259521484
0.0899992366666667, 242.640712423784, 0.000176000279951124, 1.79125,351.614105224609
0.0906648416666667, 242.652625598028, 0.000234051864034822, 1.805,351.614105224609
0.0913323583333333, 242.6637187179, 0.000139303123167297, 1.81875,356.613159179688
0.0919989666666667, 242.674706627142, 0.000138437666616584, 1.83125,357.8505859375
0.0926650566666667, 242.685864462188, 6.70787509104869E-05, 1.845,358.695648193359
0.09333194, 242.697240341232, 6.80912000527187E-05, 1.8575,372.178527832031
0.0939989916666667, 242.708306179393, -0.000311089754085892, 1.87125,372.178527832031
0.09466499, 242.719835932121, -0.000322087201723448, 1.88375,373.024475097656
0.0953317666666667, 242.731940948004, -0.000587305380094416, 1.8975,346.916839599609
0.09599842, 242.74376749325, -0.000808049292354165, 1.91125,335.198547363281
0.0966652316666667, 242.755105861704, -0.000602795102063622, 1.925,336.336059570313
0.0973320766666667, 242.766458437457, -0.000632162126970974, 1.9375,336.336059570313
0.0979983616666667, 242.777388232766, -0.000565998950269179, 1.95125,337.7841796875
0.0986649633333333, 242.787734435608, -0.00035370411361826, 1.965,343.134857177734
0.099332065, 242.798219979047, 1.94456434746543E-05, 1.97875,343.307708740234
0.0999984133333333, 242.809171270262, -0.000361193237460227, 1.99125,410.325866699219
0.10066638, 242.820042140951, -0.000211166273176964, 2.005,410.325866699219
0.101333033333333, 242.830437656177, -0.000187477962995526, 2.01875,335.264129638672
0.102000121666667, 242.840713721209, -6.58010747041747E-05, 2.03125,346.953430175781
0.102665508333333, 242.851011911262, -0.000430722245118046, 2.045,340.841156005859
0.103331786666667, 242.860977461753, -0.000291359745106037, 2.0575,344.867279052734
0.10399839, 242.871024654099, -0.000242913678473606, 2.07125,344.867279052734
0.104666421666667, 242.881291105412, -0.00037381210356899, 2.085,343.218505859375
0.105333463333333, 242.892028007102, -0.000517764373020116, 2.09875,346.872039794922
0.105998261666667, 242.902216120053, -0.000302952662774194, 2.11125,340.541687011719
0.10666553, 242.91264021213, -6.73459970733253E-05, 2.125,345.894378662109
0.107332068333333, 242.922943371447, -0.000200294819210537, 2.13875,345.894378662109
0.107998375, 242.933173197228, -0.000246691988746798, 2.1525,342.609313964844
0.108665158333333, 242.943324681815, -0.000267239456675207, 2.16625,342.112243652344
0.109332423333333, 242.953494522858, -0.000343423629994241, 2.17875,344.395263671875
0.109998226666667, 242.963282539944, -0.000656454906771941, 2.19125,343.224334716797
0.110664956666667, 242.973086309447, -0.000543282591313594, 2.20625,343.224334716797
0.111332315, 242.982855439561, -0.000454845533397683, 2.21875,336.659576416016
0.111998771666667, 242.992611396938, -0.000598151335282226, 2.2325,345.720428466797
0.112665021666667, 243.00269710829, -0.000665146970155353, 2.245,335.001953125
0.11333233, 243.012692470065, -0.00077560592192187, 2.25875,337.958038330078
0.113998511666667, 243.022424488729, -0.00072426350075665, 2.2725,337.958038330078
0.114665475, 243.031965005134, -0.000577813856770272, 2.28625,341.262847900391
0.115331613333333, 243.041776338251, -0.000424235070883727, 2.29875,339.709167480469
0.115998818333333, 243.051213247217, -0.00043814387227685, 2.3125,336.175537109375
0.116664875, 243.060984645965, -0.000182798198049706, 2.325,397.253509521484
0.117331858333333, 243.071456727578, -0.000361343229921806, 2.33875,397.253509521484
0.117998543333333, 243.081415784108, -0.000351112243803095, 2.3525,326.804138183594
0.118665771666667, 243.090938421855, -0.000696736883453415, 2.365,320.070190429688
0.119332145, 243.100737344754, -0.000545347987535691, 2.37875,323.983612060547
0.119999021666667, 243.10987861548, -0.00053979226658959, 2.39125,315.259918212891
0.120665025, 243.119325828731, -0.000415301519628882, 2.405,315.259918212891
0.121331745, 243.129269600265, -0.000448535350327964, 2.4175,317.567474365234
0.121998693333333, 243.138774724501, 5.12830442992541E-05, 2.43125,312.768157958984
0.122664898333333, 243.148561780167, 2.70877595844988E-05, 2.44375,313.064392089844
0.123332615, 243.158505683321, -0.000233327660018328, 2.4575,309.121887207031
0.12399875, 243.167601315535, -0.000183282673695721, 2.47125,309.121887207031
0.12466546, 243.17685074876, -0.00027001881704078, 2.48375,305.897216796875
0.125332186666667, 243.186196460938, -0.000405171028466443, 2.4975,313.229888916016
0.12599826, 243.195583766704, -0.000672072122272915, 2.51,309.496948242188
0.12666523, 243.205044526023, -0.000357798907876777, 2.5225,313.350280761719
0.127331888333333, 243.214716741919, -0.000358367379353136, 2.5375,313.350280761719
0.127998391666667, 243.224787785653, -0.000318596876999444, 2.55,318.785339355469
0.128665506666667, 243.23490664919, -0.000386832949566606, 2.56375,311.948516845703
0.129332105, 243.245215449735, 6.57288187137597E-05, 2.57625,317.615905761719
0.129998776666667, 243.255127654638, -0.000135934551981524, 2.59,314.237518310547
0.130666523333333, 243.265705415132, -0.000192046733535506, 2.6025,314.237518310547
0.131331603333333, 243.275694033878, -1.51441191612761E-05, 2.61625,313.298217773438
0.13199898, 243.28596645145, -0.000174377621025792, 2.62875,313.67822265625
0.132665716666667, 243.295821214974, -0.000620206227533466, 2.64125,319.194305419922
0.13333211, 243.306575872787, -0.000608443818322725, 2.655,390.251312255859
0.13399842, 243.316170529524, -0.000723854021373307, 2.66875,390.251312255859
0.134664873333333, 243.326693542692, -0.000918446747177641, 2.68125,328.477386474609
0.135331583333333, 243.33677841971, -0.00097302600571519, 2.695,329.615142822266
0.135998815, 243.347276679633, -0.000509712777441911, 2.70875,329.860260009766
0.13666525, 243.357775525631, -0.00066374754041081, 2.72125,340.559539794922
0.137331745, 243.36902748814, -0.000733788022353903, 2.735,340.559539794922
0.137998978333333, 243.379340402157, -0.000604539514378406, 2.7475,346.698791503906
0.138664976666667, 243.390122029358, -0.000312061705269236, 2.76125,330.042602539063
0.139331668333333, 243.401021591413, -0.000367557417808463, 2.775,322.570373535156
0.139998303333333, 243.412535811707, -5.22252565923373E-05, 2.7875,316.308929443359
0.140664938333333, 243.424071727575, -8.4872616743475E-05, 2.80125,316.308929443359
0.141331898333333, 243.436325044164, -0.000120863308963335, 2.815,317.167602539063
0.141998685, 243.448789552228, -0.000398019387678972, 2.82875,310.655822753906
0.142665378333333, 243.461006260346, -0.000372498169579195, 2.8425,306.114044189453
0.143332201666667, 243.473032038531, -0.000301770722174394, 2.855,306.769226074219
0.143998826666667, 243.485028595176, -0.000124263638159381, 2.86875,306.769226074219
0.14466495, 243.496795990755, -0.000133797159303053, 2.88125,302.655303955078
0.145331578333333, 243.508771062425, 0.000130101085359253, 2.895,312.202331542969
0.145998388333333, 243.520537196761, -5.01253620452026E-05, 2.90875,302.219665527344
0.146664966666667, 243.532813683263, -1.19477796628188E-05, 2.92125,301.568481445313
0.147331811666667, 243.544798561001, -8.13387942330307E-05, 2.93625,301.568481445313
0.14799898, 243.557023203647, 4.28174695007341E-05, 2.94875,313.774017333984
0.148666485, 243.56912711688, 0.000134629357897836, 2.9625,304.369781494141
0.149332046666667, 243.581342529779, 0.000187350209780937, 2.975,367.961059570313
0.150000408333333, 243.592617192604, 0.000182869934823258, 2.98875,309.818145751953
0.150664896666667, 243.604053693474, 0.00032600474532583, 3.0025,309.818145751953
0.151331601666667, 243.615646519705, 0.000169016630675564, 3.015,310.290435791016
0.151998681666667, 243.627503344524, -0.000320719270391373, 3.02875,304.546813964844
0.152665035, 243.639777300929, -0.000328475380798373, 3.0425,306.216186523438
0.153331798333333, 243.652713926373, -0.000841434615396722, 3.05625,305.10595703125
0.153998451666667, 243.665448267304, -0.000948317746769504, 3.07,305.10595703125
0.154665445, 243.677612444966, -0.000917738782753033, 3.0825,308.2275390625
