Time (min), Depth (µm), Load (N), Position (µm), Acoustic (aJ)
9.705E-06, 227.738133338453, 0.00017739383971194, 0,325.595092773438
0.00066582, 227.737914159485, 8.68103896136474E-05, 0.00624999999999999,325.595092773438
0.00133385, 227.738433257869, 0.000481539562794445, 0.02,329.644012451172
0.002000515, 227.740471913274, 0.000672718460083104, 0.03375,331.375732421875
0.00266726166666667, 227.743353269526, 0.000977473152558349, 0.04875,343.599578857422
0.00333244166666667, 227.747803881971, 0.000872859407211524, 0.0625,343.599578857422
0.004000685, 227.753940816162, 0.000998581592341101, 0.07625,349.293884277344
0.00466738666666667, 227.761312699032, 0.000948857589925808, 0.09125,352.264373779297
0.00533246333333333, 227.769848986159, 0.000777983172790976, 0.105,350.365692138672
0.00599908333333333, 227.779644949338, 0.000541083572020704, 0.11875,352.59130859375
0.00666729166666667, 227.795515165128, 0.000488427216908197, 0.13375,351.159118652344
0.00749906833333333, 227.806352226161, 0.000298781242635971, 0.1475,356.261596679688
0.00816717166666667, 227.816940565836, 0.000241913099033969, 0.16,356.261596679688
0.00883409, 227.827229797349, -0.000101494651965763, 0.17375,351.148345947266
0.00949909666666667, 227.837132264767, 1.80943411949344E-05, 0.1875,341.209625244141
0.010167195, 227.846610833531, 0.000107732838727888, 0.20375,346.0478515625
0.01099927, 227.856422352695, 7.78093417606563E-05, 0.21625,346.584991455078
0.0116658016666667, 227.866430952518, -0.000226178889238253, 0.22875,344.487030029297
0.01233383, 227.876472117628, -4.77643508104905E-05, 0.2425,344.487030029297
0.0130006116666667, 227.886878553897, 9.40715249250645E-05, 0.25625,417.832489013672
0.0136673766666667, 227.898055015668, -6.44525125479321E-05, 0.26875,345.106903076172
0.0143340566666667, 227.909202875208, 0.000110218213931676, 0.2825,354.976806640625
0.01500088, 227.920019252797, 7.8913286333995E-05, 0.295,352.413604736328
0.0156672683333333, 227.930613513172, 0.000591440542619189, 0.30875,352.413604736328
0.016333935, 227.942092384553, 0.000260243678290535, 0.3225,344.396545410156
0.0170006066666667, 227.957804298334, 0.000294927936121362, 0.33875,354.569183349609
0.017832555, 227.968548452366, 0.000107495850650919, 0.3525,361.786804199219
0.0185005616666667, 227.979673565406, 0.000264117983683027, 0.36625,360.941680908203
0.01916724, 227.988605069544, 0.000186556879464245, 0.3775,366.215667724609
0.0198339816666667, 227.997602589781, 0.000322685541846462, 0.39125,366.215667724609
0.0205005766666667, 228.007161741828, -6.42305237787582E-05, 0.405,375.380035400391
0.021165715, 228.016385134273, -5.85788076495942E-05, 0.41875,380.115966796875
0.021834, 228.026057652245, -0.00043893270286284, 0.4325,378.640777587891
0.0224991716666667, 228.037262922203, -0.000733331915493902, 0.445,384.942901611328
0.0231673116666667, 228.048464836652, -0.000752319461745366, 0.45875,384.942901611328
0.0238765783333333, 228.059506091254, -0.000468493217996958, 0.4725,387.623107910156
0.024499055, 228.07088665583, -0.000457438773274587, 0.485,388.441101074219
0.0251657133333333, 228.081965465036, -0.000347020319466957, 0.49875,392.152008056641
0.02583252, 228.093024881613, -0.000335709387607867, 0.51125,385.326354980469
0.0264990816666667, 228.103643323855, -0.000431205090976993, 0.525,385.326354980469
0.0271658383333333, 228.114457648579, -0.000789991569518835, 0.53875,391.063201904297
0.027832355, 228.125234414095, -0.000789105114047731, 0.5525,395.841400146484
0.0284990183333333, 228.135783975186, -0.000617306743289206, 0.565,466.158721923828
0.0291657483333333, 228.146918521769, -0.000471131585511133, 0.57875,387.260681152344
0.0298323366666667, 228.158148412252, -0.000520156622984475, 0.5925,387.260681152344
0.0304991633333333, 228.168776727426, -0.000179364740611616, 0.605,378.394317626953
0.0311678783333333, 228.180183772568, -0.00038257303367605, 0.61875,387.517181396484
0.0318339433333333, 228.191136270707, -0.000747716192922858, 0.6325,387.575897216797
0.0325005166666667, 228.201664001858, -0.000720666551601113, 0.645,385.479919433594
0.0331672066666667, 228.212275446915, -0.000580558589118176, 0.65875,385.479919433594
0.03383393, 228.223281150987, -0.000671933999428913, 0.6725,383.867858886719
0.0345007633333333, 228.23339188326, -0.000705155830754023, 0.68625,386.422332763672
0.0351658066666667, 228.243622169794, -0.000378326747010296, 0.7,383.914764404297
0.035832475, 228.253659722989, -0.00037748828914135, 0.7125,383.972076416016
0.0364991366666667, 228.264304837674, -0.00066634228027588, 0.72625,383.972076416016
0.037165675, 228.274262857491, -0.000789340602200297, 0.74,390.436553955078
0.0378324583333333, 228.284196972172, -0.000522605999960077, 0.7525,384.465454101563
0.0384991933333333, 228.293916712683, -0.000722100479585676, 0.76625,382.478118896484
0.03916581, 228.30374016626, -0.000619100653151806, 0.77875,389.474273681641
0.03983236, 228.31312976179, -0.000528544201756534, 0.7925,389.474273681641
0.0404990516666667, 228.322645102993, -0.000362505541705462, 0.80625,387.592193603516
0.0411657116666667, 228.332527933151, -0.000602424490830844, 0.81875,396.445068359375
0.0418324216666667, 228.342317553457, -0.000404929410817362, 0.8325,389.584625244141
0.0424990816666667, 228.3525500186, -0.000490509112213714, 0.845,395.664581298828
0.04316573, 228.362143921341, -0.000469879148421872, 0.85875,395.664581298828
0.0438323466666667, 228.372192575014, -0.000450812106134527, 0.8725,386.505493164063
0.044499135, 228.381795133352, -0.000150102710455, 0.88625,394.184204101563
0.0451657383333333, 228.392106433656, -0.000244542466852945, 0.89875,468.174957275391
0.0458323683333333, 228.401751868862, -0.000632076501417324, 0.9125,387.312896728516
0.0464991766666667, 228.411879984862, -0.000433856957810797, 0.92625,387.312896728516
0.0471657933333333, 228.421701461203, -0.000784585841055568, 0.93875,383.651123046875
0.0478340583333333, 228.431481946056, -0.000906075238754004, 0.9525,387.254547119141
0.0484993433333333, 228.440891644567, -0.000918221628654488, 0.965,380.620208740234
0.0491662683333333, 228.450568163105, -0.000475736354258044, 0.9775,384.166839599609
0.0498323716666667, 228.459680810564, -0.000671134539594452, 0.9925,384.166839599609
0.0504990016666667, 228.469192603788, -0.000383931965504213, 1.005,380.413787841797
0.05116571, 228.4784620877, -0.000454119440038825, 1.01875,383.339416503906
0.051832385, 228.487792776435, -0.000498026734619342, 1.0325,377.710906982422
0.052499065, 228.496974014682, -0.00100930905345855, 1.04375,383.5205078125
0.0531657283333333, 228.506309913451, -0.000792343451450734, 1.0575,383.5205078125
0.053832375, 228.515047797745, -0.000920504514021328, 1.07125,385.335021972656
0.05449914, 228.524391016019, -0.000917053187374317, 1.08375,385.463836669922
0.055165825, 228.532700839202, -0.00101987452278295, 1.0975,386.120941162109
0.0558326516666667, 228.541199250672, -0.000871218489616802, 1.11,386.341644287109
0.0564993416666667, 228.549662126042, -0.000926843195633455, 1.12375,386.341644287109
0.05716571, 228.557992969958, -0.000891537968972154, 1.13625,391.057983398438
0.057832465, 228.566061721489, -0.00102000801607609, 1.15,387.4736328125
0.0584991333333333, 228.574904825261, -0.00100401431940112, 1.16375,394.134490966797
0.05916587, 228.583407779041, -0.00105592971175215, 1.17625,388.392547607422
0.0598324766666667, 228.592220362375, -0.00144684457651658, 1.18875,388.392547607422
0.0604990183333333, 228.601121962353, -0.00187845389723715, 1.2025,390.788452148438
0.0611657016666667, 228.611197591672, -0.0020003107764994, 1.215,389.093475341797
0.06183248, 228.621446152582, -0.00219489150295102, 1.22875,463.652862548828
0.0624992, 228.631187410056, -0.00194227119181093, 1.2425,385.123596191406
0.063165715, 228.641027339627, -0.00169278122341054, 1.25625,385.123596191406
0.063832435, 228.650833277709, -0.00153606159524971, 1.27,384.496459960938
0.064499155, 228.659623708312, -0.0016795698869712, 1.28375,384.447967529297
0.0651659883333333, 228.668148018251, -0.00167178827780684, 1.29625,384.888763427734
0.0658324633333333, 228.676528035206, -0.0017718827501615, 1.31,382.670166015625
0.0664990166666667, 228.684649131251, -0.00171858592722253, 1.3225,382.670166015625
0.0671657166666667, 228.693039929865, -0.00163910191964247, 1.33625,378.28369140625
0.06783249, 228.701117741915, -0.0014259641253494, 1.35,379.922485351563
0.0684990683333333, 228.709445716821, -0.00128925649202, 1.36375,380.88623046875
0.06916574, 228.718467432307, -0.00128279781643436, 1.37625,385.931762695313
0.0698323933333333, 228.727074927908, -0.0011816218983724, 1.39,385.931762695313
0.0704990733333333, 228.736183219215, -0.000811392494623985, 1.40375,382.875091552734
0.0711657183333333, 228.745519714882, -0.000744618848583794, 1.41625,381.744079589844
0.0718324433333333, 228.754750737217, -0.000734953334113889, 1.43,384.325836181641
0.0724994983333333, 228.763349654874, -0.000111368656119008, 1.44375,380.372039794922
0.0731657983333333, 228.772772044963, -0.000290426662243292, 1.45625,380.372039794922
0.07383245, 228.781904832109, -0.000673985896458906, 1.47,385.304901123047
0.0744991283333333, 228.790520431141, -0.00048168805537413, 1.48375,377.060302734375
0.0751656783333333, 228.798573346311, -7.14646604509166E-05, 1.4975,380.039703369141
0.075832565, 228.807129968554, -0.000586138308897238, 1.51,378.286010742188
0.07649907, 228.814853643193, -0.000565412349922333, 1.52375,378.286010742188
0.07716568, 228.822323388803, -0.000355568390150165, 1.5375,381.824493408203
0.077832475, 228.829754684628, -0.000390065157409331, 1.55125,380.822143554688
0.0784990283333333, 228.837259616586, -0.000468974693857928, 1.56375,458.022857666016
0.0791657916666667, 228.844516173778, -0.000478191730910005, 1.5775,388.261596679688
0.07983236, 228.851647723621, -0.000295007432072227, 1.59125,388.261596679688
0.0804991416666667, 228.858662860824, -6.99677355989079E-05, 1.605,377.425384521484
0.081165745, 228.865865970888, -0.000227224336802373, 1.6175,378.241149902344
0.0818324716666667, 228.873248106661, -0.000401929561543256, 1.63125,378.722564697266
0.08249918, 228.88039284968, -0.000388614730320094, 1.64375,380.297180175781
0.0831656933333333, 228.887867129516, -0.000309457706302451, 1.6575,380.297180175781
0.0838324566666667, 228.895111866568, -0.000739115625034315, 1.67,386.321441650391
0.0844990116666667, 228.901961533818, -0.000610146103040332, 1.68375,385.086151123047
0.0851656683333333, 228.908388892522, -0.000485368870497348, 1.6975,380.316955566406
0.0858325683333333, 228.91498839093, -0.000400819617314813, 1.71,385.226104736328
0.0864992366666667, 228.921032898768, -0.00030580838963421, 1.72375,385.226104736328
0.08716569, 228.927779126236, -0.000228733261049608, 1.7375,388.222442626953
0.08783236, 228.93483648657, -0.000388734724314863, 1.75125,387.787017822266
0.088499105, 228.941785724093, -0.000266994839156066, 1.765,394.347137451172
0.089187515, 228.948855595128, -0.000371152607441792, 1.7775,395.930694580078
0.0898338666666667, 228.956353880929, -0.000257204830896928, 1.79,395.930694580078
0.090501535, 228.963924491799, -0.000381308597276579, 1.80375,388.632202148438
0.0911672716666667, 228.971346098995, -0.000191725619850544, 1.8175,389.193359375
0.0918338716666667, 228.97910152867, -0.000176700874552618, 1.83,386.101135253906
0.0924991416666667, 228.987102473572, -9.02279683122781E-06, 1.84375,387.037628173828
0.0931658916666667, 228.995186839927, -9.32675652961396E-05, 1.8575,387.037628173828
0.0938324433333333, 229.00325240976, 9.08586862156632E-05, 1.87,380.571594238281
0.094499145, 229.011683981873, -0.000104151018657793, 1.88375,378.691223144531
0.09516572, 229.020138281384, -0.00014655238888239, 1.89625,459.224548339844
0.0958324483333333, 229.028175423081, -0.000352637537441117, 1.90875,384.364959716797
0.0964991866666667, 229.036303368774, -0.000513123476394895, 1.9225,384.364959716797
0.0971656633333333, 229.044246407935, -0.000392051057723072, 1.93625,377.571411132813
0.0978324783333333, 229.051629506529, -0.000547522748525341, 1.94875,374.883728027344
0.09849905, 229.058990531857, -0.000469501167472251, 1.9625,373.742065429688
0.0991657016666667, 229.06680782185, -0.000627137249570994, 1.975,382.260437011719
0.0998325933333333, 229.074480103925, -0.000503619953718033, 1.98875,382.260437011719
0.10049901, 229.081897433264, -0.000478238228651523, 2.0025,377.658599853516
0.101165726666667, 229.089789954586, 1.92732818609114E-05, 2.015,386.342956542969
0.10183235, 229.097216433098, -4.55279632489299E-05, 2.02875,380.948059082031
0.102499113333333, 229.104715504115, 0.000210251189237025, 2.04125,390.893981933594
0.103165855, 229.111711520856, 8.74883555076822E-05, 2.05375,390.893981933594
0.10383239, 229.118306601924, -3.73158756958146E-05, 2.0675,379.420959472656
0.104499018333333, 229.124550247546, -0.000149760727712311, 2.08125,364.943359375
0.105165858333333, 229.131202910133, -0.000343618490474033, 2.095,363.631195068359
0.105832446666667, 229.137352439497, -0.000381262099726349, 2.1075,367.033569335938
0.106499955, 229.143806939044, -0.000347479296610658, 2.12125,367.033569335938
0.10716576, 229.150804399964, -0.000349685685790424, 2.135,369.812408447266
0.107832428333333, 229.157808834862, -0.0003619880678501, 2.14875,367.762878417969
0.108499006666667, 229.164950567735, -0.000475388371860251, 2.1625,364.58154296875
0.109165701666667, 229.172258874705, -0.000550413103403025, 2.175,364.644653320313
0.109832476666667, 229.179679148324, -0.00070713573141266, 2.1875,364.644653320313
0.110499118333333, 229.186867159756, -0.000772103468152517, 2.2025,362.137939453125
0.111165673333333, 229.193814311395, -0.000655968801508891, 2.215,448.723205566406
0.111832443333333, 229.200450079457, -0.00040651333139103, 2.22875,370.385040283203
0.112499133333333, 229.206900550441, -0.00070167150591892, 2.24125,370.385040283203
0.113165801666667, 229.213377836128, -0.000639378134836407, 2.255,364.743682861328
0.113832675, 229.219783369728, -0.000755989777589048, 2.2675,373.657867431641
0.114499125, 229.22637761717, -0.00129046843121413, 2.2825,372.880462646484
0.115165711666667, 229.232628037063, -0.00141000192719316, 2.295,367.588684082031
0.115832345, 229.239372720734, -0.00138310377827866, 2.30875,373.751159667969
0.116499123333333, 229.245729590378, -0.00125445224030067, 2.32125,373.751159667969
0.11716573, 229.252332894259, -0.0011682095721693, 2.335,371.045288085938
0.117832436666667, 229.258640824029, -0.000728907137887923, 2.34875,368.572174072266
0.118499155, 229.265555410311, -0.000439885155135212, 2.3625,365.186157226563
0.119165676666667, 229.272703148895, -0.000300851138695041, 2.375,366.519195556641
0.119832421666667, 229.280706931657, -0.000167005361637157, 2.3875,366.519195556641
0.120499118333333, 229.289675957244, 4.87273023411442E-05, 2.4025,364.646392822266
0.121165735, 229.300040661375, -0.000110308209480888, 2.415,365.066528320313
0.121832515, 229.310871800745, -0.000257497316325596, 2.42875,367.774505615234
0.122499228333333, 229.322537397929, -0.000163870519060487, 2.44125,368.628021240234
0.123165728333333, 229.334512878203, -0.000257759803117421, 2.455,368.628021240234
0.123832421666667, 229.346970042521, -3.50344903809021E-05, 2.46875,362.222229003906
0.124499493333333, 229.35933558548, 0.000233858503415671, 2.4825,358.538909912109
0.12516572, 229.37183361471, 0.000341371603144092, 2.49625,356.706176757813
0.125832436666667, 229.384229640119, 0.000536837285078647, 2.50875,357.860076904297
0.126499083333333, 229.396520549106, 0.000911134484552594, 2.5225,357.860076904297
0.127165881666667, 229.408991112471, 0.000455919349535275, 2.535,352.133514404297
0.12783246, 229.421729626456, 0.000297807791315683, 2.54875,424.339477539063
0.128499143333333, 229.434319990087, 0.000515395862120879, 2.5625,352.039764404297
0.129165706666667, 229.44682455683, 0.000416889809985571, 2.57375,350.848602294922
0.129832405, 229.459674555878, 8.11856720387256E-05, 2.5875,350.848602294922
0.13049914, 229.471891015506, 0.000210225690479662, 2.60125,349.249816894531
0.13116589, 229.484045152396, 0.000221124143064094, 2.61375,346.811004638672
0.131832381666667, 229.495652722467, 0.000243359026201217, 2.6275,351.739868164063
0.132499133333333, 229.507352417362, 0.000285448412086174, 2.64,345.893280029297
0.133165698333333, 229.518858847484, 0.000416379835560939, 2.65375,345.893280029297
0.133832526666667, 229.530385349227, 0.000554269409511391, 2.6675,343.835601806641
0.134499115, 229.541584057018, 0.000788179660457126, 2.68125,340.567962646484
0.135165703333333, 229.553673302323, 0.000732635950358249, 2.69375,346.439086914063
0.135832391666667, 229.565606706919, 0.000358338750905556, 2.7075,348.947937011719
0.136499098333333, 229.577254294529, 0.000434713414687565, 2.72,348.947937011719
0.137165678333333, 229.588478980266, 0.000745917783223286, 2.73375,343.189331054688
0.137832485, 229.5997966469, 0.000845617775396129, 2.74625,345.661712646484
0.138499216666667, 229.611027481955, 0.00098757364506269, 2.76,346.224243164063
0.139165693333333, 229.622249273321, 0.00109943652634696, 2.7725,348.190032958984
0.139832591666667, 229.633397255342, 0.00111350581962998, 2.78625,348.190032958984
0.140499156666667, 229.644818121303, 0.00089537927590025, 2.79875,346.300354003906
0.141165866666667, 229.655871118559, 0.000666790757672454, 2.8125,347.684783935547
0.14183245, 229.667158125958, 0.000377276799672966, 2.825,352.104431152344
0.142499113333333, 229.678181027686, 0.000384812421150179, 2.83875,354.657867431641
0.143165701666667, 229.688965779302, 0.000340855629064355, 2.8525,354.657867431641
0.143832345, 229.699908861555, 0.00016696036365001, 2.865,356.260192871094
0.144499196666667, 229.711198354897, -0.000135365950791279, 2.87875,428.839080810547
0.145165718333333, 229.721761525863, -0.000280291671328897, 2.89125,356.118469238281
0.145832468333333, 229.731983263143, -0.000189733719966714, 2.90375,356.307983398438
0.146499023333333, 229.742444730555, -0.000378008763143076, 2.9175,356.307983398438
0.14716572, 229.75279206581, -0.00050369644996887, 2.93125,358.234283447266
0.147832511666667, 229.762667195542, -0.000466285329126584, 2.94375,345.884429931641
0.148499013333333, 229.773446047846, -0.000348326754047277, 2.9575,347.118499755859
0.149166041666667, 229.784638221282, -0.000273877993517862, 2.97125,339.311004638672
0.149832346666667, 229.796099922068, -0.000485682354782645, 2.985,339.311004638672
0.15049945, 229.807565133896, -0.000601344545217991, 2.99875,349.078735351563
0.151165855, 229.820134032379, -0.000397566280774048, 3.0125,351.096771240234
0.151832416666667, 229.831864285828, -0.000516318315990203, 3.02625,339.603759765625
0.152499046666667, 229.844034032293, -0.000677971196321002, 3.0375,339.695587158203
0.153165706666667, 229.855881532855, -0.000414875411384471, 3.05125,339.695587158203
0.153832346666667, 229.86802488908, -0.000141614636960464, 3.065,349.666717529297
0.154499143333333, 229.879328373877, -0.000314329461699412, 3.07875,342.912811279297
0.155166235, 229.890558503854, 3.01259853588993E-06, 3.09375,343.089813232422
0.155832498333333, 229.901693172201, -6.26646025742326E-05, 3.105,341.273956298828
0.156499016666667, 229.913112951491, -7.21156278119634E-05, 3.11875,341.273956298828
0.157165738333333, 229.92414630721, -0.000162898567877143, 3.1325,340.120269775391
0.157832503333333, 229.935561764536, -7.97577439218079E-05, 3.14625,337.130981445313
0.158498995, 229.94643234363, 8.81880694235183E-06, 3.15875,342.698028564453
0.159165858333333, 229.957349667132, -1.72918815116669E-05, 3.1725,344.074401855469
0.159832396666667, 229.968474154744, -0.000205451430466469, 3.185,344.074401855469
0.160499008333333, 229.979329854503, 3.83148254121465E-05, 3.19875,338.219696044922
