Time (min), Depth (µm), Load (N), Position (µm), Acoustic (aJ)
9.235E-06, 227.705568006789, 0.000102592350336221, 0,266.565979003906
0.000664406666666667, 227.705387241906, -0.00012869003260867, 0.00624999999999999,266.565979003906
0.00133109, 227.706193319443, -0.000278229521397111, 0.01875,269.750915527344
0.00199736166666667, 227.708124169243, -0.000502846239146203, 0.035,272.403167724609
0.00266404, 227.713525654013, -0.000746279511743534, 0.0525,281.552947998047
0.00349761333333333, 227.718321761416, -0.000364545685845496, 0.0675,287.254211425781
0.00416400833333333, 227.724665618855, -0.000147935565963765, 0.08,293.641906738281
0.004831, 227.731686024635, 0.000144501745207771, 0.09375,293.641906738281
0.00549821333333333, 227.739537834255, 0.000295739148697003, 0.10875,292.268920898438
0.00616463666666667, 227.749100499952, 0.000219755965290514, 0.12125,289.865509033203
0.00683119166666667, 227.759679434598, -6.7191590917716E-06, 0.135,289.874145507813
0.00749763833333333, 227.770169731353, -0.000180864911881461, 0.1475,282.569396972656
0.008164045, 227.780666342445, -0.000122966320044387, 0.16,282.569396972656
0.00883091166666667, 227.791557455507, -0.000514884634404636, 0.17375,283.613983154297
0.00949751166666667, 227.801497877562, -0.000479024435629113, 0.1875,339.873260498047
0.0101647233333333, 227.811403808569, -0.00063152027590522, 0.2,279.658447265625
0.0108309333333333, 227.821375014009, -0.000653575168135207, 0.21375,286.475860595703
0.011497415, 227.831594174385, -0.000832765167585724, 0.2275,285.444976806641
0.0121640416666667, 227.841669191153, -0.000562157759941178, 0.24,285.444976806641
0.0128309266666667, 227.852023027891, -0.000406828561935965, 0.25375,287.976928710938
0.013498205, 227.862690396589, -0.000489370915905622, 0.2675,293.197570800781
0.0141640166666667, 227.873890954623, -0.000590750823707671, 0.28,289.337890625
0.0148308933333333, 227.885052472985, -0.000489370915926876, 0.2925,289.337890625
0.0154974333333333, 227.89642626122, -0.000644323632800601, 0.30625,286.138793945313
0.016164015, 227.907291667481, -0.000518740940704289, 0.31875,284.745208740234
0.016831015, 227.918363661909, -0.000416546573823746, 0.3325,285.962188720703
0.0174981183333333, 227.929239045882, -0.000438275982351956, 0.345,295.862915039063
0.0181640966666667, 227.940138445999, -0.000447469020634834, 0.35875,295.862915039063
0.0188310133333333, 227.949464327338, -0.000470938341810888, 0.37125,298.009124755859
0.0194974716666667, 227.958761989987, -0.000701203775819084, 0.385,301.273559570313
0.0201641966666667, 227.967422141679, -0.000953117622458966, 0.39875,318.734924316406
0.0208309383333333, 227.976544848774, -0.000749393355314795, 0.4125,322.084289550781
0.0214975283333333, 227.985771036768, -0.000723900635757427, 0.425,322.084289550781
0.0221640566666667, 227.99629079155, -0.000517692493376379, 0.43875,319.148468017578
0.0228311516666667, 228.007676764239, -0.000597254497046664, 0.4525,321.856597900391
0.0234980166666667, 228.018847378225, -0.000549619889686428, 0.46625,332.369171142578
0.0241639883333333, 228.029933440439, -0.000777365450250814, 0.47875,335.082672119141
0.0248310266666667, 228.041348623633, -0.000816511983967735, 0.4925,335.082672119141
0.0254973816666667, 228.052732388228, -0.000948701844186866, 0.505,328.598205566406
0.0261642066666667, 228.063815846777, -0.000914830545510129, 0.51875,394.200103759766
0.026830805, 228.075355778549, -0.000668797903475616, 0.5325,335.311889648438
0.02749772, 228.086563330188, -0.000453828701167352, 0.545,330.950744628906
0.0281640883333333, 228.097507610917, -0.000252643806462979, 0.55875,326.19384765625
0.02883087, 228.108560729421, -0.000305354158854003, 0.5725,326.19384765625
0.029497365, 228.119885447054, -0.000451296828328317, 0.58625,324.379699707031
0.0301641266666667, 228.130559803984, -0.000437095541655305, 0.6,326.007293701172
0.0308307583333333, 228.141099717604, -0.000637591970931059, 0.6125,328.748748779297
0.0314974716666667, 228.151225961623, -0.00101663343207891, 0.62625,328.748748779297
0.0321641583333333, 228.161362350515, -0.000976838930913514, 0.63875,325.299255371094
0.0328307083333333, 228.171129148062, -0.000852237189525711, 0.6525,322.583465576172
0.033498125, 228.181947194641, -0.00121011471368789, 0.66625,326.205047607422
0.03416421, 228.192225990313, -0.0013151949356304, 0.67875,328.210205078125
0.0348312916666667, 228.202321594965, -0.00112214413234641, 0.6925,328.210205078125
0.0354975166666667, 228.212592573613, -0.00121797131907242, 0.70625,323.850952148438
0.036164085, 228.222443373632, -0.00108228363452852, 0.72,327.050018310547
0.0368309416666667, 228.231680659795, -0.000571236803863139, 0.73375,324.853729248047
0.0374979666666667, 228.241222608785, -0.00026144686429474, 0.74625,329.06689453125
0.0381640866666667, 228.25122854761, -0.00039614609850811, 0.76,329.06689453125
0.038830995, 228.260587569468, -0.000233279779122535, 0.77375,333.502075195313
0.039498205, 228.270280516459, -0.000316951576359132, 0.7875,337.068878173828
0.040164585, 228.279781378241, -0.000352789276268605, 0.8,329.938079833984
0.04083131, 228.289478727672, -0.000331676336733897, 0.8125,332.328979492188
0.0414974133333333, 228.298462415771, -5.06549521509341E-05, 0.8275,332.328979492188
0.0421641116666667, 228.308357970842, -4.90035350641358E-05, 0.84,332.912536621094
0.0428310166666667, 228.318144360823, -0.000298321012136897, 0.8525,402.602233886719
0.0434991583333333, 228.327577840189, -0.000434427175674319, 0.86625,328.908752441406
0.0441650183333333, 228.337054850823, -0.000183305289289389, 0.87875,331.466339111328
0.04483076, 228.346593292391, -0.000181941857751778, 0.8925,325.191162109375
0.045497675, 228.355729212822, -3.32633256983318E-05, 0.90625,325.191162109375
0.046165635, 228.364953858818, 0.000192010359045658, 0.91875,328.357574462891
0.0468308566666667, 228.374413438869, 0.000294780697024576, 0.9325,328.995819091797
0.04749779, 228.38351840252, -3.59136925014621E-05, 0.945,326.758178710938
0.0481640433333333, 228.393034268302, -0.000230911397979692, 0.95875,326.758178710938
0.0488314333333333, 228.40204626912, -0.000442618264200772, 0.9725,326.818908691406
0.0494982766666667, 228.411183017563, -0.000178051053127088, 0.985,324.792327880859
0.0501646066666667, 228.420538951254, -0.000666267530518476, 0.99875,318.347076416016
0.050831135, 228.42957440917, -0.000446662061093341, 1.01125,324.522247314453
0.0514973966666667, 228.438544986272, -0.000329093466443897, 1.025,324.522247314453
0.0521640083333333, 228.447618035394, -0.00029688708413108, 1.0375,318.653106689453
0.0528309083333333, 228.456409239562, -0.000432349779971979, 1.0525,319.910461425781
0.05349739, 228.46521964798, -0.000195672168034643, 1.065,325.932006835938
0.0541641066666667, 228.474188207953, -7.2192370291764E-05, 1.0775,318.737335205078
0.0548307483333333, 228.483002696306, -0.000156585631293852, 1.09125,318.737335205078
0.0554977016666667, 228.491545868384, 4.42497809395458E-05, 1.10375,329.984771728516
0.0561640233333333, 228.500266326811, -0.00015175737383211, 1.1175,326.941223144531
0.0568308883333333, 228.508824306285, 7.56087058157441E-05, 1.13125,329.280944824219
0.0574977383333333, 228.51726173752, -0.000341187358947758, 1.14375,325.855194091797
0.05816402, 228.526216811767, -0.000491901288777746, 1.15625,325.855194091797
0.0588309433333333, 228.535269384044, -0.0008826691608869, 1.17,329.490509033203
0.059497435, 228.544108262497, -0.000995369000136967, 1.18375,394.343444824219
0.060164085, 228.552870158013, -0.000954959529859962, 1.1975,330.621459960938
0.0608311983333333, 228.562321264562, -0.000727434458204109, 1.20875,328.847259521484
0.0614974816666667, 228.573223154659, -0.000673884147998482, 1.2225,328.847259521484
0.06216436, 228.583834179566, -0.000447346026770005, 1.23625,334.680511474609
0.0628314883333333, 228.594075325, -0.000316047121773934, 1.25,337.842071533203
0.0634979016666667, 228.604487300046, -0.000743860133192235, 1.26375,342.426330566406
0.0641645616666667, 228.614293717812, -0.000721367262993988, 1.27625,342.075439453125
0.0648310266666667, 228.622430559499, -0.00069475259981295, 1.29,342.075439453125
0.0654975316666667, 228.63131628606, -0.000480794346701261, 1.30375,330.639068603516
0.066163975, 228.640428050623, -0.000393537729503255, 1.3175,328.860778808594
0.0668308183333333, 228.650209029708, -0.000179718969403577, 1.33,342.468383789063
0.0674981266666667, 228.660584545817, -0.000264427214594111, 1.3425,334.117126464844
0.0681709216666667, 228.671001756247, -0.000271994334505047, 1.35625,334.117126464844
0.0688384683333333, 228.681458339969, -0.000585370593959259, 1.37,337.453247070313
0.0695041366666667, 228.692488866167, -0.000679046888687167, 1.38375,334.526306152344
0.0701708533333333, 228.703057697061, -0.00067727697761502, 1.3975,327.771301269531
0.070837405, 228.713295274224, -0.000935229520922615, 1.41,327.771301269531
0.071504465, 228.724330490173, -0.00119382853173303, 1.42375,334.180084228516
0.0721708133333333, 228.734565461088, -0.00109036972838926, 1.4375,330.358917236328
0.072837405, 228.744729780069, -0.000842633171935085, 1.45,334.457061767578
0.0735041483333333, 228.754621344425, -0.000727630948343444, 1.46375,332.062072753906
0.074170745, 228.765440619451, -0.00020173936332978, 1.4775,337.929962158203
0.07483756, 228.775212878095, 0.000211549877583791, 1.49,337.929962158203
0.0755042716666667, 228.785939371075, 0.000442646269881424, 1.50375,338.131072998047
0.0761708383333333, 228.79624091182, 0.000447561523001064, 1.5175,399.988739013672
0.0768374466666667, 228.806972999312, 0.000394702678051609, 1.53125,331.683746337891
0.0775040533333333, 228.816306494364, 0.00038667208141505, 1.545,331.026397705078
0.078170885, 228.826406628468, 0.000332854784623135, 1.55875,331.026397705078
0.0788376633333333, 228.835616112473, 0.000226885107360715, 1.57125,333.748199462891
0.0795041233333333, 228.845344691245, -0.000180644422845403, 1.585,332.313934326172
0.0801707533333333, 228.854760625978, 0.000207825564759149, 1.5975,331.604339599609
0.0808375, 228.864432276147, 2.20718949510002E-05, 1.61125,330.56201171875
0.0815041033333333, 228.873738969292, -1.5292728256039E-05, 1.625,330.56201171875
0.0821708866666667, 228.883386474833, -9.27593371949074E-05, 1.63875,330.938079833984
0.0828373383333333, 228.892765336709, 0.000238749511409624, 1.65125,333.066162109375
0.0835041033333333, 228.901988464936, -0.000274431712021661, 1.665,333.371917724609
0.0841709366666667, 228.91134009374, -0.000238043539771175, 1.6775,339.148406982422
0.0848378566666667, 228.919958305193, -0.000202931803379149, 1.69125,339.148406982422
0.0855044633333333, 228.929089817616, -0.000291205369492596, 1.70375,335.681335449219
0.0861707716666667, 228.938053340245, -0.000565975068078822, 1.7175,335.147918701172
0.0868375216666667, 228.947145503742, -0.000432216286657581, 1.73125,341.367523193359
0.087504095, 228.955871727386, -0.000655259583410098, 1.74375,339.708312988281
0.088170785, 228.964515140806, -0.000792813174230458, 1.7575,339.708312988281
0.08883741, 228.972810412381, -0.000914211076540296, 1.77125,341.512542724609
0.0895043116666667, 228.980553895738, -0.000759003372475509, 1.78375,343.884490966797
0.090170765, 228.987670174674, -0.000856388980890297, 1.79875,333.424530029297
0.0908374516666667, 228.995067507516, -0.000860687764973927, 1.81,336.16162109375
0.09150477, 229.00285665178, -0.000906048486556251, 1.82375,336.16162109375
0.0921707333333333, 229.010128076357, -0.000831100251115534, 1.8375,401.199829101563
0.09283746, 229.017556698911, -0.000940261768060693, 1.85,335.867980957031
0.09350407, 229.025052338496, -0.000855412529954998, 1.86375,336.739898681641
0.0941708, 229.032500125308, -0.000649031896225067, 1.8775,328.905609130859
0.0948374416666667, 229.040233142649, -0.000738986877913378, 1.89,328.905609130859
0.0955044116666667, 229.048065236229, -0.000742630194926514, 1.90375,326.497161865234
0.09617083, 229.056257774975, -0.000537407503027185, 1.91625,329.719635009766
0.096837355, 229.065291062327, -0.000664286130084215, 1.92875,330.053558349609
0.0975041966666667, 229.074088266851, -0.000648230936529965, 1.9425,329.361419677734
0.0981707616666667, 229.082807314072, -0.000470716352871681, 1.955,329.361419677734
0.0988379183333333, 229.091535433515, -0.000455235630470149, 1.96875,327.936706542969
0.0995042883333333, 229.100334155655, -0.000587504986703906, 1.9825,328.946380615234
0.100170745, 229.108525373128, -0.000192730815812264, 1.99625,329.424713134766
0.100837985, 229.117088063818, -0.000148843020227736, 2.00875,321.213073730469
0.101504268333333, 229.125494610231, 2.77926075602059E-05, 2.02125,321.213073730469
0.102170846666667, 229.134053276369, -7.50557264876816E-05, 2.035,325.665130615234
0.102837553333333, 229.142717806307, -3.86180566893802E-05, 2.04875,330.337371826172
0.103504185, 229.152072656584, -0.000160164451493886, 2.06125,331.428863525391
0.104170731666667, 229.161006567992, -0.00032292877602004, 2.075,309.377258300781
0.104837838333333, 229.170004435203, -0.00027276529569083, 2.08875,309.377258300781
0.105504203333333, 229.179303737748, 6.97515321795611E-06, 2.1025,307.980743408203
0.10617078, 229.18808371467, 8.0802944916898E-05, 2.115,314.618560791016
0.106837521666667, 229.196733948388, 3.54152246953162E-05, 2.12875,308.061218261719
0.107504091666667, 229.205555618658, 0.000163736779262076, 2.14125,312.229431152344
0.108170783333333, 229.214524106108, -2.48487483082685E-05, 2.155,312.229431152344
0.108837418333333, 229.222989184413, 7.28248456769615E-05, 2.16875,365.303466796875
0.109504121666667, 229.232096117162, -9.90080233428386E-05, 2.1825,315.922698974609
0.11017078, 229.240862987403, -0.000281620850897959, 2.195,315.306854248047
0.110837495, 229.249768532525, -0.000309906430161784, 2.2075,316.140869140625
0.111504196666667, 229.258325828932, -0.000120932422107234, 2.2225,316.140869140625
0.112170728333333, 229.267460228949, -0.000607986457873556, 2.235,319.278747558594
0.112837676666667, 229.275846358476, -0.000369649929248659, 2.24875,313.113067626953
0.113504096666667, 229.284619325796, -0.000431479823626803, 2.2625,307.531036376953
0.114170738333333, 229.293564819077, -0.000705837042959624, 2.275,316.68798828125
0.114837493333333, 229.30244931134, -0.00114964225108598, 2.28875,316.68798828125
0.115504101666667, 229.310422073628, -0.00101381207366002, 2.3025,313.563507080078
0.116170888333333, 229.319130934743, -0.00123870027778986, 2.31625,313.685089111328
0.116837466666667, 229.327278177707, -0.00113399503701193, 2.32875,310.663482666016
0.117504076666667, 229.335074386885, -0.000790110310009452, 2.3425,309.780578613281
0.118170766666667, 229.343238446316, -0.000779234356312323, 2.355,309.780578613281
0.118837401666667, 229.352003179537, -0.000693443165553857, 2.36875,307.436584472656
0.119504323333333, 229.360178628995, -0.000820870764984988, 2.3825,301.540252685547
0.120170858333333, 229.368276585778, -0.000953441606108816, 2.39625,305.010803222656
0.120837465, 229.376564365049, -0.00138155760227783, 2.40875,306.72314453125
0.12150419, 229.384821055647, -0.00109235112882352, 2.4225,306.72314453125
0.122170776666667, 229.392353676299, -0.000925784495318735, 2.43625,308.589416503906
0.122837871666667, 229.400584702695, -0.000693051685263353, 2.44875,308.100738525391
0.123504198333333, 229.408395616251, -0.000533216713628114, 2.4625,309.131500244141
0.124170713333333, 229.416228707037, -8.02634649934814E-05, 2.47625,302.977905273438
0.12483742, 229.423541288548, -0.00019778406206202, 2.48875,302.977905273438
0.125504538333333, 229.431634786054, -0.000205892654767549, 2.5025,352.606475830078
0.126170718333333, 229.438682401692, -6.30353303220882E-05, 2.51625,298.509918212891
0.126837611666667, 229.446857109168, -6.23318339382907E-06, 2.52875,297.656768798828
0.127504095, 229.454584391923, -0.000178910509980188, 2.5425,295.73095703125
0.128170853333333, 229.462950232148, -0.000296450606065969, 2.555,295.73095703125
0.128837435, 229.471251742156, -0.000657245483766348, 2.56875,294.620727539063
0.129504111666667, 229.480260134453, -0.00101888481899078, 2.5825,287.812835693359
0.130170933333333, 229.487981405425, -0.000959246314590875, 2.595,288.952362060547
0.130837641666667, 229.495998186612, -0.000919603305811459, 2.60875,283.687469482422
0.131504461666667, 229.50364811198, -0.000637510974992029, 2.62125,283.687469482422
0.132170721666667, 229.511196022346, -0.00033249979535881, 2.635,289.174407958984
0.13283751, 229.518141587274, -0.000120873925098015, 2.6475,283.080993652344
0.133504573333333, 229.525777266151, -0.000114742233074792, 2.66125,280.030334472656
0.134170771666667, 229.533417835053, -0.000111337404105536, 2.67375,275.880401611328
0.13483783, 229.541621937929, -0.000228378025322524, 2.6875,275.880401611328
0.135504118333333, 229.550164683266, -0.000358388495064909, 2.7,278.213104248047
0.136170791666667, 229.559439112413, -0.000514455655961542, 2.71375,292.455444335938
0.13683764, 229.569553894462, -0.000460080387206598, 2.7275,285.591461181641
0.13750407, 229.580303234776, -0.000167118102387652, 2.74,276.776062011719
0.138170818333333, 229.591286224375, -5.55492063501825E-05, 2.75375,276.776062011719
0.138838071666667, 229.602295915344, 1.91830399552108E-05, 2.76625,286.632354736328
0.13950416, 229.613765303494, 0.00022210484739486, 2.78,282.599304199219
0.14017086, 229.624851190662, 0.000215970155522831, 2.7925,291.99169921875
0.140837343333333, 229.636413912186, 0.000234806209409566, 2.805,289.779327392578
0.141504175, 229.647961657756, 0.000243127791422865, 2.81875,289.779327392578
0.142170806666667, 229.659607353806, 0.000237491074558987, 2.8325,355.133178710938
0.142837388333333, 229.671422070565, 0.000288289023017046, 2.845,301.368469238281
0.1435042, 229.683296732083, -0.000168796518049947, 2.86,293.536163330078
0.144170758333333, 229.694777099123, -0.000298498003280244, 2.8725,296.009002685547
0.144837411666667, 229.706637812538, -0.000674517116245435, 2.885,296.009002685547
0.145504165, 229.718587452214, -0.000916190977241441, 2.89875,294.844543457031
0.146170766666667, 229.729648174029, -0.000754490099308483, 2.9125,303.100402832031
0.146837751666667, 229.739610550133, -0.000167422587062767, 2.925,300.217864990234
0.147504458333333, 229.749915505702, -0.000495732096405052, 2.9375,282.690551757813
0.148170748333333, 229.760301226444, -0.000308435004130901, 2.95125,282.690551757813
0.14883746, 229.770799498211, 4.15154182635625E-05, 2.965,290.3291015625
0.149504048333333, 229.782090728427, -0.000254536711357447, 2.97875,290.41015625
0.150170941666667, 229.795248150545, -0.000677285977097677, 2.9925,289.990509033203
0.150837363333333, 229.808378820061, -0.000731719742946856, 3.005,278.638763427734
0.151504528333333, 229.821004978439, -0.00071112877725326, 3.01875,278.638763427734
0.15217072, 229.83402717136, -0.000743122170258307, 3.0325,281.019897460938
0.152837406666667, 229.846981388877, -0.000587807971539635, 3.04625,282.973968505859
0.153504325, 229.859900630048, -0.000505858087815535, 3.05875,276.661926269531
0.154170711666667, 229.872283447196, -0.000151386892504505, 3.0725,276.086151123047
0.154838731666667, 229.884928285254, -4.7086631400469E-05, 3.085,276.086151123047
0.155504958333333, 229.897046663434, -7.14634069680185E-05, 3.09875,275.283630371094
0.15617072, 229.909292091064, -0.000228187534859548, 3.1125,275.975372314453
0.156837456666667, 229.921410062216, -0.000383911212982818, 3.12625,278.416687011719
0.157504161666667, 229.933445396883, -0.00056408816290322, 3.13875,279.348693847656
0.158170755, 229.945421682589, -0.000789775826846271, 3.1525,279.348693847656
0.158837535, 229.957860337999, -0.000927053431533924, 3.16625,336.616790771484
