Time (min), Depth (µm), Load (N), Position (µm), Acoustic (aJ)
7.81E-06, 227.717806331471, -0.000426686106445727, 0,340.185150146484
0.000664721666666667, 227.718134281122, -0.000369336487067771, 0.00624999999999999,340.185150146484
0.00133108333333333, 227.718462380199, -0.000472319814311951, 0.01875,341.729431152344
0.00199771166666667, 227.720101209166, -0.000254779741108913, 0.03375,346.284637451172
0.002664695, 227.722040797374, -0.000509810431211373, 0.04875,359.718170166016
0.00333129833333333, 227.724818957419, -0.000508904476680518, 0.0625,362.206909179688
0.003997725, 227.728391728038, -0.00027408227152757, 0.07625,362.206909179688
0.00466449166666667, 227.733980371183, -0.000328013562616641, 0.09,371.936065673828
0.00533113666666667, 227.740081621839, -0.00039879800717002, 0.105,370.698211669922
0.00599785166666667, 227.74792499205, -0.000176005197792847, 0.1175,365.967376708984
0.00666586333333333, 227.756265797108, -0.000176500172952192, 0.13,367.539337158203
0.00733122, 227.765611866831, -0.000301380900300255, 0.14375,367.539337158203
0.007997705, 227.774293448002, -0.000359517980138701, 0.1575,365.501831054688
0.00866466166666667, 227.783532944457, -0.000518360001691459, 0.17,362.485382080078
0.00933133, 227.791995653651, -0.00033051243709755, 0.18375,366.535217285156
0.0101644583333333, 227.805421095361, -0.000173101343723058, 0.2,366.013336181641
0.01083126, 227.814727509922, -0.000250308465655146, 0.2125,437.385803222656
0.01149766, 227.824810333544, -0.000127380640177682, 0.22625,437.385803222656
0.0121644483333333, 227.835334673844, 2.77310687252963E-05, 0.24,365.069244384766
0.0128312166666667, 227.846598196666, -0.00043011193431412, 0.25625,369.961517333984
0.0136648883333333, 227.857576712464, -0.000494266711836125, 0.26875,367.467224121094
0.0143313333333333, 227.868269069521, -0.000575565628284194, 0.2825,363.309997558594
0.01499765, 227.879726701939, -0.000754668632140577, 0.295,371.949768066406
0.0156645866666667, 227.890397157147, -0.000812039250481433, 0.30875,371.949768066406
0.016331115, 227.907225923981, -0.000846236032817439, 0.32375,372.387847900391
0.01716485, 227.918679174888, -0.000612324281989809, 0.33875,368.198699951172
0.0178311916666667, 227.930318606267, -0.000471847338018655, 0.3525,376.900268554688
0.0184976516666667, 227.941535521426, -0.000523290254097639, 0.365,375.204406738281
0.019164465, 227.951237987238, -0.000312552339232351, 0.3775,381.835968017578
0.0198314283333333, 227.9605987803, -0.000494929678592398, 0.39125,381.835968017578
0.02049821, 227.970124625152, -0.000397421076355288, 0.405,394.962371826172
0.0211645583333333, 227.979900567577, -0.000553743224442983, 0.41875,398.897613525391
0.0218312016666667, 227.989648599339, -0.000474205219541896, 0.4325,402.438903808594
0.0224976683333333, 228.001355730888, -0.000750825825181807, 0.445,407.600555419922
0.023164815, 228.012811292518, -0.000425274677284704, 0.4575,407.600555419922
0.0238325216666667, 228.024476144358, -0.000452523808573337, 0.47125,403.014373779297
0.024497785, 228.036058004468, -0.000332355844486711, 0.485,416.615600585938
0.02516594, 228.04770717506, -0.000392931801808682, 0.49875,405.481842041016
0.02583114, 228.058931626093, -0.000293803280939751, 0.51125,409.440155029297
0.0264977433333333, 228.071087556159, -0.000313072813042789, 0.525,409.440155029297
0.0271643483333333, 228.082527798044, -0.0003296754791105, 0.5375,491.855194091797
0.0278310616666667, 228.093782976061, -0.000204682257389684, 0.5525,407.736419677734
0.0284978316666667, 228.105531985992, -0.000403261782938009, 0.565,406.617248535156
0.0291643333333333, 228.117275311203, -0.000234133278106127, 0.5775,407.530883789063
0.0298313683333333, 228.128431496142, -0.000167889105486556, 0.595,407.530883789063
0.030664355, 228.140096955943, -0.000241149925697305, 0.60875,414.883850097656
0.031331105, 228.151551725132, -0.00037835253414354, 0.62125,411.788421630859
0.0319990966666667, 228.162645010963, 7.14853709741729E-05, 0.635,412.850311279297
0.0326644383333333, 228.173724403323, -1.45998050310936E-05, 0.64875,407.257781982422
0.0333310266666667, 228.185203259973, -0.000147919108559672, 0.6625,406.576049804688
0.0339977183333333, 228.196552686462, -0.000338249048487308, 0.67625,406.576049804688
0.03466434, 228.207714634181, -0.000278937527607317, 0.68875,405.633758544922
0.03533118, 228.21880879684, -0.000433287274785916, 0.7025,404.771697998047
0.03599829, 228.229500761821, -0.000408217534037791, 0.71625,408.005950927734
0.0366644616666667, 228.240332655739, -0.000477985029696983, 0.72875,407.830749511719
0.0373313633333333, 228.250767562984, -0.000310627935819143, 0.7425,407.830749511719
0.037997685, 228.261313131891, -0.000504805182521267, 0.75625,406.623016357422
0.0386645616666667, 228.271968500975, -0.000397832055684289, 0.77,409.127716064453
0.0393311866666667, 228.283111560256, -0.000463666748856754, 0.7825,413.444915771484
0.0399979883333333, 228.293833344067, -0.000808682419050573, 0.79625,410.628295898438
0.0406654733333333, 228.30468170041, -0.00100176772059584, 0.80875,410.628295898438
0.0413319333333333, 228.315975679752, -0.00109185919536234, 0.8225,408.736358642578
0.0419980216666667, 228.326656145247, -0.00116124421023494, 0.83625,412.335998535156
0.042664505, 228.337071371313, -0.00143735634139587, 0.84875,407.679351806641
0.0433311333333333, 228.347333135687, -0.00115631995756888, 0.8625,488.530853271484
0.04399785, 228.357288102028, -0.00103625998808179, 0.875,488.530853271484
0.0446647766666667, 228.36708332382, -0.000737008519219791, 0.88875,415.201629638672
0.0453314283333333, 228.376600305925, -0.000670908339342933, 0.9025,405.745300292969
0.0459979633333333, 228.386270790301, -0.000378520525697959, 0.915,409.274627685547
0.0466645466666667, 228.395268005147, -0.000131065955095364, 0.9275,404.126678466797
0.0473312133333333, 228.404326507931, -1.59932350567693E-05, 0.94125,404.126678466797
0.047997845, 228.413047699519, 5.5710663347094E-05, 0.955,409.035400390625
0.0486646216666667, 228.421997377207, -0.000310602437125542, 0.9675,405.4599609375
0.0493309816666667, 228.430240335384, -0.00019398179486899, 0.9825,404.167633056641
0.0499980116666667, 228.439184343295, -0.00036066092272527, 0.99375,410.972106933594
0.050664885, 228.447709277698, -0.000244503757173087, 1.0075,410.972106933594
0.051331875, 228.456379627611, -0.000350344440894319, 1.02125,405.499359130859
0.0519979866666667, 228.465132265541, -0.000218078084551876, 1.03375,402.820953369141
0.0526645483333333, 228.474691186561, -0.000569549430525038, 1.04875,405.322296142578
0.053331765, 228.483993711757, -0.000875871544299245, 1.06,413.244140625
0.053997955, 228.493044645954, -0.000856002042307379, 1.07375,413.244140625
0.05466503, 228.502163755802, -0.00067691103788873, 1.0875,402.978057861328
0.0553311616666667, 228.512008847614, -0.000498408003878667, 1.1,409.726409912109
0.055998035, 228.521360600088, -0.000483801737553013, 1.1125,417.746276855469
0.056664505, 228.530405414139, -0.000315373697544977, 1.12625,410.559051513672
0.0573311883333333, 228.539711384941, -0.000753054713248876, 1.13875,410.559051513672
0.0579976883333333, 228.548651572949, -0.000952901675151749, 1.1525,410.734893798828
0.058664655, 228.557127391307, -0.00120522500121748, 1.16625,416.942749023438
0.0593312733333333, 228.56567722131, -0.00104952982161537, 1.17875,415.699188232422
0.0599976633333333, 228.574212070937, -0.00110949830942649, 1.1925,497.708801269531
0.0606650916666667, 228.583607324459, -0.00133829831705891, 1.20625,497.708801269531
0.0613313983333333, 228.594030321319, -0.00140724685384515, 1.2175,414.145263671875
0.0619983433333333, 228.604904118546, -0.00121428604606786, 1.2325,409.840057373047
0.0626651533333333, 228.615507144939, -0.00137448099962364, 1.24625,406.463043212891
0.0633312366666667, 228.626390821521, -0.00125863581843235, 1.25875,404.094818115234
0.0639976883333333, 228.636464095476, -0.000805403583816207, 1.2725,404.094818115234
0.06466514, 228.645649925543, -0.000788229446444585, 1.28625,403.8720703125
0.0653312183333333, 228.653733569513, -0.000846227033292274, 1.29875,401.373168945313
0.0659992566666667, 228.662117762081, -0.0004816448458573, 1.3125,402.155883789063
0.0666645033333333, 228.670113515614, -0.000414353725812969, 1.32625,401.994995117188
0.0673311216666667, 228.678819720983, -0.000291779882600945, 1.34,401.994995117188
0.0679982716666667, 228.687518738891, -0.000139188047141775, 1.3525,407.454895019531
0.06866453, 228.697030484935, -0.000409019993742312, 1.36625,400.908905029297
0.0693312316666667, 228.706247983031, -0.0004689209849978, 1.38,402.263519287109
0.06999784, 228.716006472958, -0.000621628314657275, 1.39375,404.389221191406
0.07066469, 228.725181977889, -0.000735237108201986, 1.40625,404.389221191406
0.07133167, 228.734536894658, -0.000843108689905294, 1.42,393.769378662109
0.0719976483333333, 228.743129417814, -0.000446453613471901, 1.4325,401.988861083984
0.0726651716666667, 228.75235373138, -0.000611886303979041, 1.44625,410.369995117188
0.0733313416666667, 228.761023432584, -0.000549867419147342, 1.46,400.919647216797
0.0739982916666667, 228.769963491183, -0.000528523491233278, 1.47375,400.919647216797
0.074665775, 228.778456165407, -0.00052439719849853, 1.48625,408.180389404297
0.07533163, 228.787806236064, -0.000788764919605327, 1.5,404.432678222656
0.0759977233333333, 228.796588400089, -0.000547500538056427, 1.51375,402.923370361328
0.07666452, 228.80561538193, -0.000182000396759136, 1.52625,479.269012451172
0.0773311816666667, 228.813831649944, -0.000205262728282524, 1.54,479.269012451172
0.0779979783333333, 228.822474335448, 0.000152455803892912, 1.55375,405.868133544922
0.078664645, 228.830522754438, 0.00034953990455614, 1.5675,403.809356689453
0.0793313333333333, 228.838436029558, 0.000446546032054395, 1.58,396.647247314453
0.079998265, 228.846528654664, 9.50461875175714E-05, 1.59375,399.178344726563
0.0806644616666667, 228.854800424338, 3.3514778201947E-05, 1.6075,399.178344726563
0.0813311816666667, 228.862163525145, -0.000126831667782328, 1.62125,406.458770751953
0.0819983233333333, 228.869874315386, -0.000418471019043805, 1.63375,406.487213134766
0.0826647833333333, 228.877703112888, -0.0011078423926515, 1.64875,405.087005615234
0.0833313366666667, 228.884427671151, -0.000687041529029916, 1.66,406.289886474609
0.0839979933333333, 228.891547765162, -0.000463065279149793, 1.67375,406.289886474609
0.0846650716666667, 228.899023224086, -0.000335882167417648, 1.6875,405.479675292969
0.0853315783333333, 228.905869782331, 8.18303513262782E-05, 1.70125,404.311889648438
0.0859976533333333, 228.912625132324, 0.000451413287571877, 1.71375,405.071258544922
0.086664465, 228.920292450541, 0.000221891816173968, 1.72625,407.312469482422
0.0873313716666667, 228.928025442904, 2.11014016301589E-05, 1.74,407.312469482422
0.0879976866666667, 228.935394543885, 6.01369409199848E-05, 1.75375,411.091186523438
0.0886651666666667, 228.943383682393, 6.15915215315857E-06, 1.7675,413.882629394531
0.0893312133333333, 228.951142594376, 0.000488572421050653, 1.77875,411.108428955078
0.0899976666666667, 228.95939191204, 0.000647928916737491, 1.7925,409.278228759766
0.0906644833333333, 228.967563199437, 0.000769071831877521, 1.80625,409.278228759766
0.0913311366666667, 228.976779916799, 0.000398509444847816, 1.82,411.305145263672
0.0919978783333333, 228.985285961507, 0.000208758475846108, 1.83375,403.628295898438
0.0926651483333333, 228.994956106908, -0.000270189967042238, 1.84625,402.086639404297
0.093331215, 229.003488909282, -0.000379775962657281, 1.85875,482.1767578125
0.0939980383333333, 229.012791354747, -0.000579400935705964, 1.8725,482.1767578125
0.0946650466666667, 229.021054563567, -0.000171925402778363, 1.885,401.323822021484
0.09533147, 229.029801318297, -4.88460849574238E-05, 1.89875,402.716705322266
0.0959980283333333, 229.038045411568, -5.64207044903758E-05, 1.91125,399.658843994141
0.0966650866666667, 229.046609705458, -0.000484875683659541, 1.925,391.776977539063
0.0973311983333333, 229.054523099509, -0.000436585609207557, 1.93875,391.776977539063
0.09799772, 229.062709298584, -0.000711089821174406, 1.9525,397.749816894531
0.0986644816666667, 229.070785210443, -0.000462987283102078, 1.965,397.169860839844
0.099331695, 229.078700550681, -0.000277049122592328, 1.97875,403.30615234375
0.099998235, 229.086979881236, -8.00850159026156E-05, 1.99125,398.506256103516
0.10066443, 229.094963338568, 4.99521062494362E-06, 2.005,398.506256103516
0.101331206666667, 229.103444175847, -6.32513613705333E-05, 2.0175,399.498809814453
0.101999376666667, 229.111496752013, -0.00034376877129024, 2.03125,399.984283447266
0.102664878333333, 229.119535164653, -0.000519379950561977, 2.04375,402.028594970703
0.103331973333333, 229.126839299543, -0.000455871640500285, 2.0575,404.5849609375
0.103997698333333, 229.133508612144, -0.000682330265735389, 2.07,404.5849609375
0.104664523333333, 229.139816894667, -0.000887413464643961, 2.085,387.086547851563
0.105331825, 229.146628776641, -0.0010453195331778, 2.0975,389.290313720703
0.105997681666667, 229.153342108841, -0.00129740437122091, 2.11,386.240478515625
0.106665106666667, 229.160121529745, -0.00145996920575892, 2.12375,385.350036621094
0.107331706666667, 229.167979738725, -0.00123925079223528, 2.1375,385.350036621094
0.107998243333333, 229.175551069628, -0.00163010116022912, 2.15125,384.688079833984
0.108664965, 229.183289313458, -0.00205314891101062, 2.16375,388.491821289063
0.109331333333333, 229.189508200921, -0.00172801774201019, 2.1775,465.864166259766
0.109997745, 229.196623897671, -0.0013649924763821, 2.19125,386.972778320313
0.110665183333333, 229.203302190202, -0.00164933319422208, 2.20375,386.972778320313
0.111331811666667, 229.210682833218, -0.00102247118083222, 2.2175,390.159576416016
0.11199772, 229.217388048627, -0.000651268325954799, 2.23125,390.398498535156
0.112665365, 229.225550958915, -0.000567656525673078, 2.24375,388.966796875
0.113331866666667, 229.232611659776, -0.000529061964221572, 2.2575,391.294952392578
0.113997686666667, 229.240374662197, -0.000376635120468015, 2.27125,391.294952392578
0.114665051666667, 229.247533518204, -0.000530843874688946, 2.285,388.571624755859
0.115331368333333, 229.25472684474, -0.000498423003165208, 2.29875,395.062316894531
0.115998393333333, 229.262047015852, -0.000700699843005186, 2.3125,385.422790527344
0.116664613333333, 229.269829296098, -0.00113749290339859, 2.325,388.708404541016
0.117331096666667, 229.27683979292, -0.00104569901409433, 2.3375,388.708404541016
0.117997688333333, 229.284221499494, -0.000883603656000809, 2.35125,389.882049560547
0.118664521666667, 229.291845760473, -0.000807464480413873, 2.365,384.345520019531
0.119331063333333, 229.299004258042, -0.000736489545397518, 2.37875,383.519439697266
0.119997778333333, 229.305874107859, -0.000674019183214167, 2.39125,380.003845214844
0.120665063333333, 229.312856638415, -0.000582912259414121, 2.405,380.003845214844
0.12133118, 229.319779291839, -0.000620308381012375, 2.4175,384.444305419922
0.121997696666667, 229.32677291025, -0.000583932208135861, 2.43125,385.105895996094
0.122664683333333, 229.333730252364, -0.000500995373984385, 2.445,377.112548828125
0.123331311666667, 229.341112515297, -0.000445520660429313, 2.45875,380.885345458984
0.123998261666667, 229.348824670853, -0.000565370640499939, 2.4725,380.885345458984
0.124664575, 229.357261285521, -0.000312285352731079, 2.485,379.824035644531
0.125331863333333, 229.366528307607, 0.000123297268435105, 2.49875,371.994964599609
0.125997866666667, 229.376664218958, 0.000255175144357103, 2.51125,449.987518310547
0.126664323333333, 229.388174596044, 0.000324293172643414, 2.525,375.993011474609
0.127331256666667, 229.399822760434, 0.000622004218951984, 2.53875,375.993011474609
0.127997681666667, 229.412250209307, 0.000441357792650854, 2.55125,375.59423828125
0.128664526666667, 229.424634761532, -6.59557255584514E-05, 2.565,363.994934082031
0.12933176, 229.437022332589, -4.77526398549079E-05, 2.5775,374.500152587891
0.129997838333333, 229.449079537631, 8.85035160803312E-05, 2.59125,360.719879150391
0.130664553333333, 229.461841102175, 3.80127056615529E-06, 2.60375,360.719879150391
0.131331863333333, 229.47374647661, 9.82170281523944E-05, 2.6175,366.442169189453
0.131998113333333, 229.486228644695, 0.000327572007899034, 2.63,365.887512207031
0.132664306666667, 229.498307286116, 0.000543954139228962, 2.64375,355.190673828125
0.133331296666667, 229.510103273192, 0.000469856361094925, 2.65625,358.034637451172
0.133997933333333, 229.52194138562, 0.000391830280289879, 2.67,358.034637451172
0.134665125, 229.53346949844, 0.000709923802778738, 2.68375,363.098785400391
0.135331775, 229.544965579124, 0.000941947148506363, 2.69625,357.496917724609
0.135997666666667, 229.556330538439, 0.000816881930414192, 2.70875,360.047760009766
0.13666606, 229.567894368958, 0.000920702215624169, 2.7225,360.118194580078
0.137332508333333, 229.579240880334, 0.00099070519945718, 2.73625,360.118194580078
0.13799801, 229.590489755196, 0.000816478450685953, 2.74875,357.800476074219
0.138664501666667, 229.601609821884, 0.000527972442055487, 2.7625,360.275604248047
0.139331085, 229.613224730656, 0.000633450144028622, 2.775,360.069793701172
0.13999774, 229.624564647675, 0.000462721219560906, 2.78875,361.799591064453
0.140664491666667, 229.635880974105, 0.000409719881771888, 2.8025,361.799591064453
0.14133127, 229.647680312032, 0.000374852633121355, 2.815,366.237640380859
0.141998383333333, 229.659294799339, -3.35936972522704E-06, 2.82875,366.524597167969
0.142664316666667, 229.670387836758, -0.000127974610432659, 2.84125,443.385559082031
0.143331765, 229.681619687669, -9.55942368465555E-05, 2.855,376.087463378906
0.143998081666667, 229.692690830198, -0.000183545319170794, 2.86875,376.087463378906
0.144665086666667, 229.703937670987, -0.000362228344109248, 2.88125,376.447509765625
0.145331233333333, 229.714782520831, 2.93869854790339E-05, 2.89375,374.95947265625
0.145997953333333, 229.726535742189, -0.000530644384743312, 2.9075,380.7255859375
0.14666486, 229.737516333566, -0.000730926324786892, 2.92125,385.120727539063
0.147331251666667, 229.748416295045, -0.000718617943008349, 2.93375,385.120727539063
0.147997706666667, 229.759533856788, -0.000830852805565881, 2.9475,364.867553710938
0.148664973333333, 229.771028285122, -0.00117705791606653, 2.96125,368.386993408203
0.149331271666667, 229.781470910534, -0.000455364665966968, 2.97375,368.796630859375
0.149997815, 229.793961780933, -0.000334377743028639, 2.9875,361.956878662109
0.150664931666667, 229.806135536736, -0.000594592172718921, 3.00125,361.956878662109
0.151332075, 229.818036902508, -0.000427061087652812, 3.01375,370.271362304688
0.151997666666667, 229.830073513269, -0.000370069950249743, 3.02875,357.091949462891
0.152664505, 229.843056051327, -0.000586636572302525, 3.0425,360.689727783203
0.153331318333333, 229.854741104874, -0.000693854186880996, 3.055,352.925903320313
0.153997718333333, 229.867139008187, -0.000507608541804816, 3.06875,352.925903320313
0.154664613333333, 229.879474575532, -0.000521311853533439, 3.0825,357.740447998047
0.155331215, 229.891798774685, -0.000734886125891624, 3.095,358.228729248047
0.155998041666667, 229.904200573788, -0.000946321505753206, 3.1075,359.464630126953
0.156664538333333, 229.916487925168, -0.00101900935469313, 3.1225,356.871673583984
0.157331328333333, 229.928275227546, -0.00113926431439514, 3.135,356.871673583984
0.157997715, 229.940332156901, -0.00141736084583915, 3.14875,366.008026123047
0.15866461, 229.952182361193, -0.00107636047397424, 3.1625,365.358154296875
0.15933131, 229.963998955271, -0.00110154420904077, 3.175,425.307525634766
0.15999799, 229.975666447172, -0.000824311634159314, 3.18875,362.698944091797
