Time (min), Depth (µm), Load (N), Position (µm), Acoustic (aJ)
8.93333333333333E-06, 254.869940499369, 0.000584086838904996, 0,226.26335144043
0.000665606666666667, 254.870153935706, 0.000577371676203889, 0.00125000000039677,226.26335144043
0.00133054, 254.8698368182, 0.000630518506723786, 0.00625000000020748,228.243408203125
0.00199877833333333, 254.869632446257, 0.000660269512363389, 0.0137500000008117,232.8095703125
0.00266549166666667, 254.870001683067, 0.000525003306598062, 0.0200000000010192,241.279571533203
0.00333042833333333, 254.869898925854, 0.000381003039566032, 0.0275000000016234,243.200393676758
0.00399785666666667, 254.869742509562, 0.000388417167187836, 0.0337500000000546,243.200393676758
0.004663925, 254.870745075873, 0.000287997211173905, 0.0425000000010556,248.2451171875
0.00533045666666667, 254.872178485291, 0.000248090215635753, 0.0487500000012631,251.700561523438
0.00599722, 254.874011998304, 0.000378268676932557, 0.0550000000014705,250.546966552734
0.00666402166666667, 254.876919434044, 0.000576015744309549, 0.0625000000002984,251.962524414063
0.007330525, 254.880073536472, 0.000803723806806362, 0.0687500000005059,251.962524414063
0.00799722333333333, 254.883726657219, 0.000880345958136164, 0.0750000000007134,249.434356689453
0.00866375833333333, 254.887501438046, 0.000694013317444595, 0.0825000000013176,251.544235229492
0.009331005, 254.891760051162, 0.000696174708913517, 0.0887500000015251,255.945220947266
0.00999713, 254.895929744281, 0.00024898417081389, 0.0949999999999562,255.912261962891
0.0106638366666667, 254.901049766467, 4.68873219235568E-05, 0.10250000000056,255.912261962891
0.0113305366666667, 254.905821067857, -0.000228966822218765, 0.108750000000768,257.234100341797
0.0119971783333333, 254.911008005347, -0.000112967148750179, 0.115000000000975,249.655029296875
0.0126637716666667, 254.915702008497, -0.000350283728589573, 0.121250000001183,251.878845214844
0.01333049, 254.920740667137, -0.000304708517775076, 0.128750000000011,251.961334228516
0.0139972566666667, 254.925307655622, -0.000145266526418507, 0.137500000001012,251.961334228516
0.01483071, 254.930824097387, -0.00028257862934618, 0.143750000001219,249.304840087891
0.0154971033333333, 254.935957594319, -0.000599871192076175, 0.14875000000103,311.780487060547
0.0161637516666667, 254.941054723271, -0.000242763129196627, 0.157500000000255,256.458648681641
0.0168304616666667, 254.946645518669, -5.44280891078979E-05, 0.163750000000462,247.634963989258
0.017497125, 254.952498912734, -0.000540564170990647, 0.168750000000273,246.013366699219
0.0181638366666667, 254.957553075281, -0.000388902288810277, 0.177500000001274,246.013366699219
0.018830505, 254.962697829517, -0.000106718462623502, 0.183750000001481,252.502960205078
0.01949788, 254.96840568278, -0.0003940575298982, 0.188750000001292,247.438873291016
0.020164265, 254.973670946061, -6.32146477924774E-05, 0.19625000000012,250.417053222656
0.0208304816666667, 254.978506387905, 0.000265283852067125, 0.202500000000327,249.176147460938
0.0214971366666667, 254.983760072641, 0.000361450021729524, 0.210000000000932,249.176147460938
0.022163785, 254.989322372491, 0.000636134224646018, 0.216250000001139,247.341323852539
0.022830475, 254.994490710071, 0.000754712268588887, 0.223749999999967,245.640121459961
0.023497335, 255.00005107197, 0.000502360443938236, 0.228750000001554,247.173599243164
0.0241641283333333, 255.005934473203, 0.000495454790795407, 0.234999999999985,244.461486816406
0.0248483333333333, 255.011334016679, 0.000339539122306012, 0.242500000000589,244.461486816406
0.0254977433333333, 255.01666437581, -0.000173300118340076, 0.248750000000797,252.894073486328
0.026163775, 255.022071516517, -0.00045852579174801, 0.255000000001004,197.140975952148
0.026831005, 255.027318793777, -0.000429491750100689, 0.261250000001212,255.886566162109
0.0274972366666667, 255.031782018524, -0.000475861920976438, 0.266250000001023,249.534683227539
0.028163855, 255.035743547822, -0.000309154294535242, 0.273750000001627,249.534683227539
0.0288305883333333, 255.039606987945, 7.63683410643024E-05, 0.281250000000455,265.060424804688
0.0294971116666667, 255.044029130584, 0.00037891364448972, 0.287500000000662,270.230041503906
0.0301640433333333, 255.048684549383, 0.000378828148841243, 0.295000000001266,269.001678466797
0.03083071, 255.054666777309, 0.000467737683029196, 0.301250000001474,265.671997070313
0.0314974416666667, 255.061057784748, 0.000588373623614654, 0.307500000001681,265.671997070313
0.0321638, 255.067964911799, 0.000604868295104076, 0.313750000000113,330.401550292969
0.0328308733333333, 255.074386729229, 0.000434016376856547, 0.321250000000717,264.952087402344
0.0334971216666667, 255.080577923289, 0.000617482661503392, 0.327500000000924,275.651123046875
0.0341637883333333, 255.086621694134, 0.000704947768214705, 0.333750000001132,272.935791015625
0.0348305033333333, 255.093162704021, 0.000507830669172098, 0.34124999999996,272.935791015625
0.035497205, 255.099306002505, 0.000292087505722974, 0.347500000000167,275.367370605469
0.0361648366666667, 255.105494451708, 0.000497983663764382, 0.353750000000375,275.808837890625
0.0368309533333333, 255.111574972888, 0.000655651244296848, 0.361250000000979,278.680938720703
0.0374977083333333, 255.118092105384, 0.000413368413908103, 0.367500000001186,282.053344726563
0.0381638016666667, 255.124243425324, 0.000325214841810679, 0.373750000001394,282.053344726563
0.0388306066666667, 255.130426513811, 0.000245466847493136, 0.380000000001601,281.304656982422
0.03949749, 255.135973105271, 0.000207284765358796, 0.386250000000032,277.334625244141
0.0401644666666667, 255.14198992988, 0.000185664851290771, 0.393750000000637,278.420074462891
0.0408311233333333, 255.147921615174, 9.56858708120075E-05, 0.400000000000844,282.168243408203
0.0414970933333333, 255.153499221892, 0.000318828162596394, 0.406250000001052,282.168243408203
0.0421641916666667, 255.158826494821, 0.000384278875057862, 0.413750000001656,271.800994873047
0.0428326316666667, 255.165414911198, 0.000189966635138191, 0.420000000000087,282.976501464844
0.0434972316666667, 255.170857865781, 0.000195610851645339, 0.426250000000294,279.159790039063
0.044164345, 255.17662100036, 0.000200902585853959, 0.433750000000899,274.213958740234
0.0448304783333333, 255.18206668809, 0.000208627197848491, 0.440000000001106,274.213958740234
0.0454971083333333, 255.188193252762, 0.000360142087437342, 0.446250000001314,272.423736572266
0.0461638033333333, 255.193587891658, 0.000388333171485016, 0.452500000001521,277.622100830078
0.04683044, 255.199528761673, -5.99102202188638E-06, 0.460000000000349,273.166534423828
0.04749711, 255.20485038911, 0.000180185626531744, 0.466250000000557,333.054382324219
0.0481642366666667, 255.210902407103, 0.000116044348308115, 0.472500000000764,333.054382324219
0.048830725, 255.216255763719, -0.000246667433077185, 0.481249999999989,274.910125732422
0.0494971616666667, 255.221816967682, -1.65924895319652E-05, 0.486250000001576,271.549682617188
0.0501638666666667, 255.227554631854, -0.000130873249336861, 0.492500000000007,273.077667236328
0.05083045, 255.233224376205, -0.000106935951683228, 0.498750000000214,269.2451171875
0.0514970833333333, 255.23892810716, -0.000145917493715791, 0.506250000000819,269.2451171875
0.0521639233333333, 255.244945344759, -7.3109650759843E-05, 0.512500000001026,270.272308349609
0.0528310733333333, 255.251186810842, 2.01107600850229E-06, 0.518750000001234,271.636413574219
0.0534974416666667, 255.257033005116, 0.000179179177044617, 0.525000000001441,277.1123046875
0.0541638, 255.262505269419, 0.00024433740424745, 0.532500000000269,272.083862304688
0.0548304416666667, 255.268257054828, 0.000299803118256103, 0.538750000000476,272.083862304688
0.055497405, 255.274182916931, 0.000190226122187479, 0.545000000000684,271.074157714844
0.0561638483333333, 255.279497769662, -0.00022279913198861, 0.552500000001288,265.07763671875
0.0568304466666667, 255.285011158095, 8.80723464863891E-06, 0.558750000001496,271.128082275391
0.0574971066666667, 255.290863042364, -6.72629444370014E-05, 0.565000000001703,268.930511474609
0.058164085, 255.296685266921, 3.40750584047628E-06, 0.571250000000134,268.930511474609
0.0588309716666667, 255.302180752649, 0.000285418840720877, 0.580000000001135,270.097839355469
0.05949716, 255.308276498637, 0.000425643797392284, 0.585000000000946,266.265960693359
0.0601637983333333, 255.31412395477, 0.000357253232547823, 0.591250000001153,271.842376708984
0.0608304283333333, 255.320045709014, 0.000365856800370189, 0.598749999999981,264.713500976563
0.0614974066666667, 255.326167052852, 8.36639746369944E-05, 0.605000000000189,264.713500976563
0.062164045, 255.33233733344, -4.72149514624016E-05, 0.611250000000396,267.705871582031
0.062830495, 255.338437607223, -7.67469681178744E-05, 0.618750000001,265.372955322266
0.06349747, 255.344577288151, -9.65219748085731E-05, 0.626250000001605,263.914611816406
0.06416381, 255.350868793103, 5.63983442011802E-05, 0.631250000001415,322.281799316406
0.0648305466666667, 255.356185721107, 0.000617670152096308, 0.637500000001623,322.281799316406
0.0654971316666667, 255.362020138426, 0.0006478906341804, 0.645000000000451,272.642242431641
0.066163785, 255.367618265722, 0.000985781662247261, 0.651250000000658,274.566528320313
0.0668304733333333, 255.37360683612, 0.000748591076078995, 0.657500000000866,270.939208984375
0.0674974216666667, 255.379181348917, 0.000775316733665874, 0.663750000001073,268.941223144531
0.0681640383333333, 255.385546573918, 0.000218100722037287, 0.671250000001677,268.941223144531
0.068830655, 255.391404896539, 0.00020108557665241, 0.677500000000109,269.869506835938
0.0694975933333333, 255.397038676994, -0.000104962050892238, 0.685000000000713,271.077697753906
0.070163775, 255.403239463148, -0.000170912238307515, 0.692500000001317,268.462036132813
0.0708304683333333, 255.409496070471, -0.00034613343714939, 0.697500000001128,273.325042724609
0.0714971083333333, 255.415481561892, -0.000178687847753012, 0.703750000001335,273.325042724609
0.0721640733333333, 255.420949701743, 1.43659553585304E-05, 0.711250000000163,267.710113525391
0.0728306783333333, 255.427637621413, 0.000163704454276935, 0.718750000000767,271.815765380859
0.0734971433333333, 255.434043881569, 0.000305258344182169, 0.723750000000578,278.195220947266
0.0741637783333333, 255.440287049886, 0.000396233274634729, 0.730000000000786,277.502044677734
0.0748306316666667, 255.446046650928, 0.000344746860726796, 0.736250000000993,277.502044677734
0.0754973816666667, 255.453492817606, 0.000428292664334773, 0.746250000000614,269.522735595703
0.0761639783333333, 255.460747729024, 0.000299144651315548, 0.750000000000028,273.710662841797
0.07683049, 255.467471118573, 0.000497569684671591, 0.756250000000236,278.279296875
0.077497215, 255.474158213562, 0.000203566452146751, 0.765000000001237,275.152954101563
0.07816378, 255.481436057478, 0.000296447786813408, 0.772500000000065,275.152954101563
0.078830455, 255.487898628173, 0.000148384223892822, 0.777500000001652,279.297729492188
0.07949787, 255.493315699194, 1.297552533044E-05, 0.783750000000083,279.693054199219
0.0801637783333333, 255.499213617326, -0.000223399101877438, 0.791250000000687,279.718231201172
0.0808304766666667, 255.505541946011, 2.37494841043852E-05, 0.797500000000895,336.702758789063
0.0814973966666667, 255.51190585562, -4.91407617282272E-06, 0.803750000001102,336.702758789063
0.082164245, 255.517813167907, 0.000113063997923726, 0.808750000000913,282.552215576172
0.0828306516666667, 255.52425856285, 6.44334405896947E-05, 0.817500000000138,282.296356201172
0.0834971133333333, 255.530731973591, 0.000119686165311831, 0.823750000000345,277.443450927734
0.0841637766666667, 255.53727544675, -0.000120750257817692, 0.830000000000553,282.183837890625
0.0848306233333333, 255.543687120809, -0.00035175815451177, 0.837500000001157,282.183837890625
0.0854970766666667, 255.550184257818, -0.000639694191805236, 0.843750000001364,277.099212646484
0.0861644016666667, 255.556308245368, -0.000465891921703893, 0.848750000001175,286.5224609375
0.0868308716666667, 255.562247311105, -0.000569427221213489, 0.856250000000003,273.662414550781
0.0874972216666667, 255.568010935346, -0.000237997868559822, 0.863750000000607,278.001922607422
0.08816379, 255.57409511596, -0.00014831887306798, 0.870000000000815,278.001922607422
0.0888304666666667, 255.579814361061, 0.000171049585397443, 0.876250000001022,273.363525390625
0.0894975416666667, 255.585592987033, 0.000312186496191047, 0.88250000000123,277.777069091797
0.0901638083333333, 255.591425148057, 0.000310368587537995, 0.888750000001437,272.457611083984
0.0908304683333333, 255.597246862839, -2.90658630373753E-05, 0.895000000001644,272.352691650391
0.0914970883333333, 255.602562149507, 0.000228510199159986, 0.902500000000472,272.352691650391
0.09216376, 255.608240114644, 8.53078920592682E-05, 0.910000000001077,275.219879150391
0.0928306983333333, 255.614652515159, -0.000362274126352118, 0.915000000000887,271.328033447266
0.0934973483333333, 255.620593924623, -0.000449473746401546, 0.921250000001095,274.281829833984
0.0941643166666667, 255.626684604615, -0.000417357359552923, 0.928750000001699,274.717376708984
0.094830745, 255.632757786949, -0.00047892476707548, 0.93500000000013,274.717376708984
0.0954976566666667, 255.638995167395, -0.000544387478953429, 0.941250000000338,273.338836669922
0.096165145, 255.644634780311, -0.000151038236457423, 0.948750000000942,279.509094238281
0.0968310066666667, 255.650918351847, -0.000191429707684097, 0.956250000001546,276.566589355469
0.097497165, 255.656945598125, -0.000282745121018704, 0.961250000001357,333.103637695313
0.0981643633333333, 255.663025221831, -0.000242941620264377, 0.967500000001564,333.103637695313
0.098830465, 255.669014257746, -0.000272989610978333, 0.973749999999995,272.172882080078
0.099497595, 255.674993412971, -0.000293735068970481, 0.9812500000006,271.202270507813
0.100164165, 255.680534291795, -4.45450854932501E-05, 0.988750000001204,272.377593994141
0.100830526666667, 255.686755750549, 0.000260890572767344, 0.995000000001411,274.806823730469
0.101497195, 255.693053033324, 0.000273492939771434, 1.00125000000162,274.806823730469
0.102165571666667, 255.699528841276, 1.24145534760969E-05, 1.00875000000045,273.123046875
0.102830461666667, 255.705512066648, 0.000138972196625814, 1.01375000000026,264.437561035156
0.103497148333333, 255.711641748376, 0.000199189671951643, 1.02000000000046,271.319549560547
0.104164085, 255.716892221108, -0.000190550751792501, 1.02750000000107,265.916015625
0.10483044, 255.722277379979, -0.000373967538997801, 1.03500000000167,265.916015625
0.105497348333333, 255.727471860176, -0.000160699251260389, 1.0412500000001,273.282073974609
0.106164088333333, 255.732959807918, -0.000422841084191431, 1.04750000000031,275.639678955078
0.106831091666667, 255.738883848968, -0.000662704536113893, 1.05375000000052,271.138854980469
0.107497195, 255.744820308545, -0.000441063668912217, 1.06000000000073,272.752990722656
0.108163766666667, 255.750863701104, -0.000319640267845016, 1.06625000000093,272.752990722656
0.108830691666667, 255.75682151868, -0.000367381369837883, 1.07375000000154,274.268096923828
0.109497635, 255.763097293273, -0.000464114511030983, 1.07999999999997,276.004852294922
0.110163768333333, 255.769084552113, -0.000557889800790761, 1.08625000000018,276.036651611328
0.110830566666667, 255.775147626849, -0.000299919258369072, 1.09375000000078,269.520050048828
0.111497116666667, 255.78099778208, -1.63075039166003E-05, 1.10000000000099,269.520050048828
0.112163773333333, 255.78722654606, 1.65558453911147E-05, 1.1062500000012,274.359039306641
0.112830428333333, 255.793402570482, -7.31471489336868E-05, 1.1125000000014,280.369689941406
0.113497151666667, 255.799058624394, 4.02681543204963E-05, 1.12000000000023,276.514221191406
0.114163981666667, 255.80489135454, -9.80608975651271E-05, 1.12625000000044,334.874725341797
0.114830451666667, 255.810969534929, -0.00041425251557059, 1.13250000000065,334.874725341797
0.115497193333333, 255.816572905538, -0.000357045389032197, 1.13875000000085,275.53662109375
0.116163776666667, 255.82236176942, -0.00021669893850538, 1.14625000000146,274.032836914063
0.11683043, 255.828000682013, -1.57330328063903E-05, 1.15250000000167,284.89208984375
0.117497853333333, 255.833587595694, -0.000187928883595541, 1.1587500000001,272.9677734375
0.1181638, 255.839301330763, 4.56363846524282E-05, 1.1650000000003,272.9677734375
0.1188305, 255.844696286939, 9.1336089234904E-05, 1.17125000000051,279.288452148438
0.119497158333333, 255.849590868288, -1.27991801635197E-05, 1.17875000000112,277.783111572266
0.120164225, 255.854993073092, -0.000162059682927939, 1.18500000000132,278.234558105469
0.120830556666667, 255.860308446698, -9.65249746786337E-05, 1.19250000000015,271.822387695313
0.121497123333333, 255.865676211272, -0.000314252538453333, 1.19875000000036,271.822387695313
0.122163775, 255.871317091824, -0.000453226557917374, 1.20500000000057,271.040283203125
0.122830445, 255.876389886372, -0.000268470338049932, 1.21125000000077,271.806243896484
0.123497156666667, 255.881815730068, -0.000352964094029547, 1.21750000000098,277.359741210938
0.124165791666667, 255.887056154614, -0.000532659568131487, 1.22375000000119,273.731079101563
0.124832021666667, 255.891424736965, -0.000520178695046569, 1.23125000000002,273.731079101563
0.125497465, 255.89618342273, -0.000618504756232232, 1.23875000000062,265.393035888672
0.126164083333333, 255.905840549851, -0.00109845214892193, 1.24500000000083,265.63623046875
0.126830695, 255.915507548051, -0.000839563652616666, 1.25125000000104,266.981781005859
0.127497166666667, 255.924974731689, -0.000695267900477194, 1.25750000000124,270.406585693359
0.128163801666667, 255.934405987738, -0.000632305562983304, 1.26500000000007,270.406585693359
0.128830506666667, 255.944024638802, -0.000480972164332263, 1.27125000000028,271.779632568359
0.129497373333333, 255.949228658083, -0.000287961859007161, 1.27750000000049,269.447265625
0.130163773333333, 255.954148320778, -0.000729391186496187, 1.28375000000069,323.114288330078
0.130830628333333, 255.959848026002, -0.000783242981549377, 1.2912500000013,266.16455078125
0.131497336666667, 255.965622140233, -0.000758258736470983, 1.29750000000151,266.16455078125
0.132163771666667, 255.971256198702, -0.000575908395750195, 1.30375000000171,273.039001464844
0.132830466666667, 255.977353504403, -0.000479302748195134, 1.31125000000054,267.763946533203
0.133497448333333, 255.98288847015, -0.000178672848487726, 1.31750000000075,266.321166992188
0.134163985, 255.988778701186, -7.71939456750616E-05, 1.32375000000096,267.16064453125
0.134831028333333, 255.99453909893, -0.000188323363798614, 1.33000000000116,267.16064453125
0.13549713, 256.000706002814, -0.000675804878083627, 1.33749999999999,268.416107177734
0.136164686666667, 256.006588456112, -0.000477222352686496, 1.3437500000002,274.566497802734
0.13683069, 256.013049572085, -0.000300231242793728, 1.35000000000041,267.939453125
0.13749738, 256.019018556677, -0.000282317642563776, 1.35750000000101,269.011016845703
0.138164518333333, 256.025821318163, -0.000423067572840085, 1.36375000000122,269.011016845703
0.138830751666667, 256.031715122038, -0.000216533946799768, 1.37000000000143,267.536804199219
0.139497723333333, 256.037671610534, 3.79582703356514E-05, 1.37750000000025,261.957366943359
0.140164315, 256.043621497096, -0.000398813791052349, 1.38375000000046,261.924835205078
0.140830671666667, 256.050047252974, -0.000447493845934196, 1.39000000000067,265.318786621094
0.141497741666667, 256.056215581116, -0.000292934109317887, 1.39625000000088,265.318786621094
0.142163806666667, 256.062538186044, -0.000471977116176885, 1.40375000000148,265.54443359375
