Time (min), Depth (µm), Load (N), Position (µm), Acoustic (aJ)
8.03666666666667E-06, 233.744358335203, 4.71304183279387E-05, 0,439.403930664063
0.000667025, 233.744203019147, 0.000234859488872736, 0,448.686798095703
0.00133253333333333, 233.7437855832, 0.000619761155641806, 0,448.686798095703
0.00199858333333333, 233.742244271903, 7.36445865314503E-05, 0.00875,454.509979248047
0.00266549833333333, 233.740448605615, -0.0002782992356925, 0.02,466.666625976563
0.00333213833333333, 233.73855089346, -0.000104193980797937, 0.02875,478.17041015625
0.003998565, 233.737308221998, -0.000241323092927159, 0.03625,477.491119384766
0.00466529333333333, 233.736825130386, -0.000341221075142486, 0.045,477.491119384766
0.00549906833333333, 233.738178907704, 5.0350756595594E-05, 0.0525,491.732604980469
0.006165725, 233.740513405759, 0.000219954737569579, 0.05875,487.467315673828
0.00683223, 233.744048797426, -8.20490931037546E-05, 0.065,491.586395263672
0.007498405, 233.747672926293, -0.000141335115247636, 0.0725,489.797973632813
0.00816509666666667, 233.752023488882, -0.000411906524727758, 0.07875,494.999298095703
0.00883203, 233.756419261038, -0.000229140704862251, 0.085,494.999298095703
0.00949856833333333, 233.760828506163, -0.000332890493625275, 0.09125,594.413391113281
0.0101654733333333, 233.765369842883, -0.000503308933677754, 0.0975,483.527191162109
0.0108317566666667, 233.770445656635, -0.000589862086139345, 0.105,492.923248291016
0.0114984816666667, 233.778082458863, -0.000838767083916194, 0.11375,496.010681152344
0.01233281, 233.782992756011, -0.000753605861470859, 0.12,491.737915039063
0.012998535, 233.788007671095, -0.00109541919253237, 0.12625,491.737915039063
0.0136655516666667, 233.793105080904, -0.0012048581955984, 0.13125,493.948974609375
0.0143318066666667, 233.797949430672, -0.00105743510052553, 0.13875,490.737701416016
0.0149986716666667, 233.804553955467, -0.000950044994598178, 0.14375,489.988159179688
0.0158323066666667, 233.81254100127, -0.00128492417397445, 0.15375,510.7294921875
0.0164986316666667, 233.819861896406, -0.00100477874537052, 0.16125,511.905975341797
0.0171660033333333, 233.827276840619, -0.000834457800382995, 0.1675,511.905975341797
0.01783189, 233.834336782968, -0.00114960547085501, 0.17375,506.864044189453
0.0184985433333333, 233.841470263246, -0.00111866052519913, 0.1825,512.208679199219
0.0193336033333333, 233.846222880826, -0.00140415168526895, 0.18875,510.278289794922
0.0199984966666667, 233.850852653845, -0.00139611658888043, 0.195,506.855194091797
0.0206653216666667, 233.855778702186, -0.00133139633973088, 0.2025,511.930023193359
0.0213318216666667, 233.860400295463, -0.000895110253934548, 0.20875,511.930023193359
0.0219984933333333, 233.865999083947, -0.0012595289495458, 0.215,508.492584228516
0.0226652, 233.870577792287, -0.00102194688304453, 0.2225,518.370971679688
0.023332225, 233.875508174094, -0.00100618417477016, 0.22875,518.02685546875
0.0239984083333333, 233.88016007991, -0.000892942862746759, 0.235,511.308502197266
0.0246652783333333, 233.885695619998, -0.00105968498742798, 0.2425,511.308502197266
0.0253319383333333, 233.890408534151, -0.000868672581790587, 0.24875,511.206207275391
0.0259999716666667, 233.895697495664, -0.000643314901258761, 0.255,612.945983886719
0.0266651533333333, 233.901174182772, -0.000881217951646099, 0.26125,517.656188964844
0.0273337616666667, 233.906835666685, -0.000908078602450525, 0.26875,507.966796875
0.0279984783333333, 233.911570085334, -0.000776596706698512, 0.275,507.966796875
0.02866515, 233.917124299126, -0.000774451814419279, 0.28125,514.725891113281
0.02933344, 233.922190792468, -0.000824804285265808, 0.28875,511.326141357422
0.0299985483333333, 233.926876254467, -0.000678774620176105, 0.295,511.909576416016
0.0306653216666667, 233.932214002001, -0.000842174912755511, 0.30125,514.235656738281
0.0313322483333333, 233.937932215207, -0.00101949600608076, 0.3075,514.235656738281
0.0319986416666667, 233.943186562207, -0.000911121949574834, 0.315,515.076599121094
0.03266535, 233.948352752743, -0.0010110184318445, 0.32125,509.736633300781
0.0333322366666667, 233.953721520202, -0.000954156288003876, 0.3275,506.147277832031
0.0339990633333333, 233.958362383803, -0.000618209162261195, 0.335,514.77734375
0.0346651066666667, 233.963243476856, -0.000536794751634075, 0.34125,514.77734375
0.0353322483333333, 233.968013531285, -0.000697021203623581, 0.34875,506.204528808594
0.0359990216666667, 233.973372795662, -0.000731526970429166, 0.35375,509.533447265625
0.03666568, 233.9779992628, -0.000687036205149511, 0.36125,506.713195800781
0.037332105, 233.983519473025, -0.000702293438793704, 0.3675,511.9091796875
0.037998925, 233.988221754158, -0.000669835069159885, 0.37375,511.9091796875
0.0386657033333333, 233.994122595056, -0.000695302289981144, 0.38125,508.159118652344
0.039332245, 233.999116902009, -0.000465887313258374, 0.3875,511.839050292969
0.0399986666666667, 234.00535538581, -0.000640739530633285, 0.39375,509.70556640625
0.04066621, 234.010434264764, -0.000746857700432881, 0.4,515.27685546875
0.0413320566666667, 234.016250230154, -0.000701372485082579, 0.4075,515.27685546875
0.04199929, 234.020984391717, -0.000822276912178729, 0.415,511.265319824219
0.0426653016666667, 234.026386605474, -0.00116009594389549, 0.42,613.349548339844
0.0433335716666667, 234.030977867894, -0.000968192583013784, 0.42625,515.67138671875
0.0439999866666667, 234.036146589167, -0.000508615667087898, 0.43375,508.065032958984
0.0446651333333333, 234.04081813987, -0.000524813353502966, 0.44125,508.065032958984
0.045331805, 234.045752987383, -0.000330024137559297, 0.44625,509.491302490234
0.0459985283333333, 234.050628494199, -1.1479137718787E-05, 0.45375,515.7158203125
0.046666035, 234.055207728511, 0.000121028706580104, 0.46,512.972534179688
0.0473327583333333, 234.059832545866, -0.000120694651921209, 0.4675,514.998168945313
0.047998485, 234.064829354579, -0.000166233864550028, 0.47375,514.998168945313
0.04866538, 234.069615698703, -0.00029549287195384, 0.48,518.72802734375
0.0493318316666667, 234.074088870672, -0.000339925140181768, 0.4875,516.232360839844
0.049999145, 234.079136672209, -0.000357580753350597, 0.49375,521.837158203125
0.050666305, 234.084120026925, -0.000626491746197501, 0.5,517.619995117188
0.05133212, 234.088706395997, -0.000336983787874372, 0.50625,517.619995117188
0.0519985833333333, 234.093201369714, -0.00021601186420133, 0.51375,513.555297851563
0.05266527, 234.098054556626, -0.000147685796148719, 0.52,510.529663085938
0.053332715, 234.102695683805, -0.000308258730739139, 0.5275,515.360717773438
0.0539985916666667, 234.107268944756, -0.000347774245923024, 0.5325,511.895690917969
0.0546652016666667, 234.112035469957, -0.000629295105459797, 0.54,511.895690917969
0.0553325916666667, 234.116846485337, -0.000487817711720383, 0.54625,515.308410644531
0.0559988866666667, 234.121765625165, -0.000568147676833914, 0.55375,513.621154785156
0.0566653516666667, 234.126790023723, -0.000439614632926296, 0.55875,513.680908203125
0.0573326166666667, 234.131586563972, -0.000277906255392576, 0.56625,516.209228515625
0.0579985283333333, 234.136538401552, -0.000160880633462129, 0.5725,516.209228515625
0.0586652016666667, 234.141148373362, -1.81838009703249E-05, 0.58,517.843811035156
0.0593324466666667, 234.146294844526, -0.000166980827030375, 0.585,616.24560546875
0.0599985966666667, 234.150980301979, -0.000213007515111507, 0.59125,506.681671142578
0.0606652233333333, 234.156224399296, -0.000214403944943481, 0.6,511.808563232422
0.0613318566666667, 234.161050561995, -0.00020680982641454, 0.60625,511.808563232422
0.0619988866666667, 234.16626857201, -0.000387069272177122, 0.6125,514.281921386719
0.0626653316666667, 234.170772198085, -0.000238111754184669, 0.61875,511.423950195313
0.0633325416666667, 234.176331804944, -0.000289698663048874, 0.62625,510.0498046875
0.0639988216666667, 234.180946184067, -0.000233449988331688, 0.6325,506.642120361328
0.06466543, 234.186557645086, -0.00045075607328531, 0.63875,506.642120361328
0.0653326283333333, 234.191800547659, -0.000565747797384874, 0.645,511.826721191406
0.0659987916666667, 234.19699732895, -0.000544306374320836, 0.65125,511.049346923828
0.06666514, 234.201444152554, -0.000486160294957225, 0.6575,513.070495605469
0.0673324816666667, 234.206665524978, -0.000624115865581421, 0.66625,506.918914794922
0.0679991266666667, 234.211176919041, -0.000483163445489418, 0.6725,506.918914794922
0.0686651716666667, 234.216060393061, -0.000380441105112658, 0.67875,508.327850341797
0.0693318266666667, 234.221065431755, -0.000417025767523733, 0.685,511.283905029297
0.0699988716666667, 234.226734036005, -0.000824039323650114, 0.6925,512.041442871094
0.0706658383333333, 234.231776434767, -0.00111963847601632, 0.6975,505.901947021484
0.0713318183333333, 234.236870376221, -0.00137909094400348, 0.705,505.901947021484
0.0719988083333333, 234.241642944416, -0.00131927094866577, 0.71125,510.796569824219
0.0726652266666667, 234.246605990595, -0.00146056985135869, 0.71875,513.742553710938
0.073332585, 234.251096954085, -0.00119086839818123, 0.72375,509.155151367188
0.0739990816666667, 234.255427310932, -0.000873187354945778, 0.73,502.352630615234
0.0746652833333333, 234.259535731752, -0.000677540182094667, 0.73875,502.352630615234
0.07533207, 234.26422429843, -0.00080108447660814, 0.745,607.50537109375
0.0759992483333333, 234.268301972341, -0.000780025534351949, 0.75125,510.349456787109
0.0766651883333333, 234.272728281847, -0.00095343632412028, 0.7575,510.728271484375
0.0773337666666667, 234.277130363534, -0.000953947798448061, 0.76375,507.822265625
0.07799913, 234.281510624599, -0.00086431230074266, 0.77125,507.822265625
0.0786651933333333, 234.285706845386, -0.000864466792998704, 0.7775,512.709106445313
0.0793333666666667, 234.290472144954, -0.000699986554700174, 0.785,513.1064453125
0.0799988316666667, 234.294288814243, -0.000508644165630306, 0.79,511.881591796875
0.0806659316666667, 234.298525616735, -0.000740066041523446, 0.79625,512.96484375
0.0813325266666667, 234.302484348071, -0.000754534314761492, 0.80375,512.96484375
0.0819985366666667, 234.306629973437, -0.000836743685471118, 0.81,514.069946289063
0.0826661666666667, 234.31012550201, -0.0013365665798928, 0.81625,507.985534667969
0.0833319233333333, 234.314082504014, -0.0014216003087426, 0.82375,513.689208984375
0.0839990566666667, 234.317797067975, -0.00143522712432666, 0.83,513.586791992188
0.0846657616666667, 234.321817338619, -0.00160364016511192, 0.83625,513.586791992188
0.0853323366666667, 234.325781625419, -0.00165276269773523, 0.8425,517.065673828125
0.085998845, 234.329761977585, -0.00141897844046063, 0.85,513.86083984375
0.086665155, 234.334103246687, -0.00151024585621433, 0.8575,511.286529541016
0.08733225, 234.338443351498, -0.00153526609945715, 0.8625,508.667205810547
0.08799858, 234.343114490481, -0.0017464404924088, 0.86875,508.667205810547
0.0886653883333333, 234.346813957802, -0.00202299360140806, 0.87625,506.971435546875
0.0893321333333333, 234.351195583653, -0.00216804831546561, 0.88375,511.960632324219
0.0899991633333333, 234.354944547834, -0.00257173053891849, 0.88875,510.167633056641
0.0906651516666667, 234.358693753086, -0.00273436586992471, 0.895,510.554748535156
0.0913319416666667, 234.361914601175, -0.00281564528731303, 0.9025,510.554748535156
0.0919985016666667, 234.365821881956, -0.00261375242818405, 0.90875,619.004638671875
0.0926666933333333, 234.369343654258, -0.00279282393362797, 0.915,513.380798339844
0.0933323516666667, 234.373085732907, -0.00255800922813954, 0.92125,507.441497802734
0.093998805, 234.376485772525, -0.00241895571263962, 0.92875,516.311706542969
0.0946653533333333, 234.380252178583, -0.00212824631467819, 0.935,516.311706542969
0.095332405, 234.383921851842, -0.0022928900448217, 0.94125,508.59814453125
0.0959984716666667, 234.387792551443, -0.00215871278438568, 0.94875,515.314575195313
0.0966654533333333, 234.391413587537, -0.00233926621535255, 0.955,503.987701416016
0.0973326383333333, 234.395528078983, -0.00209284509283383, 0.96125,511.365081787109
0.0979985283333333, 234.399234658891, -0.00232664284940681, 0.9675,511.365081787109
0.098665955, 234.40333234939, -0.00227491644755185, 0.975,509.86279296875
0.0993318033333333, 234.406969103879, -0.00213967574056514, 0.98125,510.508361816406
0.099998535, 234.411148533512, -0.00205934877532167, 0.9875,516.049377441406
0.100665206666667, 234.415159920125, -0.00243371497131817, 0.995,509.186065673828
0.101332666666667, 234.420211050062, -0.00243263052574082, 1.00125,509.186065673828
0.101998525, 234.424166159677, -0.00234833175995488, 1.0075,513.475463867188
0.102665208333333, 234.428511576015, -0.00199566647398669, 1.01375,512.978881835938
0.103332068333333, 234.432500840322, -0.00164650501199838, 1.02125,505.912780761719
0.103999011666667, 234.436871351892, -0.00148212076886165, 1.0275,510.334930419922
0.10466516, 234.440729621256, -0.0010717833797263, 1.03375,510.334930419922
0.105332363333333, 234.445400686184, -0.0010176121006902, 1.04,505.543975830078
0.105998618333333, 234.449955791215, -0.000966817152038439, 1.04625,509.880126953125
0.106665385, 234.455353707438, -0.00107438124921783, 1.05375,508.306030273438
0.107332036666667, 234.46026158662, -0.000715504775190533, 1.06,510.215698242188
0.107998926666667, 234.465234309342, -0.000698150646848013, 1.06625,510.215698242188
0.108665426666667, 234.470267958613, -0.00065157798615657, 1.07375,616.681640625
0.10933233, 234.475175002969, -0.0008561467108673, 1.08,506.833557128906
0.109999076666667, 234.479751392542, -0.000790884988901896, 1.08625,507.274719238281
0.110665701666667, 234.485423802037, -0.00111164537744734, 1.095,509.746002197266
0.111331865, 234.491490209415, -0.00121594413862697, 1.10125,509.746002197266
0.111998723333333, 234.497716931318, -0.00128512666366262, 1.10625,488.479339599609
0.112665196666667, 234.503969520445, -0.00145217027323391, 1.11375,484.988586425781
0.113331836666667, 234.509587714323, -0.00146124181757636, 1.12,482.299407958984
0.113998525, 234.514552789592, -0.00135999090333676, 1.12625,481.520385742188
0.114665388333333, 234.519396496289, -0.00165854190743868, 1.13375,481.520385742188
0.115332761666667, 234.524007880964, -0.00166732096647998, 1.14125,483.551910400391
0.11599854, 234.528926859479, -0.00148310021968827, 1.14625,476.987121582031
0.116665651666667, 234.534116476813, -0.00156176676836228, 1.1525,485.433837890625
0.117332538333333, 234.539374015284, -0.00169731795974298, 1.15875,491.618499755859
0.117999393333333, 234.544276252011, -0.00127384123051839, 1.1675,491.618499755859
0.118666111666667, 234.549358563698, -0.00136846247779038, 1.17375,488.502960205078
0.11933193, 234.554030312377, -0.00152668353051267, 1.17875,484.721984863281
0.119998865, 234.558716149937, -0.00149954539360862, 1.18625,485.213653564453
0.120667085, 234.563274703772, -0.00145779049092935, 1.1925,487.351409912109
0.121331836666667, 234.567789070766, -0.00180355762344049, 1.2,487.351409912109
0.121999028333333, 234.572302504997, -0.00148186878154065, 1.205,485.93505859375
0.122665348333333, 234.576774834443, -0.00144153280760192, 1.2125,482.803100585938
0.12333246, 234.581736825453, -0.00146024736761199, 1.21875,483.345153808594
0.123998448333333, 234.58594960335, -0.00143533211905614, 1.22625,483.618408203125
0.124666005, 234.5904828148, -0.00152854043728522, 1.2325,483.618408203125
0.125332036666667, 234.595403120782, -0.00204184615446323, 1.23875,587.160339355469
0.125998676666667, 234.599885460928, -0.0022607886571746, 1.24625,487.033843994141
0.126666428333333, 234.604282745397, -0.00240111560868417, 1.2525,483.523986816406
0.127331963333333, 234.608904558559, -0.00243879371617651, 1.25875,481.583923339844
0.127999053333333, 234.613282867487, -0.00229838426878225, 1.265,481.583923339844
0.12866536, 234.617169746467, -0.00188448005875707, 1.27125,492.156555175781
0.129332015, 234.621652636635, -0.00167400763055367, 1.27875,487.422943115234
0.1299985, 234.625754295032, -0.00156147578287927, 1.28625,487.006774902344
0.13066541, 234.630308872888, -0.00128337925137151, 1.29125,487.796325683594
0.131332241666667, 234.634371830752, -0.00106053694446777, 1.2975,487.796325683594
0.131998821666667, 234.638629384327, -0.00115013494406309, 1.305,487.75537109375
0.1326654, 234.642627777452, -0.00105364629059023, 1.3125,489.189300537109
0.133331841666667, 234.64686579647, -0.00108935049720656, 1.3175,485.325958251953
0.133999005, 234.651337961043, -0.00137752502252265, 1.325,487.990539550781
0.134665141666667, 234.655483473196, -0.00161138127618987, 1.3325,487.990539550781
0.135331825, 234.659436617104, -0.00147011837166137, 1.33875,487.292846679688
0.135999586666667, 234.663541161049, -0.00141945841626967, 1.345,487.718688964844
0.136666311666667, 234.667969887262, -0.00141621857902728, 1.35125,492.610778808594
0.13733256, 234.6713737604, -0.00115177886154913, 1.3575,489.333892822266
0.137998831666667, 234.675757846876, -0.000826328208608297, 1.365,489.333892822266
0.138665745, 234.679460827558, -0.000984801248672837, 1.37125,490.052276611328
0.139332701666667, 234.683710525996, -0.0010436027951282, 1.37875,484.969390869141
0.139998498333333, 234.686702383597, -0.000916938657324594, 1.38375,486.247924804688
0.140665243333333, 234.690833404441, -0.00126003292403903, 1.39125,488.886596679688
0.14133282, 234.694064415545, -0.00154338669149414, 1.39875,488.886596679688
0.141998608333333, 234.69743660849, -0.00120366125554203, 1.405,581.51904296875
0.142665365, 234.700377521305, -0.00109546868993141, 1.41125,489.222442626953
0.143331996666667, 234.704512923683, -0.000989338520757839, 1.4175,484.601531982422
0.143999011666667, 234.708249967995, -0.000862437394877268, 1.425,482.711547851563
0.144665336666667, 234.712230112583, -0.000942849855811725, 1.43125,482.711547851563
0.145331818333333, 234.716372663301, -0.000971562913572987, 1.4375,486.385040283203
0.145998521666667, 234.720543637589, -0.00101152090654085, 1.445,482.989624023438
0.146665365, 234.723976970115, -0.00125526916332663, 1.45,484.375640869141
0.14733239, 234.727430844649, -0.00113983646136749, 1.4575,480.584838867188
0.147998471666667, 234.730923781431, -0.000930740964021323, 1.46375,480.584838867188
0.148665598333333, 234.734773136625, -0.00109599366357882, 1.47,482.431610107422
0.14933198, 234.738555355382, -0.00101690263623492, 1.4775,480.914306640625
0.149999945, 234.742929060049, -0.00109874902515394, 1.48375,481.945709228516
0.150665751666667, 234.746525268047, -0.00088253488537843, 1.49,480.671112060547
0.151331841666667, 234.750703593987, -0.000873581835042581, 1.49625,480.671112060547
0.15199849, 234.754118352546, -0.000905509231373884, 1.50375,474.214233398438
0.15266515, 234.757916084723, -0.000991213426538215, 1.51,482.423156738281
0.15333206, 234.761529944002, -0.00081925306390163, 1.5175,476.545227050781
0.153999223333333, 234.765909550193, -0.000718218138797347, 1.52375,474.736663818359
0.154665173333333, 234.769649594296, -0.000588455156666515, 1.52875,474.736663818359
0.155332023333333, 234.77419613345, -0.00045780571906458, 1.53625,474.232177734375
0.155998851666667, 234.777766004182, -0.000133767995145414, 1.54375,474.817657470703
0.156665221666667, 234.781836852141, 0.000288822278565562, 1.55,473.915222167969
0.157332565, 234.785238857943, -0.000208356248644332, 1.555,570.661499023438
0.157998961666667, 234.789393407742, -0.000357304767090365, 1.5625,570.661499023438
0.158665418333333, 234.793134121038, -0.000271581072908792, 1.57,480.199981689453
0.159333056666667, 234.797483365156, -0.000587615198851912, 1.575,477.783447265625
0.15999907, 234.80110756073, -0.00100294583723964, 1.5825,475.252227783203
0.160665821666667, 234.80499529994, -0.000643097412050255, 1.59,476.791931152344
