Time (min), Depth (µm), Load (N), Position (µm), Acoustic (aJ)
8.515E-06, 233.70207946771, -0.00021286976132402, 0,256.255950927734
0.000665853333333333, 233.702477905134, -0.000397559984538972, 0,258.894989013672
0.001331865, 233.70280818416, -0.000458165940370262, 0,256.997863769531
0.0019982, 233.702038553811, -0.000325629597465201, 0.00875,256.997863769531
0.00266488833333333, 233.699688528595, 7.92225672347664E-05, 0.02,275.0517578125
0.003331655, 233.697719190711, 2.5168282323374E-05, 0.02875,285.779754638672
0.00399850333333333, 233.696041109387, -6.4201728720142E-05, 0.03625,284.601623535156
0.00466492666666667, 233.694291878391, -0.000144440198423821, 0.0425,290.305419921875
0.00533182, 233.693957294838, -0.000156771079068413, 0.05,290.305419921875
0.00599841833333333, 233.69534967082, -0.000269569913286587, 0.0575,296.272796630859
0.00666494, 233.697307406392, -0.000554911080894826, 0.06375,298.797088623047
0.00733320666666667, 233.699219235463, -0.000214890159792766, 0.07,295.982879638672
0.00799818666666667, 233.70249082055, -0.000256436572979981, 0.0775,299.059509277344
0.00866479333333333, 233.705464421722, -0.00042507010271628, 0.08375,299.059509277344
0.00933191666666667, 233.709205312516, -0.000413636177056122, 0.09,298.980285644531
0.00999853333333333, 233.712586485991, -2.54736740180003E-05, 0.09625,298.048767089844
0.0106648816666667, 233.71900667583, -0.000309920886575627, 0.105,302.097564697266
0.0114983266666667, 233.722878564632, -0.000372859225257811, 0.11125,297.01416015625
0.0121651616666667, 233.727861147011, -0.000391353296316841, 0.1175,362.579376220703
0.0128317866666667, 233.732431938226, -0.000574734085315208, 0.125,362.579376220703
0.01349831, 233.737649248205, -0.000770445754915659, 0.13125,303.308074951172
0.014164935, 233.742557942951, -0.00123629085598546, 0.1375,304.425415039063
0.0148317716666667, 233.74839061442, -0.0010305296911616, 0.1425,302.164855957031
0.0154988316666667, 233.754830465886, -0.000899799257620639, 0.14875,300.823028564453
0.0161652583333333, 233.761504765688, -0.00135055061682746, 0.15625,300.823028564453
0.016832195, 233.768231283915, -0.00166016956499263, 0.165,306.759307861328
0.0174981166666667, 233.774557005469, -0.00137780574783496, 0.17125,308.551177978516
0.0181651516666667, 233.780386792539, -0.00165746670072912, 0.1775,312.044647216797
0.0188316766666667, 233.784994235505, -0.00148078457528468, 0.18375,315.789031982422
0.01949822, 233.789541154444, -0.000982467605240169, 0.19,315.789031982422
0.0201648983333333, 233.793992732222, -0.000670615269234717, 0.1975,310.351837158203
0.0208316883333333, 233.798870146201, -0.000921476168730972, 0.20375,310.043579101563
0.02149872, 233.803251278695, -0.000556937479124947, 0.21,303.711303710938
0.0221649233333333, 233.808050451179, -0.000526673499254414, 0.2175,302.590026855469
0.02283174, 233.813285091269, -0.000770999227020461, 0.22375,302.590026855469
0.0234985616666667, 233.818195919704, -0.000960664700331184, 0.23,310.922882080078
0.0241649366666667, 233.823418882816, -0.000899944750266501, 0.2375,307.060760498047
0.0248318416666667, 233.828916735896, -0.00110718334086137, 0.24375,304.394287109375
0.0254985366666667, 233.834386337755, -0.00161697473456743, 0.25,302.130096435547
0.0261648816666667, 233.839384165782, -0.00159924262525403, 0.25625,302.130096435547
0.0268317683333333, 233.844481256331, -0.00127833974386903, 0.26375,307.591674804688
0.0274983133333333, 233.84931007439, -0.00133669881256166, 0.27,310.587158203125
0.0281656466666667, 233.854332226928, -0.00145937465069687, 0.27625,306.403717041016
0.0288317716666667, 233.859124680905, -0.00157350091826698, 0.28375,361.007904052734
0.0294981983333333, 233.864734752357, -0.00153291745675919, 0.29,361.007904052734
0.03016517, 233.869657552099, -0.00189668968488888, 0.29625,309.827392578125
0.0308316883333333, 233.875060084952, -0.00186137995843312, 0.3025,301.273223876953
0.0314984733333333, 233.880333114358, -0.00214359678297802, 0.31125,307.522216796875
0.03233171, 233.885828990405, -0.00206208337731903, 0.3175,306.493316650391
0.0329981816666667, 233.890352888498, -0.00189216891190855, 0.325,307.570556640625
0.0336649216666667, 233.895670614751, -0.00180052651496902, 0.33125,307.570556640625
0.0343320283333333, 233.900691162934, -0.00206835006247478, 0.3375,307.976379394531
0.0349985433333333, 233.905651593068, -0.0017209960097112, 0.34375,304.924011230469
0.0356650033333333, 233.910319883193, -0.00142015912043615, 0.35125,303.971588134766
0.0363316783333333, 233.915760904367, -0.0016288646373737, 0.3575,312.116912841797
0.0369982333333333, 233.920943906927, -0.00174835313557812, 0.36375,312.116912841797
0.0376649016666667, 233.925957127787, -0.00148345894094202, 0.37125,306.492279052734
0.0383316033333333, 233.934247171212, -0.00135291599795146, 0.38,315.709228515625
0.039164975, 233.93964761598, -0.00125642884440301, 0.385,313.661590576172
0.039831715, 233.944928221216, -0.0012035924983196, 0.3925,307.903015136719
0.0404986433333333, 233.950297900021, -0.00132038113215182, 0.39875,311.355926513672
0.04116502, 233.955925111496, -0.0014607545813179, 0.405,311.355926513672
0.0418322383333333, 233.960776844782, -0.00127639734142674, 0.41375,305.179840087891
0.0424983033333333, 233.965828673335, -0.00141351595406389, 0.41875,310.334136962891
0.0431649383333333, 233.971239046518, -0.00137851671204461, 0.42625,311.100616455078
0.043831905, 233.976456598382, -0.00126461093338304, 0.43125,313.005584716797
0.0444982866666667, 233.981912731044, -0.00130941518290548, 0.43875,313.005584716797
0.0451650833333333, 233.987099763971, -0.0017513409854145, 0.44625,304.414276123047
0.0458315016666667, 233.992309817245, -0.00156399589560195, 0.45125,370.082489013672
0.0464985666666667, 233.997243776304, -0.00129592636049405, 0.45875,304.370880126953
0.0471648883333333, 234.0023811281, -0.00119703332782019, 0.46625,305.377746582031
0.04783165, 234.007370995465, -0.00115366150637917, 0.47125,305.377746582031
0.04849835, 234.012478164896, -0.000794570543140953, 0.48,300.362274169922
0.0493315583333333, 234.017552624286, -0.00105145064028768, 0.48625,310.076629638672
0.049998185, 234.022614753363, -0.00129861122566473, 0.49375,301.437622070313
0.050664965, 234.027658846935, -0.00106587241591173, 0.50125,307.859680175781
0.051331645, 234.032148489133, -0.000801545192763824, 0.5075,307.511169433594
0.0519988916666667, 234.037481285437, -0.000928498816019763, 0.5125,307.511169433594
0.0526648733333333, 234.042552285107, -0.000497477465771542, 0.52,305.321960449219
0.0533317083333333, 234.048266124326, -0.000449106395401782, 0.5275,304.412567138672
0.0539990583333333, 234.053600284084, -0.000720300273615526, 0.5325,314.552185058594
0.054665015, 234.059228107156, -0.000793282107802252, 0.54,301.488647460938
0.0553319883333333, 234.064430940412, -0.000365265106665108, 0.54625,301.488647460938
0.0559982033333333, 234.069960522049, -0.000534327614865755, 0.5525,316.601287841797
0.0566648516666667, 234.075229309584, -0.000493564162365819, 0.56,306.704742431641
0.057331735, 234.080568356377, -0.000459029896996571, 0.56625,314.60791015625
0.0579984166666667, 234.086652663249, -0.000808423847309902, 0.5725,308.261077880859
0.0586650633333333, 234.091932826449, -0.00138717727707932, 0.58,308.261077880859
0.059331665, 234.097600209745, -0.00152822119255992, 0.58625,307.610260009766
0.0599982533333333, 234.102606257651, -0.00124867873371487, 0.5925,305.580352783203
0.060664965, 234.107953837797, -0.00107033469179783, 0.59875,298.988098144531
0.0613316666666667, 234.112691673117, -0.000769790287845165, 0.60625,369.495422363281
0.0619981783333333, 234.117599736267, -0.000263280729307293, 0.6125,369.495422363281
0.0626649116666667, 234.122370480105, -0.000250942349061938, 0.62,304.713104248047
0.063331975, 234.128181161278, -0.000507312471826539, 0.62625,313.111480712891
0.0639982933333333, 234.133373521867, -0.00050720147737819, 0.63125,305.222534179688
0.0646648566666667, 234.139123797597, -0.000585524543300097, 0.63875,303.754821777344
0.065331845, 234.144876196172, -0.00098943475532604, 0.64625,303.754821777344
0.0659983316666667, 234.150674555519, -0.00113102914319016, 0.6525,306.006530761719
0.0666648133333333, 234.156006739431, -0.00119901922813394, 0.65875,303.774505615234
0.0673314283333333, 234.161514979166, -0.00144446389971735, 0.665,302.078643798828
0.0679980783333333, 234.166463136817, -0.00144840420178359, 0.67125,300.056823730469
0.0686648733333333, 234.171808600831, -0.00125778627632802, 0.67875,300.056823730469
0.06933161, 234.176875028752, -0.000851927662140926, 0.685,307.462310791016
0.0699981916666667, 234.18184561379, -0.000754482056728754, 0.6925,314.109313964844
0.070664865, 234.187505093987, -0.000851986159192653, 0.69875,305.858367919922
0.07133151, 234.193277606965, -0.000811177708939365, 0.70375,301.424133300781
0.071998175, 234.198688247242, -0.000839808270879701, 0.71125,301.424133300781
0.0726652183333333, 234.204171089987, -0.00119287253684543, 0.71875,304.636383056641
0.07333162, 234.210205785207, -0.001250387147929, 0.725,305.699035644531
0.0739982533333333, 234.215272681428, -0.00107890526130457, 0.73125,303.8330078125
0.0746652216666667, 234.220500903235, -0.000902151139531283, 0.7375,301.861145019531
0.0753330133333333, 234.225883060898, -0.00100469048906708, 0.745,301.861145019531
0.0759982483333333, 234.231725049813, -0.000702323676624399, 0.75125,308.509246826172
0.07666499, 234.23751825577, -0.000736101979988134, 0.7575,306.41943359375
0.0773314283333333, 234.243283896571, -0.000738392364934482, 0.765,313.213134765625
0.07799838, 234.248869610609, -0.000999404754534822, 0.77,370.312896728516
0.078664855, 234.254756346979, -0.00106542993819152, 0.77625,370.312896728516
0.0793318183333333, 234.260295526134, -0.00126770827797715, 0.785,306.978210449219
0.0799983366666667, 234.265352988091, -0.00103232210116356, 0.79125,309.452423095703
0.0806649333333333, 234.271007224474, -0.000719563810691018, 0.79625,307.689727783203
0.0813315816666667, 234.276217427017, -0.000338786936689783, 0.80375,307.678314208984
0.081998225, 234.281618969933, -0.000214323188368334, 0.81,307.678314208984
0.08266498, 234.286815307712, -0.000369647886536575, 0.81625,311.405151367188
0.08333152, 234.291928226307, -0.000526600003022417, 0.82375,307.323638916016
0.08399881, 234.297327401904, -0.00116502643553803, 0.83,308.171569824219
0.0846648916666667, 234.302973736114, -0.00166809066714776, 0.83625,301.327178955078
0.0853320933333333, 234.308004854894, -0.00144094507642969, 0.8425,301.327178955078
0.085998245, 234.313106904611, -0.00137539236908754, 0.85,309.730712890625
0.0866648683333333, 234.318500956964, -0.001287391789258, 0.8575,316.479431152344
0.0873317333333333, 234.323498244595, -0.00100305857104004, 0.8625,309.965576171875
0.0879982533333333, 234.32882561096, -0.00106745333655158, 0.86875,304.015869140625
0.088664835, 234.33463137172, -0.00140447140848822, 0.87625,304.015869140625
0.0893315483333333, 234.340253494497, -0.00132397195187461, 0.88375,307.605895996094
0.0899992133333333, 234.345427893064, -0.00143566834148636, 0.88875,305.284942626953
0.090664945, 234.351088400746, -0.00144960114164868, 0.895,302.430908203125
0.0913319, 234.356191706, -0.00120938220760013, 0.90375,308.9423828125
0.091998335, 234.361387743022, -0.00123411146546621, 0.91,308.9423828125
0.0926649366666667, 234.366763390786, -0.00118186308985515, 0.915,301.021514892578
0.0933324083333333, 234.372101370395, -0.0009291452836076, 0.92125,306.157928466797
0.093998445, 234.377307030707, -0.00101708436651536, 0.92875,302.417266845703
0.0946649283333333, 234.382831422444, -0.000950996186076235, 0.935,365.989715576172
0.0953315166666667, 234.3880361817, -0.000904003546466864, 0.94125,365.989715576172
0.09599822, 234.393359420485, -0.000886140943687876, 0.95,303.135009765625
0.0966650233333333, 234.39905308249, -0.00103995821763956, 0.955,302.817016601563
0.0973319283333333, 234.404702804434, -0.00109524994039618, 0.96125,302.701049804688
0.0979982066666667, 234.410047824118, -0.00131402145172558, 0.9675,305.795257568359
0.098664885, 234.415488217822, -0.0012111791173753, 0.975,305.795257568359
0.09933177, 234.420899158075, -0.00115430947389141, 0.98125,310.404022216797
0.099998335, 234.426269646338, -0.00120284553596678, 0.9875,311.419464111328
0.100664968333333, 234.431262529024, -0.00116866075300474, 0.99375,311.267059326172
0.101332053333333, 234.436428302795, -0.00101696137271429, 1.00125,300.661560058594
0.101998606666667, 234.441813559967, -0.00129322349640057, 1.0075,300.661560058594
0.102664828333333, 234.44674676111, -0.00151286646395704, 1.01375,311.566558837891
0.103332425, 234.45130470155, -0.00135998964281874, 1.02125,306.866180419922
0.103998298333333, 234.456470445258, -0.0012739839627856, 1.0275,302.346771240234
0.104664901666667, 234.461416650704, -0.001125303930829, 1.03375,304.291839599609
0.105331546666667, 234.466450641972, -0.000963759045033982, 1.04,304.291839599609
0.105998193333333, 234.471648421613, -0.00114254256494996, 1.0475,301.973876953125
0.106665051666667, 234.476741749193, -0.00141462739840802, 1.05375,313.247192382813
0.107331808333333, 234.481125990999, -0.00145865618690771, 1.06,303.284210205078
0.107998476666667, 234.485870892619, -0.00141037511204465, 1.06625,311.690856933594
0.108664908333333, 234.490039031485, -0.00115481644848849, 1.07375,311.690856933594
0.10933168, 234.494491408155, -0.000975656447462271, 1.08,307.891448974609
0.109998321666667, 234.498826281713, -0.000863867062516268, 1.08625,302.495361328125
0.110665376666667, 234.503523646435, -0.000797880876915312, 1.095,301.097625732422
0.111331505, 234.507898702328, -0.000828857320983663, 1.10125,355.607666015625
0.111998308333333, 234.512566099459, -0.00117708133007117, 1.10625,355.607666015625
0.112664905, 234.516814368684, -0.00130498140577434, 1.1125,275.600646972656
0.113331501666667, 234.521366256551, -0.00136776675214614, 1.12,281.119476318359
0.113998741666667, 234.525050479558, -0.00133239252896229, 1.1275,279.5087890625
0.114664865, 234.529300419412, -0.00121498592614839, 1.1325,282.700439453125
0.115331585, 234.533450242527, -0.00117278254596628, 1.14,282.700439453125
0.115998461666667, 234.537740499684, -0.00108209110131095, 1.14625,278.759063720703
0.116665205, 234.541926849004, -0.000845234998305868, 1.15375,279.724548339844
0.117332183333333, 234.545915511458, -0.000839775272564084, 1.15875,281.988250732422
0.117998408333333, 234.550099693354, -0.000946233925266982, 1.16625,275.317352294922
0.118664991666667, 234.554216376466, -0.000855653475060004, 1.1725,275.317352294922
0.119331935, 234.558233003435, -0.000690319779584733, 1.18,275.286682128906
0.119998208333333, 234.562422531847, -0.000608351896767794, 1.18625,278.766143798828
0.120664913333333, 234.567183828558, -0.000610249301435473, 1.1925,276.350280761719
0.121331736666667, 234.571583208764, -0.000925800451635728, 1.2,281.025573730469
0.121998331666667, 234.575649752727, -0.000651216743696761, 1.20625,281.025573730469
0.122664953333333, 234.579736092875, -0.000637475933900565, 1.2125,280.841552734375
0.123332148333333, 234.583660649114, -0.000929208280496299, 1.21875,274.019165039063
0.123998418333333, 234.587626619973, -0.000987151870044216, 1.22625,280.235382080078
0.12466488, 234.591179595648, -0.000709754303457146, 1.2325,282.531494140625
0.125331638333333, 234.59534199554, -0.0011416066119523, 1.23875,282.531494140625
0.125999833333333, 234.598950906896, -0.0011409766435754, 1.245,284.018341064453
0.126664971666667, 234.602822561145, -0.00109712934597102, 1.25125,285.266143798828
0.127331558333333, 234.606536566348, -0.00121228156198173, 1.26,278.823638916016
0.127998673333333, 234.610638676782, -0.00119286053749271, 1.265,331.554718017578
0.128665073333333, 234.614232845301, -0.00106992971214518, 1.27125,331.554718017578
0.129331706666667, 234.618499199448, -0.00136843871836381, 1.27875,283.364593505859
0.13000036, 234.622032742297, -0.00122010066925618, 1.28625,279.285522460938
0.130666361666667, 234.625965565351, -0.00114835177314147, 1.29125,280.538055419922
0.131333021666667, 234.62930833884, -0.0012126955412233, 1.2975,275.735473632813
0.131998158333333, 234.632724218433, -0.000934862996495523, 1.305,275.735473632813
0.132664793333333, 234.636151148988, -0.000838992311961821, 1.31125,273.417083740234
0.133331505, 234.640415847358, -0.00111512394218251, 1.31875,275.6318359375
0.133998323333333, 234.643786505401, -0.00126838774388061, 1.325,284.040832519531
0.134664866666667, 234.647070514338, -0.00125075762942663, 1.33125,276.407348632813
0.135331508333333, 234.650347644857, -0.00144760474197038, 1.3375,276.407348632813
0.13599831, 234.653274315204, -0.00149590081609873, 1.345,278.789520263672
0.13666487, 234.655646025597, -0.00146157804009159, 1.3525,275.550933837891
0.137331548333333, 234.659161234039, -0.00148684277105465, 1.35875,277.533996582031
0.137998303333333, 234.662231314324, -0.00138868020165019, 1.365,277.533996582031
0.138664865, 234.665810983711, -0.00123286352815016, 1.37,282.278564453125
0.139332623333333, 234.668899338198, -0.000998353307358106, 1.37875,278.357330322266
0.139998328333333, 234.672413781002, -0.000829809773107257, 1.385,279.874053955078
0.140664923333333, 234.67543564767, -0.000426607525548431, 1.39125,279.537475585938
0.141331916666667, 234.679189763069, -0.000451552772592339, 1.3975,282.956817626953
0.141998306666667, 234.682152338198, -0.000656431981718306, 1.405,282.956817626953
0.142664918333333, 234.685808772726, -0.000727549409574225, 1.41125,288.041229248047
0.14333222, 234.688558363979, -0.000765245516116892, 1.4175,280.286071777344
0.143998721666667, 234.692297533466, -0.00108820029444687, 1.425,331.172821044922
0.14466482, 234.695215924943, -0.00119349800544911, 1.43,276.629730224609
0.145331556666667, 234.698428698336, -0.00110022819029825, 1.4375,276.629730224609
0.145998608333333, 234.701358345884, -0.00118827526778429, 1.44375,278.420257568359
0.146664836666667, 234.704932863501, -0.00133563236618342, 1.45,275.984130859375
0.147331531666667, 234.707150719741, -0.00119440995963507, 1.4575,282.531127929688
0.14799814, 234.710328435586, -0.000987900332385203, 1.46375,276.867065429688
0.148664991666667, 234.71321567464, -0.000825740477521087, 1.47,276.867065429688
0.14933192, 234.716802752212, -0.00078930280774404, 1.4775,268.086547851563
0.149998208333333, 234.719825269725, -0.000428185446318215, 1.48375,278.413604736328
0.150664783333333, 234.723772218882, -0.000499029887847725, 1.49,269.674835205078
0.151331518333333, 234.726905000949, -0.000556892481477866, 1.49625,277.582611083984
0.151998825, 234.730378834545, -0.000688785356665151, 1.50375,277.582611083984
0.152664896666667, 234.733332575897, -0.000766643445937032, 1.51,284.999633789063
0.153331525, 234.736560526351, -0.000784821032904466, 1.5175,276.899505615234
0.15399829, 234.738975098281, -0.000923054089585773, 1.52375,268.37255859375
0.154664855, 234.742258204586, -0.000982932581953958, 1.52875,274.351623535156
0.155331631666667, 234.744912988974, -0.00109363602141946, 1.53625,274.351623535156
0.155998191666667, 234.747866007059, -0.000697973895089804, 1.54375,279.532928466797
0.156664911666667, 234.75052705984, -0.000821650182993272, 1.55,280.431640625
0.15733158, 234.753645124309, -0.000723715602183129, 1.555,276.624786376953
0.157998575, 234.756277980948, -0.000659800812565646, 1.5625,271.359375
0.158664975, 234.759806592405, -0.000561713239402609, 1.56875,271.359375
0.159331753333333, 234.762040550631, -0.000653882109850194, 1.575,274.771667480469
0.159998683333333, 234.764526098813, -0.000590625787173266, 1.5825,269.943176269531
0.160664871666667, 234.766941758527, -0.000455608568901388, 1.58875,330.741119384766
