Time (min), Depth (µm), Load (N), Position (µm), Acoustic (aJ)
7.975E-06, 233.717263758821, -5.59174912134093E-06, 0,272.154571533203
0.000667001666666667, 233.717089784391, -0.000147307630904635, 0,272.727844238281
0.00133351833333333, 233.716698489163, -0.000589279931070148, 0.00625,268.553802490234
0.001999765, 233.715473132316, -0.00101583000590711, 0.01375,268.553802490234
0.00266652666666667, 233.713950813624, -0.00121138568334837, 0.02375,284.878265380859
0.003499765, 233.712627383394, -0.00150416647725076, 0.03125,284.078186035156
0.00416646666666667, 233.711958075097, -0.00133954374607016, 0.0375,294.405700683594
0.00483332333333333, 233.712096783091, -0.00123114419087063, 0.045,292.485473632813
0.00549974666666667, 233.71343772259, -0.00112535150475156, 0.0525,292.810607910156
0.006166425, 233.715610356438, -0.00118896480950022, 0.05875,292.810607910156
0.00683335833333333, 233.718070810266, -0.00121099270304844, 0.065,291.931427001953
0.00749970166666667, 233.721097983636, -0.00130621841993997, 0.0725,299.396667480469
0.00816655833333333, 233.723918203382, -0.000935417544887637, 0.07875,299.268249511719
0.00883337833333333, 233.727492710765, -0.000449146469766086, 0.085,293.2509765625
0.00949977833333333, 233.731369314583, -0.00018079494878536, 0.09125,293.2509765625
0.0101665033333333, 233.735113252973, -3.97135351946761E-05, 0.09875,301.605804443359
0.0108330733333333, 233.73898478684, 0.00011634162630673, 0.105,296.389862060547
0.0114997383333333, 233.743278800059, 0.000154199724748712, 0.11,297.686737060547
0.0121664233333333, 233.74729562341, -1.85150999689825E-05, 0.11875,298.500427246094
0.0128334383333333, 233.751439104104, -0.00021574469332058, 0.125,298.500427246094
0.0134999683333333, 233.755640990397, -8.75851306531348E-05, 0.13125,297.045135498047
0.0141665916666667, 233.759844543401, -0.000182503363020736, 0.1375,295.372253417969
0.0148333666666667, 233.76457723382, -0.000429528955137729, 0.1425,304.021911621094
0.0154998, 233.770314237428, -0.00041698508520662, 0.14875,361.970825195313
0.016166825, 233.77601465063, -0.000219762991434531, 0.1575,361.970825195313
0.0168333316666667, 233.78149055744, -0.000702453746367882, 0.165,307.009246826172
0.0174997533333333, 233.787709245848, -0.000843661153672202, 0.17125,307.82421875
0.018166645, 233.792921703283, -0.000951703726821243, 0.1775,308.017120361328
0.0188332933333333, 233.797134024819, -0.00129750535755115, 0.18375,302.275299072266
0.0194998, 233.801841386233, -0.00162527039427129, 0.19,302.275299072266
0.0201664266666667, 233.806250117375, -0.00117863482828588, 0.1975,313.487915039063
0.0208335866666667, 233.810576627378, -0.00121622893996913, 0.20375,309.984405517578
0.0214998383333333, 233.815219287345, -0.00100573851271539, 0.21125,306.924835205078
0.0221665383333333, 233.820016889295, -0.0010265124692712, 0.2175,308.818603515625
0.0228332, 233.824926788878, -0.00106272965011846, 0.22375,308.818603515625
0.023499795, 233.830296093569, -0.00122206664680931, 0.23,318.227264404297
0.02416643, 233.835426711652, -0.00103807238862374, 0.2375,311.548431396484
0.0248330983333333, 233.840979911533, -0.00124921378319601, 0.24375,315.803436279297
0.0254997116666667, 233.845889995609, -0.00124905329126361, 0.25,315.793212890625
0.0261665066666667, 233.850952994808, -0.0013151939690781, 0.25625,315.793212890625
0.0268333016666667, 233.855994620322, -0.00138305656042635, 0.26375,311.752075195313
0.0274999466666667, 233.860885636191, -0.00127670290249544, 0.27,313.202484130859
0.0281665116666667, 233.865932118139, -0.00121522549045833, 0.27625,310.059997558594
0.0288333183333333, 233.871066796418, -0.00102247017234555, 0.28375,313.819641113281
0.02949981, 233.876335219313, -0.00100367761628776, 0.29,313.819641113281
0.0301664533333333, 233.881170068918, -0.00103794339516757, 0.29625,307.942016601563
0.030833155, 233.88623002298, -0.00139956473132041, 0.30375,310.653381347656
0.03149989, 233.890877885005, -0.00138817430342544, 0.31,306.253387451172
0.0321667066666667, 233.896023683956, -0.00167614183911012, 0.31625,379.059600830078
0.03283363, 233.900006980411, -0.00149032817230459, 0.3225,379.059600830078
0.0334998083333333, 233.905396307133, -0.0013545549920272, 0.33,308.434936523438
0.0341664383333333, 233.910444277973, -0.00135291407441122, 0.33625,309.466766357422
0.034833195, 233.916003972304, -0.00129042871300509, 0.3425,309.917083740234
0.0354997683333333, 233.920658812939, -0.000933551638568664, 0.35,314.326965332031
0.03616647, 233.926305293819, -0.00104929032516983, 0.35625,314.326965332031
0.0368334783333333, 233.930998759371, -0.00114307461447603, 0.3625,316.063537597656
0.0374997933333333, 233.935993159549, -0.000768361935899869, 0.36875,320.181915283203
0.038166445, 233.940508520075, -0.000669105921435407, 0.37625,313.293914794922
0.0388335166666667, 233.946061627972, -0.000739104405473954, 0.38375,305.989959716797
0.039499675, 233.95101283707, -0.000529057955886092, 0.38875,305.989959716797
0.0401664466666667, 233.956373335032, -0.000353679264981876, 0.39625,312.753692626953
0.0408330566666667, 233.961292729849, -0.000667856484173698, 0.4025,314.253204345703
0.0414997783333333, 233.966710008345, -0.00082725647766823, 0.40875,309.447082519531
0.0421666133333333, 233.971701985294, -0.00078305519788342, 0.41625,308.227081298828
0.04283309, 233.977329966204, -0.00104975680172301, 0.42125,308.227081298828
0.0434997466666667, 233.982231304132, -0.00109905782539282, 0.42875,316.142608642578
0.044166395, 233.987328364604, -0.00108316762356543, 0.435,316.953887939453
0.0448344933333333, 233.99205241685, -0.00108483553979941, 0.44125,310.499938964844
0.045499725, 233.997003843196, -0.00133337005616364, 0.45,315.138458251953
0.0461671316666667, 234.001088365537, -0.00108539951146006, 0.455,315.138458251953
0.0468334566666667, 234.005920607402, -0.000974115601080459, 0.46125,312.678863525391
0.04749977, 234.010924940376, -0.00116211915787607, 0.47,319.6884765625
0.04816666, 234.016122184141, -0.00140961872621076, 0.475,379.066223144531
0.0488334033333333, 234.021311550072, -0.00133160164493088, 0.48125,313.147613525391
0.0494998083333333, 234.026755551575, -0.00144226158660994, 0.48875,313.147613525391
0.050166555, 234.032251635459, -0.00162136159059627, 0.495,308.822570800781
0.05083322, 234.037480683857, -0.00133713786683849, 0.50125,316.062469482422
0.0514998433333333, 234.042190962994, -0.00106339561665978, 0.5075,314.577362060547
0.0521664816666667, 234.047361436405, -0.0010012537379845, 0.515,310.899139404297
0.0528333416666667, 234.052388104575, -0.000859767344698671, 0.5225,310.899139404297
0.0534997366666667, 234.057731341176, -0.00100254667303265, 0.52875,315.586730957031
0.0541663933333333, 234.062940433451, -0.00134686037849948, 0.53375,312.118011474609
0.0548332116666667, 234.068499955303, -0.00120211614883591, 0.5425,307.466247558594
0.0554997883333333, 234.073648525424, -0.00126776035160916, 0.54875,306.968139648438
0.056166595, 234.079713948881, -0.00157027865645908, 0.55375,306.968139648438
0.0568386716666667, 234.084561910661, -0.00144364301726165, 0.56125,304.029602050781
0.0575056933333333, 234.090039071749, -0.0012380918418755, 0.56875,307.098968505859
0.0581723516666667, 234.095668409472, -0.00162574887030471, 0.575,309.172027587891
0.058839605, 234.100982612811, -0.00170070910514065, 0.58125,316.486022949219
0.0595056033333333, 234.105754560647, -0.00177845020026657, 0.5875,316.486022949219
0.0601719233333333, 234.11142745256, -0.00195405537981944, 0.59375,318.9013671875
0.0608392566666667, 234.117103966901, -0.0020985221234259, 0.60125,313.176971435547
0.061506745, 234.122741154917, -0.00211731317955928, 0.6075,308.049987792969
0.0621721833333333, 234.128402052998, -0.00228932453960432, 0.61375,314.938110351563
0.0628386233333333, 234.134266519634, -0.00222188492702281, 0.62125,314.938110351563
0.06350509, 234.139589036887, -0.00220090248093244, 0.6275,310.961151123047
0.064172515, 234.144813005708, -0.00209096850279208, 0.635,314.260375976563
0.0648385166666667, 234.149821393213, -0.00192512183310713, 0.64125,375.201599121094
0.065505665, 234.155138577739, -0.00188753072127269, 0.6475,322.368225097656
0.0661722683333333, 234.160415541219, -0.00156902921928239, 0.6525,322.368225097656
0.0668385533333333, 234.165691056624, -0.00155093712800594, 0.66,315.00146484375
0.067505085, 234.171120487592, -0.00163111110091777, 0.6675,313.134002685547
0.0681726166666667, 234.176441861056, -0.00167097609853012, 0.67375,316.963500976563
0.0688390183333333, 234.181994527015, -0.00156730130598726, 0.68,315.152496337891
0.0695065433333333, 234.187308672485, -0.00169136307450487, 0.6875,315.152496337891
0.0701719783333333, 234.193326242327, -0.00156551039595221, 0.69375,321.188903808594
0.07083863, 234.198683975206, -0.00129575794534505, 0.69875,319.044342041016
0.0715053633333333, 234.204454886677, -0.00132101967648055, 0.7075,312.093078613281
0.0721720333333333, 234.2098383183, -0.00116692941630873, 0.71375,316.706481933594
0.0728385933333333, 234.215826652147, -0.00133777683482556, 0.72,316.706481933594
0.07350523, 234.220956244227, -0.00138144114161024, 0.72625,317.054931640625
0.074172265, 234.226289323473, -0.00141294855902362, 0.7325,313.523468017578
0.0748385416666667, 234.231410714848, -0.00135362053903895, 0.74,312.180572509766
0.0755058116666667, 234.23667408064, -0.0012618581481259, 0.74625,307.470642089844
0.07617247, 234.241534804983, -0.00101531403178486, 0.75125,307.470642089844
0.0768388366666667, 234.246738426401, -0.00119732688945116, 0.75875,319.286071777344
0.0775066883333333, 234.251867220839, -0.00132319456726911, 0.76625,310.615661621094
0.0781718283333333, 234.257979911223, -0.00142579691362984, 0.7725,322.380706787109
0.07883986, 234.263228997391, -0.00170446791624782, 0.78,319.466033935547
0.0795050666666667, 234.269094939728, -0.00180571283081107, 0.785,319.466033935547
0.0801721916666667, 234.274498823597, -0.00137973272737487, 0.79125,316.052978515625
0.08084007, 234.280028307543, -0.00141525844296595, 0.79875,318.506225585938
0.0815055733333333, 234.284895350178, -0.00128905928179112, 0.80625,383.113555908203
0.0821717816666667, 234.290382118258, -0.0012413826765476, 0.81125,311.910675048828
0.082838635, 234.294718150432, -0.00118609395363978, 0.81875,311.910675048828
0.0835055783333333, 234.29988275949, -0.00150061915535692, 0.82625,317.303100585938
0.08417225, 234.304676038498, -0.00119716189768178, 0.83125,315.181304931641
0.084838925, 234.309731837446, -0.00131098068072797, 0.8375,317.384704589844
0.0855066133333333, 234.314238406034, -0.00115549849045488, 0.84375,315.664794921875
0.086172635, 234.319617335087, -0.00125170965784937, 0.8525,315.664794921875
0.0868387166666667, 234.324505117467, -0.00125418903331304, 0.85875,316.436981201172
0.0875050633333333, 234.329520562823, -0.00182783221981165, 0.86375,318.455688476563
0.0881724683333333, 234.333710560421, -0.00156043915067338, 0.87125,310.90673828125
0.0888402233333333, 234.338299193662, -0.00159286752179788, 0.87875,315.036529541016
0.0895056333333333, 234.342307395959, -0.00143853877356093, 0.88375,315.036529541016
0.0901719233333333, 234.346654734357, -0.00129931876643099, 0.89,318.219207763672
0.0908394983333333, 234.350863929458, -0.000996399981744144, 0.8975,312.889495849609
0.0915055733333333, 234.355845613162, -0.00114129270390238, 0.905,315.123443603516
0.09217325, 234.360608050207, -0.00138739884223265, 0.91125,315.699035644531
0.09283862, 234.365210651889, -0.00138375102546756, 0.91625,315.699035644531
0.0935054316666667, 234.369568087844, -0.00152982418836496, 0.92375,315.990875244141
0.0941719683333333, 234.374100300653, -0.00134834680377439, 0.93,316.181243896484
0.0948385766666667, 234.377775210365, -0.00162214305127413, 0.93625,313.088623046875
0.0955055416666667, 234.381856083053, -0.00118251063356027, 0.945,315.791015625
0.096172015, 234.386070977028, -0.00133051719935353, 0.95,315.791015625
0.0968387666666667, 234.390517914732, -0.00118247163554704, 0.95625,318.680145263672
0.0975051816666667, 234.39453804771, -0.00152341351038148, 0.96375,319.869934082031
0.0981724183333333, 234.399020554129, -0.00112025026089964, 0.97,378.625701904297
0.09883926, 234.403296013948, -0.00117574897326642, 0.97625,316.608032226563
0.0995059183333333, 234.407651673094, -0.000998231389780588, 0.98375,316.608032226563
0.100171956666667, 234.411785710047, -0.000961057256994016, 0.99,317.938507080078
0.100838631666667, 234.416557425519, -0.000736301046275421, 0.99625,315.079956054688
0.101505365, 234.420743476935, -0.000623190227717608, 1.0025,323.469848632813
0.102171955, 234.425158739085, -0.000495429644983937, 1.00875,324.528533935547
0.10283891, 234.429345695161, -0.000549066950868716, 1.01625,324.528533935547
0.103505375, 234.433484263998, -0.000254369253238897, 1.0225,323.868988037109
0.104172108333333, 234.437436772877, -0.000346190141161164, 1.02875,311.322204589844
0.104839165, 234.441393325876, -0.000505213653566716, 1.03625,323.740539550781
0.105505396666667, 234.445309178304, -0.000447496552624945, 1.0425,322.596038818359
0.106172033333333, 234.449290393389, -0.000487765029965536, 1.04875,322.596038818359
0.106838975, 234.453126944489, -0.000581666313396441, 1.055,312.200042724609
0.107505658333333, 234.457283422719, -0.000259355002762982, 1.0625,312.593719482422
0.108172293333333, 234.461623393338, -0.000524840167698984, 1.06875,312.110626220703
0.108839126666667, 234.465796016425, -0.00080496909711323, 1.075,317.618743896484
0.109505218333333, 234.469947263225, -0.000683032721857606, 1.08125,317.618743896484
0.110171985, 234.473674318116, -0.000733649179441617, 1.08875,317.886779785156
0.110839245, 234.477559394437, -0.000848153428003852, 1.09625,321.160278320313
0.1115052, 234.481912337551, -0.000558216491237629, 1.1025,296.047027587891
0.112172023333333, 234.48631155262, -0.000443628246908812, 1.10875,291.545013427734
0.112838476666667, 234.490555504637, -0.000339102997101779, 1.115,291.545013427734
0.11350545, 234.49485585267, -0.000425959134399099, 1.12125,284.117889404297
0.114171933333333, 234.498964484454, -0.000643601202440304, 1.12875,286.995178222656
0.114838863333333, 234.50222165159, -0.00033366427030164, 1.13625,353.604705810547
0.115505026666667, 234.505570423738, -0.000218575051094609, 1.14125,293.355651855469
0.116172, 234.50908752312, -0.000264759231301846, 1.1475,293.355651855469
0.116839176666667, 234.512996892617, -0.000312555830561396, 1.155,295.682312011719
0.117505411666667, 234.516819618397, -7.26368814572673E-05, 1.1625,293.749664306641
0.118171971666667, 234.520832077228, -0.000332977304797423, 1.16875,294.713317871094
0.118839188333333, 234.524548665654, -0.000335635171286332, 1.17375,285.596893310547
0.119505726666667, 234.528301838519, -0.00052947493493396, 1.18125,285.596893310547
0.120172025, 234.532454895532, -0.000574072194824993, 1.18875,292.732208251953
0.120838765, 234.535669832332, -0.000849006885159339, 1.195,291.680419921875
0.121505063333333, 234.539439394285, -0.000986119498120125, 1.2,289.567779541016
0.122171911666667, 234.542849781577, -0.00122660391883055, 1.2075,292.927978515625
0.12283913, 234.546166691291, -0.000876927982686901, 1.21375,292.927978515625
0.123505136666667, 234.548928750582, -0.00083966385441488, 1.22125,289.782562255859
0.124173691666667, 234.552506437807, -0.000731597282475387, 1.22875,295.949005126953
0.12483876, 234.555428498127, -0.000422987783624892, 1.23375,297.189056396484
0.125506623333333, 234.558904292615, -0.000650802340754337, 1.24,299.057678222656
0.12617171, 234.562204771248, -0.000963944611959132, 1.24625,299.057678222656
0.126838986666667, 234.565831226854, -0.000970434785957242, 1.25375,296.514007568359
0.127505183333333, 234.568850259548, -0.000919047367102432, 1.26125,286.975952148438
0.128171906666667, 234.572577383785, -0.00111238165614115, 1.26625,290.21533203125
0.12883892, 234.575518498167, -0.000764508629449022, 1.27375,294.147491455078
0.129506386666667, 234.57920838023, -0.000916842477889577, 1.28,294.147491455078
0.130172041666667, 234.582157324931, -0.000619972889341267, 1.28625,288.991546630859
0.130839816666667, 234.585564414156, -0.000610025388956025, 1.29375,349.752105712891
0.131505243333333, 234.588427312955, -0.000608447468207495, 1.30125,295.641876220703
0.132171955, 234.591775515695, -0.000454646693466759, 1.30625,295.398345947266
0.132838608333333, 234.594837278025, -0.000410247423596956, 1.3125,295.398345947266
0.133505331666667, 234.598319837709, -0.000568471476146793, 1.32125,293.325378417969
0.134173198333333, 234.601754940074, -0.000645762593930481, 1.3275,298.389465332031
0.134839125, 234.605380168616, -0.000440962880797887, 1.33375,294.600128173828
0.135505096666667, 234.608988759981, -0.000862689197946316, 1.33875,292.678436279297
0.13617245, 234.612205978678, -0.000729213902279799, 1.3475,292.678436279297
0.136838975, 234.615522874883, -0.000731405292194278, 1.35375,298.726257324219
0.137505188333333, 234.618882291573, -0.000621619806591093, 1.36,295.351440429688
0.138171908333333, 234.622076306042, -0.000806707509815417, 1.36625,294.356719970703
0.138838546666667, 234.625557759243, -0.000572104293689107, 1.3725,288.981414794922
0.139505056666667, 234.628808677703, -0.000656217068806532, 1.38,288.981414794922
0.140172475, 234.632406813288, -0.000945870519839285, 1.38625,296.45166015625
0.140839408333333, 234.635884490283, -0.000876041527279559, 1.39375,295.817199707031
0.141505866666667, 234.6390089985, -0.000906699987331912, 1.4,296.195709228516
0.142172325, 234.642733527221, -0.000541625824607654, 1.40625,293.471832275391
0.142839158333333, 234.646558037151, -0.000711678283041975, 1.4125,293.471832275391
0.14350509, 234.650430712517, -0.000403337270702172, 1.42,296.575897216797
0.144172048333333, 234.653947848382, -0.000422918787166105, 1.42625,300.333831787109
0.144838638333333, 234.658287091426, -0.000426365613997398, 1.4325,289.45849609375
0.145505095, 234.661415422459, -0.00041381124461672, 1.44,294.497161865234
0.146171945, 234.66499031806, -0.0002364601527609, 1.44625,294.497161865234
0.146838606666667, 234.668154572368, -0.000107004655196499, 1.4525,286.784729003906
0.147505175, 234.671790268278, -0.000252693837382901, 1.45875,350.078247070313
0.148172633333333, 234.674915769919, -0.000428386012572414, 1.46625,290.729583740234
0.14883855, 234.679119088518, -0.00110707342282785, 1.4725,293.457305908203
0.149505693333333, 234.682709489257, -0.00138158813426552, 1.47875,293.457305908203
0.150172388333333, 234.68659438642, -0.00178329495693925, 1.48625,294.202789306641
0.150838758333333, 234.690310110983, -0.0018998256036891, 1.4925,289.439666748047
0.151505103333333, 234.694162432628, -0.00185115004860172, 1.4975,289.612701416016
0.15217259, 234.697423061457, -0.00165644632837029, 1.505,290.011077880859
0.152839208333333, 234.701217508039, -0.00180083057607081, 1.51125,290.011077880859
0.15350507, 234.70473022189, -0.00174744375762513, 1.51875,288.127593994141
0.154171778333333, 234.708491844656, -0.00181378542537342, 1.525,293.282562255859
0.154839196666667, 234.711977124258, -0.00204449933684196, 1.53125,290.176940917969
0.155505186666667, 234.715574766225, -0.00211392934946791, 1.53875,286.155944824219
0.156171898333333, 234.71931608718, -0.00185210250074656, 1.545,286.155944824219
0.156838773333333, 234.722715749902, -0.00194231096965903, 1.55,283.211853027344
0.157505278333333, 234.726203216054, -0.00207815614630777, 1.5575,288.599639892578
0.15817193, 234.729162378491, -0.00185732673837829, 1.565,283.05712890625
0.15883869, 234.732446597621, -0.00182217750383368, 1.57,282.069580078125
0.159505263333333, 234.735076568453, -0.00196404937775491, 1.57625,282.069580078125
0.160171883333333, 234.737797838004, -0.00172141256518574, 1.585,284.027557373047
