Time (min), Depth (µm), Load (N), Position (µm), Acoustic (aJ)
7.72E-06, 229.431609278269, 0.000713996986657126, 0,105.868141174316
0.000665081666666667, 229.431288659174, 0.000900518617887267, 0,105.335342407227
0.00133066333333333, 229.431016434934, 0.000664725961496632, 0.005,108.421173095703
0.00199846333333333, 229.431644708266, 0.00053031021305924, 0.01125,108.421173095703
0.00266348666666667, 229.432280151922, 0.000511946635465802, 0.0225,108.695816040039
0.00333078333333333, 229.433319396213, 0.000528082824959082, 0.0325,104.18920135498
0.00399729833333333, 229.435092960402, 0.000558873278380175, 0.03875,110.165046691895
0.004663535, 229.438330699666, 0.000731831090893706, 0.04375,110.428985595703
0.005330315, 229.440417390126, 0.00104795071254907, 0.05125,110.428985595703
0.00616363166666667, 229.442877966004, 0.000697634308578953, 0.05875,106.486518859863
0.00683062833333333, 229.445270047914, 0.000225657515485925, 0.0675,108.717895507813
0.00749724666666667, 229.447191587697, 6.07123005586226E-05, 0.07375,103.192321777344
0.00816398833333333, 229.448604706839, 0.000471723155899817, 0.08,105.593994140625
0.00883027666666667, 229.450259705505, 0.000543692540944311, 0.08625,105.593994140625
0.00949689666666667, 229.451694604604, 0.000908193732397746, 0.0925,98.4897232055664
0.01016372, 229.452441853809, 0.00138282689207653, 0.09875,107.85782623291
0.010830545, 229.45408095783, 0.00132891959977792, 0.1075,109.281593322754
0.01149751, 229.455561806879, 0.00108905764780111, 0.1125,128.50944519043
0.0121639633333333, 229.4565934328, 0.000978820684888783, 0.12,106.260406494141
0.01283015, 229.457416840067, 0.000884125941299776, 0.125,106.260406494141
0.013497135, 229.45969949075, 0.000777265308793042, 0.13125,109.215606689453
0.0141644166666667, 229.460651495944, 0.000914944893284531, 0.13875,110.267677307129
0.0148304066666667, 229.462588917869, 0.000911901546117714, 0.14625,102.748527526855
0.0154974016666667, 229.465092807995, 0.000910284627334699, 0.1525,102.858932495117
0.016166335, 229.467894979752, 0.000792890023958542, 0.15875,102.858932495117
0.0168304, 229.470462221556, 0.00102599481535095, 0.16625,118.065048217773
0.01749693, 229.473845062298, 0.000787887775223513, 0.17125,106.573394775391
0.0181635216666667, 229.476743175321, 0.000730166174508532, 0.1775,109.740753173828
0.018830495, 229.479966935632, 0.000669935199841819, 0.18375,107.91185760498
0.0194976483333333, 229.483270669137, 0.000533965529467602, 0.1925,107.91185760498
0.0201641133333333, 229.487024475372, 0.000142717681443134, 0.19875,107.221290588379
0.02083164, 229.489606054296, 0.000528241816988336, 0.20375,106.38111114502
0.0214971083333333, 229.493183186815, 0.000770526147301484, 0.2125,107.741523742676
0.0221640266666667, 229.496595113524, 0.00100521035936682, 0.2175,111.517486572266
0.0228307333333333, 229.499580180128, 0.00124476782662601, 0.22375,111.517486572266
0.0234985983333333, 229.5024788086, 0.00109282845840978, 0.2325,110.502769470215
0.0241648983333333, 229.506207736644, 0.00100992312264952, 0.23875,106.137977600098
0.024830545, 229.509129706394, 0.000725991884214134, 0.245,106.722343444824
0.0254983883333333, 229.512453000735, 0.000199953306587697, 0.25,104.671844482422
0.026163475, 229.515353585421, 0.000204018102421911, 0.2575,104.671844482422
0.0268306533333333, 229.518348716695, 0.00060119965238461, 0.26375,102.453475952148
0.0274970416666667, 229.521245915486, 0.000248199883210733, 0.27,109.887886047363
0.0281641016666667, 229.524276984098, 0.000201907708425208, 0.2775,128.019546508789
0.028832395, 229.526926800828, 0.000636678870319196, 0.285,112.749755859375
0.029497535, 229.530223005244, 0.000298792342004291, 0.29,112.749755859375
0.030163465, 229.532883503759, -0.000103446953938865, 0.29625,113.239227294922
0.03083164, 229.53595074125, -4.17100549374856E-05, 0.30375,107.005813598633
0.0314969866666667, 229.538759823532, 4.85764100226913E-05, 0.31,108.248901367188
0.0321640483333333, 229.5415586545, -0.000201654521139179, 0.31625,108.61222076416
0.0328314133333333, 229.544457874044, 0.000238013894760356, 0.32375,108.61222076416
0.033498065, 229.547722257316, 0.000513428560967507, 0.33,110.594123840332
0.0341640966666667, 229.551066236035, 0.00078731030417948, 0.33625,109.437675476074
0.0348302266666667, 229.55433508816, 0.000437190390348702, 0.3425,102.097816467285
0.0354988933333333, 229.558001826365, -1.34259756618266E-05, 0.34875,105.505973815918
0.0361636233333333, 229.561182646271, -0.000310183069837384, 0.35625,105.505973815918
0.03683043, 229.563556322799, -0.000464294328972103, 0.3625,107.656723022461
0.0374977983333333, 229.566491795719, -0.000527138172395627, 0.36875,102.230293273926
0.0381635916666667, 229.569372234603, -0.000208647169854888, 0.37625,108.685729980469
0.0388316216666667, 229.571982081315, 0.000429680267650107, 0.3825,110.090438842773
0.0394973383333333, 229.575199588112, 0.00019701195432281, 0.38875,110.090438842773
0.0401636816666667, 229.578835434982, 0.000249653310191285, 0.39625,104.610221862793
0.0408307466666667, 229.581978568889, 4.60055392341878E-05, 0.4025,113.858177185059
0.04149733, 229.584898784419, 0.000184250595331975, 0.40875,106.772735595703
0.04216351, 229.587938258595, -4.89246925286393E-05, 0.415,101.579643249512
0.0428315466666667, 229.590901790244, 0.00046115918649982, 0.4225,101.579643249512
0.0434970166666667, 229.593921158914, 0.000407289392311282, 0.42875,110.174377441406
0.0441635183333333, 229.597618137096, 0.000474307526050458, 0.435,107.175415039063
0.044831605, 229.600846370086, 0.000129108865036934, 0.44125,134.337493896484
0.0454970166666667, 229.603993542863, -0.000173230948723984, 0.44875,108.57592010498
0.0461641433333333, 229.606940342753, -0.000165977313055837, 0.455,108.57592010498
0.0468306883333333, 229.611199371714, 5.89018915063331E-05, 0.46,111.724517822266
0.0474973033333333, 229.615026735436, -0.000127327254401411, 0.4675,109.882553100586
0.0481640766666667, 229.619480062687, 0.000180778269764572, 0.475,111.719818115234
0.0488302, 229.624196570502, 0.000488061835230046, 0.48125,106.321876525879
0.0494987833333333, 229.628961905259, 0.000250872748964928, 0.4875,106.321876525879
0.0501635533333333, 229.632825734253, -0.000261053037528289, 0.495,105.350868225098
0.050831105, 229.63557517278, -8.98726357514304E-05, 0.50125,106.159622192383
0.0514982816666667, 229.639163241729, -0.000287136727364303, 0.5075,105.505294799805
0.0521636116666667, 229.641785521837, -0.000142319001426227, 0.51375,102.209808349609
0.05283161, 229.645156023714, 6.03448189948081E-05, 0.52125,102.209808349609
0.0534971983333333, 229.647731214573, 0.000501193675633502, 0.5275,104.196075439453
0.0541640566666667, 229.651580493397, 0.000533508052503354, 0.53375,113.836563110352
0.054830765, 229.654514509138, 0.000618001808482969, 0.54125,107.592430114746
0.0554971716666667, 229.658445212011, 0.00041175616799184, 0.5475,106.627639770508
0.0561650716666667, 229.661389321362, 0.000178297394376502, 0.555,106.627639770508
0.0568322266666667, 229.665147461726, -0.000146937269429005, 0.5625,108.718894958496
0.0574973616666667, 229.667869350092, 1.21192413559264E-05, 0.5675,106.071151733398
0.0581640333333333, 229.671468613481, 3.05863137544433E-05, 0.57375,101.41716003418
0.0588303533333333, 229.673747348997, 0.000216302485431257, 0.58,110.376800537109
0.0594969633333333, 229.676735724988, 0.000140110812447699, 0.5875,110.376800537109
0.060165515, 229.680196863325, 0.000327131918567887, 0.59375,111.418174743652
0.0608306866666667, 229.683984356387, -0.000219394130010829, 0.6,108.016830444336
0.0614975416666667, 229.687426568106, -0.000245470320246081, 0.60625,106.724090576172
0.0621639433333333, 229.691297656152, -0.00036243144538468, 0.615,102.280174255371
0.0628303333333333, 229.694434683552, -0.000182007007895232, 0.62,102.280174255371
0.063496945, 229.696948092596, -0.000221234537508675, 0.62625,112.401588439941
0.064164255, 229.69974256334, 0.000202462680603192, 0.63375,103.026222229004
0.0648307716666667, 229.702687107233, 0.000143745129914415, 0.64,107.439514160156
0.06549729, 229.705629596336, 0.000360254754861128, 0.64625,106.792518615723
0.0661641616666667, 229.708634964461, 0.00042523599089936, 0.6525,106.792518615723
0.0668316683333333, 229.712534294689, 0.00065901874822831, 0.66,110.241340637207
0.0674989633333333, 229.715811878045, 0.000416890410116863, 0.6675,107.35188293457
0.0681640033333333, 229.718933385284, 0.000612707074468051, 0.6725,105.538208007813
0.0688310433333333, 229.722441257921, 0.000546581395897592, 0.67875,108.205940246582
0.0694984183333333, 229.72628152129, 0.000453818555280046, 0.68625,108.205940246582
0.0701640533333333, 229.729679130822, 0.000237025444599864, 0.6925,108.828033447266
0.0708321333333333, 229.732820553654, 0.000537509851576394, 0.7,102.810287475586
0.0714973666666667, 229.736677312088, 0.000532930581586846, 0.7075,106.850959777832
0.0721635883333333, 229.739638398708, 0.00058069118261821, 0.7125,107.830444335938
0.0728303133333333, 229.743015768332, 0.000508882289506118, 0.71875,107.830444335938
0.0734969416666667, 229.746115289165, 0.000301313715436266, 0.7275,106.555488586426
0.0741640733333333, 229.75002359593, 0.000242572165935783, 0.73375,115.926742553711
0.0748305133333333, 229.752924609014, 6.90053840082597E-05, 0.73875,107.483367919922
0.0754969583333333, 229.757108390273, -0.000122953474097618, 0.745,106.513511657715
0.0761640033333333, 229.760422985757, -0.000156436292290149, 0.7525,106.513511657715
0.0768310583333333, 229.763785513728, 9.71859685426022E-05, 0.76,111.375579833984
0.0774975416666667, 229.767228976543, 0.000126041519143427, 0.7675,111.471282958984
0.0781649066666667, 229.771086040159, -0.000131612539165412, 0.7725,128.569229125977
0.0788303583333333, 229.774033508439, 4.67435021893694E-05, 0.78,103.294403076172
0.07949773, 229.777187093124, 2.43991245282999E-05, 0.78625,103.294403076172
0.080164645, 229.780581892915, -0.000106319309617439, 0.79125,105.045425415039
0.0808308333333333, 229.784038658323, -0.000371612484187316, 0.79875,103.088676452637
0.081497285, 229.787069463169, -0.000345414800054146, 0.805,109.290344238281
0.0821636033333333, 229.790854370216, -0.000560497996638312, 0.8125,110.94441986084
0.08283195, 229.795419080241, -0.000423337386054113, 0.81875,110.94441986084
0.0834970083333333, 229.79905098927, -0.000696808149915831, 0.82625,109.235275268555
0.0841649583333333, 229.803258734475, -0.000584291301527978, 0.8325,105.341156005859
0.0848304783333333, 229.807492393824, -0.000645521226017293, 0.8375,103.600006103516
0.085496735, 229.811545455566, -0.000368086161298888, 0.84375,103.76416015625
0.0861635516666667, 229.815444072546, -0.000261005039883622, 0.8525,103.76416015625
0.0868321766666667, 229.819818309662, -3.4448919541052E-05, 0.8575,103.246154785156
0.0874970416666667, 229.823646738887, 0.000186396987620627, 0.86375,103.977836608887
0.088163925, 229.827433156659, 0.000417218893688702, 0.87125,112.273918151855
0.0888305633333333, 229.831860829719, 2.04724730897641E-06, 0.87875,108.933868408203
0.0894974883333333, 229.836219178709, -0.000261147532680677, 0.885,108.933868408203
0.0901637533333333, 229.840325617398, -4.42674263638515E-05, 0.8925,103.26293182373
0.0908314266666667, 229.844768757099, -0.000173991410481452, 0.8975,101.325668334961
0.0914975166666667, 229.84934100028, 9.02039702869742E-06, 0.90375,102.872856140137
0.092164085, 229.853172069165, 9.35411516688251E-05, 0.91125,102.037185668945
0.0928306716666667, 229.857300093171, 3.55360651778663E-05, 0.9175,102.037185668945
0.093498715, 229.861779063495, -0.000125299356204378, 0.92375,109.177276611328
0.0941640366666667, 229.866046029644, -1.59758474024139E-05, 0.93,132.768524169922
0.0948305416666667, 229.870040818943, -0.00055923356013257, 0.9375,110.949737548828
0.0954969733333333, 229.874763031106, -0.000297555203969659, 0.945,107.629348754883
0.0961639633333333, 229.879414680904, -0.00012797222193732, 0.95125,106.390235900879
0.096831165, 229.884410187765, -0.000421706967951469, 0.9575,106.390235900879
0.097498265, 229.888723663196, -0.000319017625932835, 0.96375,106.792854309082
0.0981635666666667, 229.894277968596, -0.000454922799536457, 0.97125,99.5958938598633
0.0988304033333333, 229.899187571301, -0.00093774554783855, 0.9775,109.60221862793
0.0994988, 229.903837307832, -0.000910140934381329, 0.98375,109.60221862793
0.100164058333333, 229.908580279911, -0.000592840872029318, 0.99,105.3466796875
0.100831971666667, 229.914225049585, -0.000939246972400006, 0.9975,105.696311950684
0.101498588333333, 229.918935415505, -0.000489307072401617, 1.00375,106.174476623535
0.102165051666667, 229.923342686827, -0.000121687537518694, 1.01,97.8198394775391
0.102831781666667, 229.92875677384, -0.000256217280231988, 1.01625,97.8198394775391
0.103496806666667, 229.932946201388, -0.000271128031275266, 1.0225,108.396461486816
0.104163475, 229.936887549209, 6.91043792101618E-05, 1.03,107.131332397461
0.104830666666667, 229.941881280455, 6.11772773574278E-05, 1.0375,113.12336730957
0.105497428333333, 229.947359937195, -6.68802904505959E-05, 1.04375,107.928321838379
0.106164028333333, 229.951783901765, 2.91763847091106E-05, 1.04875,107.928321838379
0.106831616666667, 229.957551860241, -6.17400486704674E-05, 1.05625,102.628845214844
0.10749715, 229.962550619583, -0.000334340856208263, 1.06375,104.861045837402
0.108165385, 229.96764803511, -0.000362354949070081, 1.07,102.21900177002
0.10883064, 229.972633055779, -0.000267690203990393, 1.075,103.960403442383
0.10949697, 229.977752962713, -0.000308654646402874, 1.08125,103.960403442383
0.110165076666667, 229.982877406008, -0.000279742098610963, 1.09,102.860420227051
0.110831866666667, 229.989006356088, -0.000202867959938906, 1.095,130.630249023438
0.111498268333333, 229.994747343818, -3.24030222086722E-05, 1.1025,101.134353637695
0.112164918333333, 230.00025444937, -0.000194181896210599, 1.11,107.189872741699
0.112830311666667, 230.005647880443, -0.000120216111424049, 1.115,109.105949401855
0.113497045, 230.011232320309, -0.000308189669710339, 1.12125,109.105949401855
0.114163586666667, 230.016444229952, -0.000580475493080942, 1.12875,111.074272155762
0.114830296666667, 230.021298525202, -0.000918500014462201, 1.135,103.215522766113
0.115498408333333, 230.026287031462, -0.000372653431765685, 1.14125,113.164985656738
0.11616401, 230.031631122145, -0.000733679297802911, 1.14875,113.164985656738
0.116831725, 230.036659153364, -0.000444298833096567, 1.155,110.736663818359
0.117497123333333, 230.041471766355, -5.27899981621706E-05, 1.16125,104.671897888184
0.118163461666667, 230.046794246201, 3.18252516941082E-05, 1.1675,105.218940734863
0.118830868333333, 230.051654685767, -0.00016207150905959, 1.17375,110.347587585449
0.119497731666667, 230.05612532219, 1.82525856105664E-06, 1.18125,110.347587585449
0.120163623333333, 230.060529311554, 0.000222959151250669, 1.1875,102.524444580078
0.120830358333333, 230.065533635078, 0.000183727121821508, 1.19375,105.905372619629
0.121498338333333, 230.069656744359, 6.62005250553563E-05, 1.20125,111.268630981445
0.122163555, 230.075497949875, -0.000185323341175917, 1.2075,110.073890686035
0.122830965, 230.081199691572, -0.000226334281223645, 1.21375,110.073890686035
0.123497325, 230.086528680056, -0.000501874941101924, 1.22,103.843032836914
0.124164311666667, 230.091590283139, -0.000931045384338967, 1.2275,109.56031036377
0.124830448333333, 230.096968705743, -0.000875057696510456, 1.23375,113.221969604492
0.125497525, 230.101812797577, -0.00101431370186858, 1.24,105.766082763672
0.126163625, 230.106396283878, -0.00120674353634335, 1.24625,105.766082763672
0.126830565, 230.111493957334, -0.00126605205731077, 1.25375,102.332504272461
0.127498283333333, 230.116567850628, -0.000606344693748545, 1.26,127.523910522461
0.128163896666667, 230.12185107861, -0.000519272567273394, 1.26625,104.924217224121
0.128830753333333, 230.126783454176, -0.000187807216434048, 1.27375,113.558975219727
0.129497068333333, 230.132354993652, -5.58243457400595E-05, 1.28,113.558975219727
0.13016417, 230.137512752791, -1.2152539333362E-05, 1.28625,107.394996643066
0.130831125, 230.143346494908, -0.000439433077482235, 1.2925,112.010375976563
0.131498261666667, 230.148446315013, -0.000687783103102354, 1.29875,109.683143615723
0.132164916666667, 230.153677212782, -0.00072101843372584, 1.305,103.368850708008
0.132830798333333, 230.15822206394, -0.000472836399660139, 1.3125,103.368850708008
0.133497321666667, 230.163670551761, -0.000619923511624172, 1.32,105.672080993652
0.134163466666667, 230.168662301503, -0.000458816603882429, 1.32625,108.841903686523
0.134830316666667, 230.174073929102, -0.000212371482594513, 1.33375,107.398643493652
0.135497075, 230.179645874129, -0.000128240708384249, 1.3375,101.890617370605
0.136164381666667, 230.185900273818, -0.000208683167849279, 1.345,101.890617370605
0.136830375, 230.190887533724, -0.000101936529639702, 1.3525,106.32706451416
0.137497253333333, 230.196490570449, -3.1288578228273E-05, 1.35875,108.682960510254
0.13816538, 230.201948522556, -0.000172704475045899, 1.36625,104.93416595459
0.138830235, 230.207634164906, -0.000327678190882524, 1.3725,111.310104370117
0.1394979, 230.212834470398, -0.000325597795352632, 1.3775,111.310104370117
0.140163506666667, 230.218856103598, -0.000255860298181505, 1.38375,104.034515380859
0.140830626666667, 230.225131302666, -0.000340090067359876, 1.39125,102.650779724121
0.141497361666667, 230.231088221829, -0.000370096060169286, 1.39875,111.989944458008
0.142164378333333, 230.236500715556, -0.000214592870933295, 1.405,103.667617797852
0.142830726666667, 230.242434328599, -0.000204970854228577, 1.41375,103.667617797852
0.143497808333333, 230.247974212079, -0.000244478869790445, 1.42125,109.292739868164
0.144165055, 230.252697750051, -0.000460874500503765, 1.42375,135.645401000977
0.144831591666667, 230.257811442818, 0.000107878931590059, 1.43,111.314292907715
0.145498245, 230.262954515284, 2.49872474564401E-06, 1.44,107.433204650879
0.146165036666667, 230.268431808532, 3.41426353222235E-05, 1.445,107.433204650879
0.146830708333333, 230.273536086417, 0.000181304743506419, 1.45125,111.528564453125
0.147498318333333, 230.279030319886, 0.000522387611298527, 1.45875,110.816986083984
0.148165375, 230.285014372499, -7.74576067144299E-06, 1.465,107.95475769043
0.148830328333333, 230.290314054863, 2.34586719699656E-05, 1.47125,108.64298248291
0.149498778333333, 230.295870729267, -1.34184757635067E-05, 1.4775,108.64298248291
0.150164218333333, 230.301691056771, -0.000347559692205854, 1.48625,108.893737792969
0.150831106666667, 230.306455500616, -0.000266503763574875, 1.4925,107.164520263672
0.151498703333333, 230.31147371777, -3.72087808468742E-05, 1.49875,112.049934387207
0.152165133333333, 230.316423797191, 0.000317337410663065, 1.50375,109.353378295898
0.152830735, 230.321097196823, 0.000594775475209022, 1.51125,109.353378295898
0.153498546666667, 230.325911346185, 0.00104134204462937, 1.5175,107.076774597168
0.154163518333333, 230.330843783695, 0.00160263335156299, 1.52375,101.06014251709
0.154832083333333, 230.335412514749, 0.00218079131132306, 1.5325,108.449798583984
0.155497786666667, 230.340000373717, 0.00278822330067748, 1.53875,108.815231323242
0.156164915, 230.344906924674, 0.00343923260115869, 1.54375,108.815231323242
0.1568312, 230.349524142122, 0.00427202677079689, 1.55,115.571678161621
0.157497308333333, 230.353727239238, 0.0046790088285108, 1.5575,109.799247741699
0.158164028333333, 230.358646622325, 0.00524822573733025, 1.56375,107.490371704102
0.158830301666667, 230.36330712782, 0.00580613471413941, 1.57125,106.776596069336
0.159496968333333, 230.367590300426, 0.00653652002764364, 1.5775,106.776596069336
