Time (min), Depth (µm), Load (N), Position (µm), Acoustic (aJ)
7.95166666666667E-06, 229.07827546469, 0.000781300703146128, 0,107.26432800293
0.000666268333333333, 229.078494922246, 0.000513651146871143, 0.00125,107.26432800293
0.00133311333333333, 229.07939581451, 0.000207639517490919, 0.005,111.544387817383
0.00199954333333333, 229.079757160586, -7.73386683479692E-05, 0.0125,105.595611572266
0.00266618833333333, 229.08126084065, -7.35078607631717E-05, 0.025,107.83952331543
0.00333306, 229.082535535295, -0.000441008901596983, 0.0325,130.356414794922
0.00399948833333333, 229.084934739884, -0.000477961045529364, 0.03875,130.356414794922
0.00466615833333333, 229.087417148121, -0.000337877081794371, 0.04375,103.794212341309
0.00533291666666667, 229.089870135676, -0.000148618088103202, 0.05,102.672775268555
0.00599949166666667, 229.091767167693, -0.000150355000859732, 0.05875,105.535575866699
0.006666175, 229.093518638918, 0.000514668095765331, 0.06375,106.924766540527
0.00733327166666667, 229.095393017243, 0.0007016802023391, 0.07,106.924766540527
0.00799947666666667, 229.097342308685, 0.000798227352863688, 0.0775,98.7279052734375
0.008666255, 229.099737429505, 0.000761566194350555, 0.08625,113.69034576416
0.00933287666666667, 229.101553820784, 0.00116728081573117, 0.09,104.88387298584
0.009999575, 229.103327625759, 0.000978951775276295, 0.0975,105.854339599609
0.0106663183333333, 229.105006825921, 0.000989368752042265, 0.105,105.854339599609
0.011332975, 229.106416624389, 0.000792277151735767, 0.11125,111.403244018555
0.0119996933333333, 229.107986907101, 0.000704386066430167, 0.1175,107.069259643555
0.0126663433333333, 229.109497084573, 0.000587036460786108, 0.125,111.918594360352
0.0133331033333333, 229.112225070399, 0.000204183691070699, 0.13,104.850860595703
0.0139998666666667, 229.114232116817, -0.000227457128041084, 0.13625,104.850860595703
0.0146663016666667, 229.11670286987, -0.000187067156802576, 0.14375,104.36279296875
0.01533315, 229.118679906928, -5.88955947186503E-05, 0.15125,111.648246765137
0.015999685, 229.121430116248, -0.000219827011305212, 0.1575,107.557312011719
0.0166665566666667, 229.123081183246, -5.55087648422335E-05, 0.1625,80.8183059692383
0.0173329416666667, 229.125697689547, 0.000220754858747194, 0.17,80.8183059692383
0.01799962, 229.128118139917, 6.67155959625779E-05, 0.1775,110.130828857422
0.0186663183333333, 229.130721612069, -0.000108522102005224, 0.18375,114.890769958496
0.019333885, 229.133219543552, -0.000211755916646003, 0.19,108.053596496582
0.019999825, 229.13657551954, -0.000183572332305362, 0.19625,128.240356445313
0.02066639, 229.138974418505, -0.000279402518880177, 0.2025,128.240356445313
0.0213329333333333, 229.141653437073, -0.000577457047898347, 0.20875,111.837707519531
0.0219996016666667, 229.144820654684, -0.000576927574520235, 0.215,107.973968505859
0.0226671283333333, 229.147625665371, -0.000622082806459312, 0.22375,101.17993927002
0.0233329733333333, 229.151045953293, -0.000623273746605531, 0.23,100.883392333984
0.0239996216666667, 229.154520462284, -0.000966048529379563, 0.23625,100.883392333984
0.0246669166666667, 229.159046442105, -0.000678806957233585, 0.2425,107.449516296387
0.0253330033333333, 229.16206635314, -0.000804898123808872, 0.24875,108.525367736816
0.0259998283333333, 229.16556107079, -0.000553858733223613, 0.255,107.328086853027
0.0266662566666667, 229.168264306486, -0.00038611765869854, 0.26375,108.09041595459
0.0273331016666667, 229.171558383738, 3.23313230336561E-05, 0.26875,108.09041595459
0.0279996616666667, 229.173747368085, 0.000213706712722294, 0.275,107.727310180664
0.028666325, 229.176756277442, 0.000528273912343979, 0.28125,105.740760803223
0.0293335883333333, 229.180203683807, 0.000331614290393144, 0.28875,110.523544311523
0.0299997616666667, 229.18326199273, 0.000299662895271388, 0.29625,111.067077636719
0.03066647, 229.186014527871, 0.000330975322469832, 0.3025,111.067077636719
0.031333755, 229.188732393086, 0.000150999362461974, 0.3075,107.061584472656
0.03199959, 229.192129313877, 0.000338374450826348, 0.315,109.994575500488
0.0326664183333333, 229.194163800555, 0.000637849408530707, 0.3225,104.920684814453
0.033499565, 229.197202257365, 0.000680064788065538, 0.33,107.297821044922
0.034167105, 229.199730570984, 0.000670169785098173, 0.33625,106.997016906738
0.034834645, 229.203152295106, 0.000867084394282578, 0.3425,106.997016906738
0.0354997233333333, 229.205667237462, 0.000649061345336674, 0.35,107.84447479248
0.0361662766666667, 229.209665224592, 0.000267213525183989, 0.35625,106.467819213867
0.0368329733333333, 229.212364384082, 0.000157672527343552, 0.3625,130.009124755859
0.037499655, 229.215673708951, 0.000171257345023063, 0.36875,99.7402725219727
0.0381664416666667, 229.21807643394, 8.7515051297005E-05, 0.375,99.7402725219727
0.0388330916666667, 229.221405526366, -4.66982073034396E-05, 0.3825,110.997077941895
0.0394996466666667, 229.223803325139, 0.000188114998218073, 0.38875,109.17790222168
0.0401671783333333, 229.227239180172, 9.27347890705061E-05, 0.395,109.159729003906
0.0408331333333333, 229.230454153131, 0.000130220906154209, 0.4025,108.67830657959
0.0414997816666667, 229.233841597246, 0.000176117100854766, 0.40875,108.67830657959
0.0421665833333333, 229.237168895186, 0.000248396970314497, 0.415,106.30460357666
0.04283338, 229.240549212163, -3.27099099594522E-05, 0.42125,108.198371887207
0.0434999116666667, 229.243870567564, -7.81116061455269E-06, 0.42875,106.492027282715
0.0441664116666667, 229.247303798707, 2.91604823563249E-05, 0.435,112.045188903809
0.044833335, 229.250520831881, 7.62006430292612E-06, 0.44125,112.045188903809
0.045499855, 229.254077726447, 6.67140960594287E-05, 0.44875,107.659034729004
0.04616655, 229.256971903334, 0.000497910937484085, 0.45375,108.472785949707
0.0468332383333333, 229.260997871507, 0.000586646480420007, 0.46,109.999618530273
0.0474998266666667, 229.265659047285, 0.000576413994376892, 0.4675,108.474395751953
0.048166395, 229.269381472192, 0.000807337895283133, 0.47625,108.474395751953
0.0488334883333333, 229.273049873502, 0.000859797760277559, 0.4825,104.796768188477
0.049499895, 229.277131682678, 0.000861615668994374, 0.4875,108.677993774414
0.0501667533333333, 229.28140614202, 0.000870912202061077, 0.49625,112.988914489746
0.0509998833333333, 229.285037115316, 0.000718810841966789, 0.5025,111.516220092773
0.0516665416666667, 229.288681862599, 0.000368521436678444, 0.50875,113.71061706543
0.05233359, 229.292234317515, 0.000312052273052724, 0.51625,113.71061706543
0.0529997516666667, 229.295303071398, 0.000195712116680836, 0.5225,108.218482971191
0.05366665, 229.298587461399, 0.000409043401221931, 0.52875,129.877166748047
0.0543331, 229.301539865031, 0.000406367535618929, 0.53625,111.703872680664
0.055000255, 229.304262893838, 0.000485695551082306, 0.5425,107.986167907715
0.0556663933333333, 229.30713102846, 0.000555053567315646, 0.54875,107.986167907715
0.056333085, 229.310312183869, 0.000692256175740628, 0.555,111.088745117188
0.0569999416666667, 229.313537919546, 0.000570933269672207, 0.5625,110.008903503418
0.0576664416666667, 229.316205179631, 0.000966379406802779, 0.56875,107.74479675293
0.0583331366666667, 229.319919492989, 0.00123205506215925, 0.575,109.711303710938
0.0589998416666667, 229.323645781403, 0.00142635230281363, 0.5825,109.711303710938
0.05966651, 229.327521224056, 0.00123432894795842, 0.58875,108.022956848145
0.0603332483333333, 229.33148464212, 0.00134893519140133, 0.595,108.779373168945
0.060999925, 229.335478993272, 0.00122053864065691, 0.60125,113.450080871582
0.0616679733333333, 229.339479504142, 0.0008517881626039, 0.61125,115.222862243652
0.0623333383333333, 229.343429342096, 0.000464039638828602, 0.615,115.222862243652
0.0629998066666667, 229.347621665307, 0.000359245902489624, 0.62125,106.678375244141
0.0636664116666667, 229.351018933101, 8.95879471198646E-05, 0.6275,105.530494689941
0.0643332983333333, 229.354891707408, -0.000100082025942813, 0.635,111.022872924805
0.0649997983333333, 229.358241479104, 2.45257151638566E-05, 0.64125,109.474174499512
0.0656683383333333, 229.362122049982, 5.25533073665585E-05, 0.6475,109.474174499512
0.0663336866666667, 229.364562182651, 0.000227519519017371, 0.65625,110.769775390625
0.0669997916666667, 229.368462320487, 0.000431132791734447, 0.66125,107.554542541504
0.0676665583333333, 229.371794199293, 0.000393489182524639, 0.6675,112.657974243164
0.0683332133333333, 229.375773610004, 0.000209797909153543, 0.67375,104.699211120605
0.068999765, 229.378751064881, 0.000383171200790538, 0.68125,104.699211120605
0.0696665366666667, 229.383364308321, 0.00046356266278335, 0.6875,113.771224975586
0.0703331366666667, 229.387299539356, 0.000250937842699952, 0.695,119.851402282715
0.0710001516666667, 229.391214603973, 0.000537796934080591, 0.7025,110.191589355469
0.0716664033333333, 229.395210718851, 0.000703570107448524, 0.70875,106.601203918457
0.0723330633333333, 229.399833340784, 0.000822323642610336, 0.71375,106.601203918457
0.0729999583333333, 229.403950657013, 0.000635049049244743, 0.72,103.587341308594
0.0736664033333333, 229.408344742774, 0.000750666241926737, 0.72875,106.309913635254
0.0743331416666667, 229.41276698448, 0.000644398079686815, 0.735,106.243324279785
0.0749997883333333, 229.416933909158, 0.00071555150577092, 0.74125,108.451164245605
0.0756679716666667, 229.421221852872, 0.000665856001898034, 0.7475,108.451164245605
0.0763331216666667, 229.425749097506, 0.000646149991687377, 0.75375,105.889427185059
0.07699978, 229.430270178118, 0.00089850031639237, 0.76125,109.871147155762
0.077666405, 229.435806054159, 0.000825308492682918, 0.7675,111.04581451416
0.07833509, 229.440824455011, 0.000793207105057074, 0.775,108.508430480957
0.0789997816666667, 229.445968570056, 0.000696370469058895, 0.78,108.508430480957
0.0796665383333333, 229.450782741378, 0.000590460788772606, 0.78625,109.121650695801
0.0803331233333333, 229.455902303532, 0.000234783654071324, 0.7925,108.05492401123
0.080999715, 229.460316271899, 8.40382258713763E-05, 0.8,107.051940917969
0.0816666083333333, 229.465229936768, 0.000290247868198082, 0.8075,111.716835021973
0.0823333633333333, 229.47041082647, 0.000317375505588796, 0.81375,111.716835021973
0.08300008, 229.475368753602, 0.000293771191216449, 0.82125,104.171173095703
0.0836663933333333, 229.479706754817, 0.000196247589735307, 0.8275,107.710258483887
0.0843330633333333, 229.484393323851, 0.000295121123413176, 0.8325,108.224540710449
0.0849997433333333, 229.489051721015, -5.70326882697385E-05, 0.83875,104.09977722168
0.0856664783333333, 229.494110550163, -0.000509237474478367, 0.8475,104.09977722168
0.0863332266666667, 229.49917519149, -0.000493090785493009, 0.85375,130.565414428711
0.0869997366666667, 229.504171802384, -0.000320452456941135, 0.86,98.9833145141602
0.0876664016666667, 229.509778322758, -0.000517991034762312, 0.8675,105.934463500977
0.08833307, 229.514998481222, -0.00085301720675136, 0.87375,106.718780517578
0.0889997933333333, 229.519807903457, -0.000533041278796347, 0.88,106.718780517578
0.089666505, 229.52469391359, -0.000683338229535958, 0.885,105.929298400879
0.090333085, 229.530132762922, -0.00084653603229967, 0.8925,104.736976623535
0.090999815, 229.5348026963, -0.000895372079319456, 0.89875,107.669822692871
0.0916665266666667, 229.539553398793, -0.00051125937289277, 0.90625,112.961502075195
0.0923333533333333, 229.545238122592, -0.000540894884310813, 0.9125,112.961502075195
0.0930017166666667, 229.550648551777, -0.000180776472686337, 0.91875,112.059867858887
0.0936664883333333, 229.555707790111, 5.64606111809386E-05, 0.925,105.744972229004
0.094333105, 229.560864838756, 0.000400450332934151, 0.93125,110.052978515625
0.0949997533333333, 229.566466611903, 0.000371119306191222, 0.94,111.404495239258
0.0956665266666667, 229.571745317555, 0.000188875460081812, 0.94625,111.404495239258
0.0963330583333333, 229.577235972256, 0.000182913259537411, 0.9525,104.786514282227
0.0969997566666667, 229.58294704522, 9.70815707562949E-05, 0.95875,104.423538208008
0.0976682266666667, 229.588665465399, 9.86894900353988E-05, 0.96625,104.914459228516
0.0983331216666667, 229.594599693622, 0.000211932301983207, 0.9725,112.662788391113
0.0990000333333333, 229.600320017402, 0.0004571174865811, 0.9775,112.662788391113
0.0996665116666667, 229.60624931379, 0.000626496478873343, 0.985,101.609474182129
0.100333068333333, 229.611627310297, 0.000756127467635433, 0.9925,108.98046875
0.100999963333333, 229.61828082602, 0.000712197674167613, 0.99875,109.857414245605
0.101666398333333, 229.624834576031, 0.000554660587079484, 1.005,113.57689666748
0.102333205, 229.631122257959, 0.000807301897161218, 1.0125,113.57689666748
0.102999851666667, 229.637255957274, 0.000610204297157107, 1.0175,131.774078369141
0.103666543333333, 229.643991112788, 0.000419026899771597, 1.02375,107.755523681641
0.10433309, 229.649366866605, 0.00038688801407818, 1.03125,103.586898803711
0.104999745, 229.654762366445, 0.000461009791023923, 1.0375,109.234710693359
0.105666435, 229.659951853857, 0.000102955275718395, 1.045,109.234710693359
0.106333135, 229.666036436621, 6.64786079068632E-05, 1.05125,107.197250366211
0.106999913333333, 229.671421596107, 9.35957458480089E-05, 1.0575,107.146919250488
0.107666491666667, 229.677775537891, 0.000191108847858328, 1.06375,114.855072021484
0.108333038333333, 229.68333018276, 0.000496722997165418, 1.07,109.496444702148
0.108999743333333, 229.689016265361, 0.000895147984692212, 1.0775,109.496444702148
0.109666743333333, 229.694784764973, 0.000955096973528604, 1.085,104.484153747559
0.110333413333333, 229.70129383366, 0.000924567507017441, 1.09125,106.978164672852
0.110999966666667, 229.707081959705, 0.00106360302342452, 1.09625,103.498504638672
0.111666825, 229.713496729329, 0.00093115967591748, 1.10375,106.995758056641
0.112333336666667, 229.719996007452, 0.000553603140205155, 1.11125,106.995758056641
0.112999953333333, 229.726210115437, 0.000495064080584128, 1.11625,111.218330383301
0.113666606666667, 229.732164362728, 0.0005401998134422, 1.12375,108.913452148438
0.114333293333333, 229.73837531074, 0.00041802195029389, 1.13125,105.710563659668
0.115000101666667, 229.744816258695, 0.000149131956324869, 1.13625,103.465805053711
0.11566824, 229.750934318658, -4.59647441639761E-05, 1.1425,103.465805053711
0.116333405, 229.756801906315, -6.37103528395096E-05, 1.15,110.896530151367
0.117000016666667, 229.763145838589, 0.000233586714227491, 1.1575,108.657920837402
0.117668161666667, 229.769274304941, 0.000187710018565431, 1.16375,108.123054504395
0.118333283333333, 229.775145312107, 0.000490969286176832, 1.16875,106.65650177002
0.118999951666667, 229.781039620807, 0.000569320850641147, 1.17625,106.65650177002
0.119666653333333, 229.787412492594, 0.000500337815614892, 1.1825,130.939514160156
0.12033345, 229.792799827419, 7.57571418594735E-05, 1.18875,105.311767578125
0.121000146666667, 229.798539722495, -8.05564829228368E-06, 1.19625,110.797157287598
0.121666611666667, 229.804063007498, 0.000173546230045008, 1.2025,108.170677185059
0.122333305, 229.809413744314, 0.000508465907401425, 1.20875,108.170677185059
0.123001643333333, 229.814833929496, 0.00066929682901046, 1.215,112.603858947754
0.1236668, 229.820665757477, 0.000855629469765791, 1.2225,108.069290161133
0.124333293333333, 229.826155802926, 0.000980799682629954, 1.22875,101.209861755371
0.12500001, 229.832165043533, 0.000461485267208534, 1.235,105.584899902344
0.12566708, 229.838281974278, 0.000482058233851799, 1.2425,105.584899902344
0.12633321, 229.84368350816, 0.000462188731881187, 1.24875,107.00700378418
0.12700003, 229.849750127919, 0.0007134621106521, 1.255,108.044227600098
0.127667001666667, 229.85549747532, 0.00061727494206931, 1.26125,107.960739135742
0.128333298333333, 229.86184228124, 0.000792646133372764, 1.2675,114.982978820801
0.12900018, 229.868430410961, 0.000508222919626843, 1.275,114.982978820801
0.129666626666667, 229.874482202004, 0.000392937210322986, 1.28125,107.059547424316
0.130333343333333, 229.880678506466, 0.00040102330418372, 1.2875,106.040832519531
0.131000025, 229.886403860665, 0.000219632915187287, 1.29375,108.824195861816
0.131666906666667, 229.891776815165, 7.98924342044029E-05, 1.3,106.332649230957
0.132333438333333, 229.896407097662, 0.000175388137552275, 1.3075,106.332649230957
0.13300018, 229.902058252059, 0.00030473714046279, 1.31375,101.239105224609
0.133666608333333, 229.907169224883, -0.000133389352916401, 1.32125,103.415664672852
0.134333406666667, 229.912675975996, 0.000235268129802355, 1.3275,108.996757507324
0.135000563333333, 229.917865779707, 0.000869434776247565, 1.33375,105.001136779785
0.13566662, 229.924022910652, 0.00135736926782989, 1.34,105.001136779785
0.136333418333333, 229.928746143368, 0.00173715469160928, 1.3475,123.222068786621
0.13699994, 229.934753073307, 0.00241255276705326, 1.35375,104.741119384766
0.137666811666667, 229.940005264841, 0.00291051725482049, 1.36125,108.164817810059
0.138333311666667, 229.94560382297, 0.00352353796343663, 1.3675,108.92658996582
0.139, 229.9513889124, 0.0037872112194172, 1.3725,108.92658996582
0.139666613333333, 229.957601699403, 0.00426933950259306, 1.37875,104.078353881836
0.140333586666667, 229.962940209955, 0.00487564504848683, 1.3875,108.238693237305
0.140999985, 229.969039347781, 0.00548898224121582, 1.39375,106.375007629395
0.141666748333333, 229.97490585617, 0.00579615481221169, 1.4,109.721664428711
0.14233354, 229.980231689041, 0.00665420471326653, 1.4075,109.721664428711
0.14300004, 229.985248799925, 0.00759515545030842, 1.41625,102.887580871582
0.143666785, 229.990070965669, 0.00833845511513513, 1.42125,115.121246337891
0.14433343, 229.995407769431, 0.00866013645741295, 1.42625,107.257270812988
0.145000053333333, 229.999651371469, 0.0090635516943008, 1.4325,114.946685791016
0.145666616666667, 230.004989585796, 0.0094757444902843, 1.44,114.946685791016
0.146333731666667, 230.010336557774, 0.00998392796475377, 1.44625,108.013107299805
0.147001226666667, 230.015315230809, 0.0106288880690752, 1.4525,106.438774108887
0.147666811666667, 230.019657807417, 0.0117772948857929, 1.4525,117.30313873291
0.14833333, 230.024200045208, 0.0124847328519197, 1.455,109.597236633301
0.14900011, 230.027829737348, 0.012866292686587, 1.455,109.597236633301
0.149666633333333, 230.029967533619, 0.0135299763504861, 1.4575,108.658546447754
0.150333508333333, 230.032443590068, 0.0137067394718483, 1.45875,114.019218444824
0.151000323333333, 230.034377246509, 0.0136664424959016, 1.46125,112.691871643066
0.151668103333333, 230.035996038002, 0.0141195772354103, 1.4675,108.175872802734
0.15233366, 230.038056369683, 0.0144535354610329, 1.47125,108.175872802734
0.153000086666667, 230.041681013459, 0.0142510996291637, 1.47375,131.12971496582
0.153667615, 230.043940236435, 0.0145992471420641, 1.48125,106.052513122559
0.154333811666667, 230.047468367456, 0.01546308525239, 1.4875,107.660858154297
0.154999976666667, 230.051080350245, 0.0158234976491976, 1.49375,107.368156433105
0.155666715, 230.054474637455, 0.016978258146814, 1.50125,107.368156433105
0.15633332, 230.058084764977, 0.0179820407278629, 1.50875,111.126678466797
0.15700042, 230.063313018164, 0.0191671072031906, 1.5175,104.567314147949
0.157667445, 230.068482994103, 0.019774788179996, 1.52625,109.15567779541
0.1583333, 230.074123746144, 0.0207014131366181, 1.535,106.440956115723
0.159000706666667, 230.079856624693, 0.0217560521631981, 1.545,106.440956115723
0.159666803333333, 230.086407999915, 0.0230769788144399, 1.555,108.833946228027
0.160333483333333, 230.092385925614, 0.0243260080770297, 1.56625,102.594337463379
0.161000758333333, 230.099225893184, 0.0258448467873753, 1.57625,109.631935119629
0.161666778333333, 230.107013738698, 0.0271298862411598, 1.58875,109.631935119629
