Time (min), Depth (µm), Load (N), Position (µm), Acoustic (aJ)
7.22666666666667E-06, 229.434146890997, 0.000567290548603302, 0,110.684585571289
0.000667001666666667, 229.434174395974, 0.000811685272934408, 0.00125,104.126739501953
0.001333525, 229.433639832958, 0.000457110582860807, 0.00625,107.621322631836
0.00200025833333333, 229.43391896812, 0.000547658034794675, 0.01375,106.824935913086
0.00266720666666667, 229.435425962129, 0.000165301740163015, 0.0225,105.811614990234
0.003333615, 229.437319246199, -0.000142527797870261, 0.02875,105.811614990234
0.00399997833333333, 229.440012728993, -0.000211393838793062, 0.03875,108.322074890137
0.00466660833333333, 229.444023181746, -0.000357777486105696, 0.045,129.864990234375
0.005333755, 229.448194016964, -0.000546363013654786, 0.05125,114.354820251465
0.00599981833333333, 229.451883967596, -0.000245583121507052, 0.0575,108.168792724609
0.006667145, 229.45626840446, -0.000263630215051402, 0.06375,108.168792724609
0.00733361333333333, 229.460226076906, -0.000203733723590378, 0.07125,104.210052490234
0.00799983666666667, 229.464012559338, 6.97145413840363E-05, 0.07875,103.201370239258
0.0086672, 229.467431716341, 0.000424053743262563, 0.085,106.213203430176
0.00933341666666667, 229.470983142594, 0.000288012076495736, 0.09125,112.177955627441
0.00999987, 229.474016494104, 0.000511602845782967, 0.0975,112.177955627441
0.010666705, 229.476785757439, 0.000705523605369625, 0.10375,103.617347717285
0.01133345, 229.480328658003, 0.000618496476690334, 0.11125,105.253623962402
0.011999775, 229.48387420866, 0.000262259870080366, 0.12,109.886756896973
0.0128335516666667, 229.487641343451, 0.000285978178707361, 0.125,103.784576416016
0.013499925, 229.49140932299, 0.000104574290433807, 0.1325,109.19506072998
0.01416666, 229.495910192128, 0.000126962165902571, 0.13875,109.19506072998
0.01483315, 229.499786889796, 0.000113257354292054, 0.145,105.464241027832
0.0154998533333333, 229.50622627952, 0.000380816915081589, 0.15375,102.532211303711
0.0163333566666667, 229.510031213459, 0.000603999704824864, 0.16,107.653411865234
0.01700008, 229.514629360231, 0.000507850034330901, 0.16625,84.4380493164063
0.0176667733333333, 229.518925474165, 0.000534808180242793, 0.1725,112.364654541016
0.018335085, 229.523865120949, 0.000506927580631611, 0.18125,112.364654541016
0.0189997816666667, 229.527817621966, 0.000641691311573067, 0.18875,104.158699035645
0.0196671933333333, 229.532519144429, 0.000238463565278132, 0.1925,106.636039733887
0.0203336216666667, 229.536713489306, 0.000609810412898265, 0.1975,104.154006958008
0.0209997783333333, 229.540564353112, 0.000420644414456335, 0.20625,128.853134155273
0.0216668816666667, 229.544281989968, 0.000636233085649415, 0.21375,128.853134155273
0.02233336, 229.547660130714, 0.000694386664656296, 0.22,112.289321899414
0.02299985, 229.551244825191, 0.000930663796692946, 0.22625,106.994430541992
0.0236665183333333, 229.554083354516, 0.000829045400889525, 0.2325,108.510543823242
0.0243332716666667, 229.557822101647, 0.00105014179546906, 0.23875,107.454437255859
0.0250000383333333, 229.560440941725, 0.000933990629614487, 0.245,107.454437255859
0.0256666233333333, 229.564297808692, 0.000687382016524107, 0.25375,113.252937316895
0.0263334133333333, 229.566802104093, 0.000533353253210313, 0.26,109.70711517334
0.02716648, 229.57043627499, 0.000389826962374729, 0.26625,109.571113586426
0.0278336566666667, 229.572834833773, 0.00039230333798959, 0.27375,84.5028381347656
0.02850037, 229.576284522015, 0.00040189085641178, 0.28125,105.872406005859
0.029166915, 229.579377597781, 0.000434106238249763, 0.2875,105.872406005859
0.0298346333333333, 229.582890896265, 0.000560899369573299, 0.29375,105.719779968262
0.0304999583333333, 229.585590136561, 0.000701154324711517, 0.3,108.687896728516
0.0311674833333333, 229.589224324783, 0.000410011448533788, 0.30625,105.290298461914
0.0318346416666667, 229.592009410108, 0.000441938844865092, 0.31375,109.835983276367
0.0324999316666667, 229.594618122484, 0.00040212484468245, 0.32,109.835983276367
0.0331666483333333, 229.597064805238, 0.000174332786461563, 0.3275,102.283493041992
0.0338336983333333, 229.600159789439, -0.00016424970686147, 0.3325,111.146621704102
0.0344999516666667, 229.602634347729, 4.68376904535398E-05, 0.33875,105.192756652832
0.0351666266666667, 229.605055468911, -0.000199863917949842, 0.34625,104.194725036621
0.03583424, 229.607584354389, -0.000319727397340097, 0.3525,104.194725036621
0.0364997933333333, 229.610215102591, -0.000400070861752004, 0.35875,103.85400390625
0.037166865, 229.612734137223, -0.000299586409031242, 0.36625,102.708038330078
0.0378340766666667, 229.615627687666, -0.000451962255355088, 0.3725,125.421005249023
0.0385013233333333, 229.618718174962, -0.000531887240858486, 0.37875,113.851173400879
0.0391680883333333, 229.621587373517, 5.73161640987891E-05, 0.38625,113.851173400879
0.0398347916666667, 229.624557487979, 5.23304144896879E-05, 0.3925,103.222213745117
0.04050042, 229.627773901141, 5.71001748997035E-05, 0.39875,109.035743713379
0.0411669666666667, 229.63080464879, -5.7241695278325E-06, 0.405,107.239868164063
0.0418336533333333, 229.633493820342, 0.000223206331548923, 0.4125,106.793121337891
0.0424998766666667, 229.636508390176, -4.68281049098165E-05, 0.41875,106.793121337891
0.0431667083333333, 229.639718116842, 0.000213564815805707, 0.425,106.950187683105
0.0438339983333333, 229.642414608571, 0.000329954469725411, 0.43125,110.285629272461
0.044500635, 229.645347209529, 0.000431349376771493, 0.43875,108.95378112793
0.0451670783333333, 229.648432290574, 0.000474835192552186, 0.445,105.556716918945
0.0458333016666667, 229.651436015645, 0.000474422713277528, 0.45125,105.556716918945
0.0465012116666667, 229.6548386786, 0.000282136871587978, 0.4575,107.194595336914
0.04716713, 229.658367367895, 0.000378748518861907, 0.46375,104.366920471191
0.0478336333333333, 229.662157027764, 0.000377553078899969, 0.47125,102.271179199219
0.0485003266666667, 229.666181880801, 0.000401430379556217, 0.4775,111.348854064941
0.0491672066666667, 229.669966487985, 0.000225276227586738, 0.485,111.348854064941
0.0498335016666667, 229.673242661193, 0.00024802858477051, 0.4925,109.233390808105
0.05050033, 229.676081000556, 0.000235474215347324, 0.49875,111.826614379883
0.0511672583333333, 229.678812085807, 0.000376657623861191, 0.50375,108.357360839844
0.05183481, 229.681788991289, 0.000347548585972454, 0.51125,108.86890411377
0.05249981, 229.685569055945, 0.000376423635590521, 0.5175,108.86890411377
0.0531673866666667, 229.688782747557, 0.000286146170155509, 0.52375,106.869834899902
0.053833265, 229.692403159906, 0.000133389342990728, 0.53125,133.948516845703
0.05450002, 229.695430920354, -7.50041895646786E-05, 0.5375,98.5816650390625
0.05516744, 229.698586832561, -4.64126257013353E-05, 0.54375,112.080238342285
0.0558338, 229.700749372426, -0.000129635945435087, 0.55125,112.080238342285
0.0565003566666667, 229.703859388145, 1.5777250576098E-05, 0.5575,108.883827209473
0.0571670183333333, 229.705939490889, 0.000352562834187725, 0.56375,108.939521789551
0.0578333916666667, 229.70883728364, 0.000791338794876035, 0.57,100.436958312988
0.0585009766666667, 229.711722962556, 0.000373935260644196, 0.5775,112.411628723145
0.0591680416666667, 229.714822825139, 0.000376524130610556, 0.58375,112.411628723145
0.0598341116666667, 229.717035961665, 0.000377113600964798, 0.59,100.723320007324
0.0605003466666667, 229.719648596596, 0.000209224033923802, 0.59625,109.858444213867
0.06116682, 229.722327139681, 9.8187611177014E-05, 0.60375,106.963996887207
0.0618342466666667, 229.724398473918, 0.000495733642833466, 0.61,106.97730255127
0.062499785, 229.726439841351, 0.000588184499132626, 0.6175,106.97730255127
0.0631679883333333, 229.72938235931, 0.000473432763001345, 0.62375,106.093475341797
0.063833715, 229.732465484341, 0.000656107087457, 0.63125,104.673004150391
0.0644999866666667, 229.735394132323, 0.000373747770051281, 0.6375,110.551124572754
0.0651665616666667, 229.73887576765, 0.00057746003782148, 0.6425,107.852722167969
0.0658338633333333, 229.742119560837, 0.000997213954018306, 0.65,107.852722167969
0.0665017183333333, 229.744875891043, 0.00139855779496519, 0.65625,108.956787109375
0.067167945, 229.747953526793, 0.00137978173807584, 0.6625,108.069412231445
0.0678341216666667, 229.751597304776, 0.0014334610418014, 0.66875,100.261390686035
0.0685004, 229.755109157971, 0.0010586148699321, 0.6775,105.088523864746
0.069166425, 229.758676379471, 0.000568165004700434, 0.68375,105.088523864746
0.0698333533333333, 229.76280847351, 2.9773047605864E-05, 0.68875,111.382881164551
0.070501225, 229.766727588007, -0.000160366401901304, 0.69625,124.643264770508
0.071167255, 229.769201328134, -0.000128262014469162, 0.7025,104.122436523438
0.0718333633333333, 229.772044376084, 0.000176009702263217, 0.70875,108.83814239502
0.0724998116666667, 229.774739454516, 0.000486081627704445, 0.7175,108.83814239502
0.0731683366666667, 229.777560190053, 0.000819903360142628, 0.72375,106.647331237793
0.0738332833333333, 229.78034551404, 0.00074191327752326, 0.73,109.565704345703
0.0744998566666667, 229.78417447933, 0.000546932071213466, 0.735,106.026374816895
0.075166815, 229.787273886742, 0.000401097396359948, 0.7425,104.479843139648
0.0758333, 229.790448825815, -4.16818633258044E-05, 0.74875,104.479843139648
0.0765011783333333, 229.793110031306, -0.000339002929162003, 0.75625,106.293121337891
0.0771666516666667, 229.79610293652, -0.000440951308419157, 0.7625,112.73690032959
0.0778339033333333, 229.797984757245, -0.000166507093470947, 0.77,101.234344482422
0.0784998716666667, 229.800380058964, -0.000206391590121795, 0.77625,109.94605255127
0.0791671316666667, 229.803017263301, 0.00018610719506753, 0.78125,109.94605255127
0.07983403, 229.805216453103, 0.000557509539911838, 0.78875,111.45401763916
0.0805016483333333, 229.808055190845, 0.000737798984183739, 0.795,103.101219177246
0.0811666116666667, 229.811417881073, 0.000697903988019559, 0.8025,112.518501281738
0.08183372, 229.814902599167, 0.000522484799156455, 0.80875,103.364059448242
0.0825003366666667, 229.817814212527, 0.00044077940313134, 0.8175,103.364059448242
0.083168115, 229.821189725801, 0.000316162662499505, 0.82125,103.827995300293
0.0838336766666667, 229.82428561796, 0.000176285688332162, 0.8275,110.643569946289
0.0845003516666667, 229.827278120879, -8.36302563168553E-05, 0.83375,107.682952880859
0.0851682, 229.829937824553, 2.78021465361553E-05, 0.8425,99.5447463989258
0.0858334183333333, 229.832705172945, 0.000167481130597252, 0.85,99.5447463989258
0.086500305, 229.835918881643, 7.68796814273743E-05, 0.855,108.214134216309
0.0871680283333333, 229.838551524323, 5.14364594390758E-05, 0.86125,129.633163452148
0.0878333966666667, 229.841740596341, 0.000228205580456399, 0.86875,106.183044433594
0.0885002716666667, 229.844344664271, 0.000230027988946423, 0.875,105.183471679688
0.089166705, 229.847144664318, 6.06039989220826E-05, 0.8825,105.183471679688
0.0898333966666667, 229.849209872445, 0.000199234535697777, 0.88875,117.584480285645
0.090500355, 229.851776304277, 0.000130821471966014, 0.89375,109.562713623047
0.0911670033333333, 229.853440052659, 0.00010947754405195, 0.9,109.977760314941
0.0918338316666667, 229.85604332997, 3.89045888819386E-05, 0.9075,108.571723937988
0.0925003966666667, 229.85874203381, 7.11829676086208E-05, 0.915,108.571723937988
0.0931666183333333, 229.861743174446, 1.97115529659745E-05, 0.92125,105.179779052734
0.0938331266666667, 229.864408893738, 1.5504264313451E-05, 0.9275,104.247863769531
0.0945003816666667, 229.868047670277, 5.0562003405706E-05, 0.93375,109.267349243164
0.09516654, 229.871265906609, 0.000113572338437992, 0.94,105.226692199707
0.0958333566666667, 229.874603950113, -2.99580648569987E-06, 0.94625,105.226692199707
0.096499785, 229.877111179384, -0.000120369410941466, 0.95375,107.069366455078
0.0971669233333333, 229.880234375375, -8.25323114836378E-05, 0.96125,106.038642883301
0.0978334216666667, 229.882534309684, -0.000191300848150127, 0.9675,105.774337768555
0.0985013466666667, 229.884968768023, -0.000200310895592045, 0.97375,108.021102905273
0.0991666083333333, 229.887765269521, -6.52231808732146E-05, 0.98125,108.021102905273
0.0998338266666667, 229.890966200763, 9.4487297036554E-05, 0.9875,107.449699401855
0.10050126, 229.893842447466, -0.000144290209426662, 0.99375,103.701759338379
0.101168086666667, 229.896791075233, 0.000224152784059919, 1,102.988052368164
0.101834601666667, 229.899777016144, 0.000379071002714878, 1.0075,105.084022521973
0.102501281666667, 229.902639547201, 0.000469361967469518, 1.01375,105.084022521973
0.103168326666667, 229.905663918398, 0.000628478475230581, 1.02,102.45140838623
0.103834623333333, 229.90863498683, 0.00109902584011225, 1.0275,129.32421875
0.104501281666667, 229.911566066934, 0.00104212619809778, 1.03375,109.94605255127
0.105168043333333, 229.914588235346, 0.00086933487721427, 1.03875,107.612243652344
0.105834991666667, 229.917884927402, 0.000728373457575847, 1.04625,107.612243652344
0.10649987, 229.921610871328, 0.000461602857192457, 1.0525,109.87727355957
0.10716696, 229.924912404503, 0.000224520265581226, 1.06,103.241966247559
0.107833266666667, 229.929405088932, -3.34472769278943E-05, 1.06625,115.379959106445
0.108499943333333, 229.933698099535, -4.93820890673022E-06, 1.0725,110.87281036377
0.10916678, 229.937417532426, -0.000100882389736192, 1.07875,110.87281036377
0.109833448333333, 229.940554106677, -1.88005126433522E-05, 1.085,116.375556945801
0.11049982, 229.944067203966, -7.15708620105067E-05, 1.09125,107.036811828613
0.111166408333333, 229.946732939603, 5.84276083153982E-05, 1.1,114.397109985352
0.111833851666667, 229.949292395651, 5.75171540325879E-05, 1.105,105.438705444336
0.112499795, 229.952159058452, 0.000223066838643182, 1.1125,105.438705444336
0.113166688333333, 229.956011478278, 0.000210806454445543, 1.11875,106.825698852539
0.113833453333333, 229.959496385936, 0.000143881316019369, 1.125,102.383163452148
0.114500395, 229.962926046053, 0.000201260933864136, 1.13125,105.701995849609
0.115167936666667, 229.966651858579, 9.83466031425052E-05, 1.13875,108.55542755127
0.11583328, 229.970443250881, 0.00012313735793037, 1.14625,108.55542755127
0.116500523333333, 229.973886922259, -6.26823085727763E-05, 1.1525,108.189231872559
0.117166938333333, 229.977662274912, 0.000264923736096855, 1.1575,105.717262268066
0.11783329, 229.981392404112, 0.000270519955023099, 1.16375,108.025421142578
0.118501275, 229.984713941244, 0.000273903785029455, 1.17125,103.186195373535
0.119167175, 229.987760461492, 0.000274406259810817, 1.1775,103.186195373535
0.119834245, 229.991416138851, 0.0003921488457548, 1.18375,102.359146118164
0.120501205, 229.994333161218, 0.000271949383276961, 1.19125,126.900955200195
0.121167213333333, 229.99808468341, 0.000123851322073846, 1.1975,111.014785766602
0.121834228333333, 230.001647377031, 0.000216234681774859, 1.20375,105.82544708252
0.12250029, 230.006086792431, -1.54016833929634E-05, 1.21,105.82544708252
0.123166823333333, 230.00970675851, -8.19488408057542E-05, 1.2175,107.947311401367
0.12383367, 230.014241115902, -2.37667632564651E-05, 1.22375,109.307197570801
0.124501196666667, 230.018565094511, -0.000137491051001482, 1.23,111.306709289551
0.125167545, 230.022960717546, -0.000134242214191419, 1.2375,107.22233581543
0.125834606666667, 230.026668718331, 0.000124757276519684, 1.24375,107.22233581543
0.126500883333333, 230.030691242964, 0.000336525639620043, 1.25,103.014587402344
0.127166761666667, 230.034798828293, 0.000343990764692811, 1.25625,103.76000213623
0.127833893333333, 230.038508551936, 0.000983365149558805, 1.26375,110.665756225586
0.128500065, 230.043145285957, 0.000846287034859293, 1.27,102.655044555664
0.12916663, 230.047417982173, 0.00101852038373727, 1.27625,102.655044555664
0.129833223333333, 230.051570110384, 0.0012576233738385, 1.2825,107.674476623535
0.130500093333333, 230.05672533641, 0.00110978479959966, 1.29,106.027046203613
0.131166701666667, 230.06139344648, 0.000984928071042048, 1.29625,110.844207763672
0.131833993333333, 230.066227181035, 0.000899751849373935, 1.30125,105.98755645752
0.132499801666667, 230.070591509638, 0.000695753096021459, 1.30875,105.98755645752
0.133168046666667, 230.075766586113, 0.00036219985005146, 1.31625,105.017845153809
0.133834551666667, 230.079702054658, 0.000215900198505408, 1.3225,107.786170959473
0.134499825, 230.084172937125, 3.14859614444171E-05, 1.32875,108.662178039551
0.135166795, 230.088419458424, 0.000291079422346734, 1.33625,104.396278381348
0.13583335, 230.09348896647, 0.000291214415585536, 1.34125,104.396278381348
0.136499913333333, 230.097788895047, 0.00032226885574411, 1.3475,132.977035522461
0.13716702, 230.103154812529, 0.00037737308792907, 1.355,107.435005187988
0.137833968333333, 230.108455444148, 0.00024292434117606, 1.3625,108.12272644043
0.138500336666667, 230.113910793146, 0.000181406431137556, 1.36875,112.720527648926
0.13916666, 230.119335305982, 0.00013277287391221, 1.375,112.720527648926
0.139833258333333, 230.124944278732, 0.00021081095415499, 1.38375,106.842758178711
0.140499846666667, 230.129837201136, 0.000363294795057125, 1.3875,104.534843444824
0.14116713, 230.133968566348, 0.000587967009966629, 1.39375,104.798736572266
0.141834698333333, 230.138550091697, 0.000651202333723166, 1.4025,107.264419555664
0.142500681666667, 230.143234158879, 0.000540635387399614, 1.40875,107.264419555664
0.143166618333333, 230.147370302875, 0.000401448378606548, 1.4175,104.754257202148
0.143834636666667, 230.151444316762, 0.000246654653719568, 1.4225,106.83341217041
0.144499831666667, 230.15656929533, 0.000206120689717093, 1.42875,107.217582702637
0.145167256666667, 230.160553259829, 0.000343192804718991, 1.435,105.115036010742
0.145834528333333, 230.164563583345, 0.000594026705597242, 1.44125,105.115036010742
0.146500128333333, 230.169296645415, 0.00059688106224674, 1.4475,108.452499389648
0.147167945, 230.174322137394, 0.000588934461376763, 1.455,106.870010375977
0.14783357, 230.178574171426, 0.000431575865313877, 1.46125,102.628913879395
0.148500448333333, 230.183900557555, 0.000327695583127769, 1.4675,111.532752990723
0.14916662, 230.189025024541, 0.000147251646642333, 1.475,111.532752990723
0.149833828333333, 230.193576613432, 0.000195304732996094, 1.4825,111.684944152832
0.150500488333333, 230.198153319689, 0.000262466859520491, 1.4875,107.225105285645
0.15116799, 230.203406638412, 0.000360546933061512, 1.49375,106.931541442871
0.151834056666667, 230.207618104584, 0.000667929493580109, 1.50125,111.633415222168
0.152500411666667, 230.212377169182, 0.000705684097195757, 1.5075,111.633415222168
0.15316838, 230.217616569993, 0.000907512459554145, 1.51375,129.254913330078
0.153834533333333, 230.222485028283, 0.00112539901533684, 1.52125,107.236473083496
0.154500441666667, 230.227130891454, 0.000931856236784823, 1.5275,107.968162536621
0.155166933333333, 230.232039799196, 0.000603645722453154, 1.535,108.515357971191
0.155833636666667, 230.236911008004, 0.000847746461516204, 1.54125,108.515357971191
0.156499878333333, 230.240980632374, 0.000720800337903536, 1.5475,111.790542602539
0.157166618333333, 230.245427675723, 0.000706989031617878, 1.555,110.307083129883
0.157833698333333, 230.249810640688, 0.000961292258257233, 1.56125,107.926322937012
0.158499968333333, 230.254680972491, 0.000898688402780738, 1.5675,107.517868041992
0.159166423333333, 230.258997162094, 0.00108053176898946, 1.57375,107.517868041992
0.15983467, 230.26420111008, 0.00136228061703553, 1.58,102.087051391602
0.160499846666667, 230.269694300355, 0.00126860282236196, 1.5875,111.815589904785
0.1611668, 230.275054101224, 0.00108777040537107, 1.595,108.835113525391
