Time (min), Depth (µm), Load (N), Position (µm), Acoustic (aJ)
7.36166666666667E-06, 229.277289221608, 0.000810852308149904, 0,102.709777832031
0.000663831666666667, 229.27690405626, 0.000876714000004135, 0,102.709777832031
0.00133205833333333, 229.276707387179, 0.000739793377366966, 0.005,105.264266967773
0.00199687833333333, 229.276634682374, 0.000444167226361498, 0.0125,101.86922454834
0.00266365833333333, 229.276387589457, 0.000652938739972796, 0.02375,109.694145202637
0.003330605, 229.277766675613, 0.000680873336841242, 0.03375,106.998504638672
0.00399686166666667, 229.279036728086, 0.000707009524052624, 0.0375,106.998504638672
0.00466369833333333, 229.281025721337, 0.00109896233665289, 0.04375,134.548706054688
0.00533039166666667, 229.282437427154, 0.00116470253458795, 0.05125,110.233474731445
0.00599683166666667, 229.284262616901, 0.00108758390819566, 0.05875,108.107131958008
0.00666385833333333, 229.285006610352, 0.000997085953830858, 0.065,107.832527160645
0.00733045, 229.286114848272, 0.00101521254330482, 0.07,107.832527160645
0.007997435, 229.287796689185, 0.000500306406490976, 0.0775,110.299575805664
0.00866405666666667, 229.289283734362, 0.00061561461470339, 0.08375,104.251159667969
0.009330525, 229.290482526055, 0.000338896513977267, 0.09125,106.208106994629
0.00999722, 229.292203180735, 0.000359409483644402, 0.1,109.878768920898
0.0106636633333333, 229.293250081754, 0.000239953983819357, 0.105,109.878768920898
0.0113303083333333, 229.29358074028, 0.00023932251551806, 0.1125,111.68480682373
0.0121639883333333, 229.294108595922, 0.000323973763538763, 0.11875,101.847633361816
0.0128303783333333, 229.294690270266, 0.000353022804451371, 0.125,115.981979370117
0.013496815, 229.295370008913, 0.000349111000948797, 0.1325,103.050018310547
0.0141635783333333, 229.295933880961, 0.000273328807391091, 0.14,104.057342529297
0.0148305983333333, 229.296576426166, 0.000217653103923473, 0.14625,104.057342529297
0.0154974066666667, 229.297428073904, -9.57261553582906E-05, 0.1525,108.5439453125
0.016164255, 229.297516788284, 3.2122922915172E-05, 0.1575,106.27360534668
0.0168306983333333, 229.298151240255, -0.00021944894091826, 0.165,104.244590759277
0.0174968166666667, 229.298863532961, -0.000114293722755588, 0.1725,104.187278747559
0.0181649933333333, 229.299833159494, -0.000118471012920046, 0.17875,104.187278747559
0.0188308133333333, 229.300942119591, -0.000187761532512732, 0.18625,102.348106384277
0.0194982933333333, 229.303180471736, -0.000309133936107714, 0.1925,110.516914367676
0.0201650116666667, 229.304769408788, -0.000332765249140574, 0.1975,102.734817504883
0.02083052, 229.306314616474, -0.000654613083069664, 0.20375,123.823059082031
0.0214973516666667, 229.307191705589, -0.00064300216626616, 0.2125,123.823059082031
0.02216384, 229.308688875845, -0.000572249220125249, 0.2175,109.546485900879
0.0228302683333333, 229.309149419881, -0.000710125294756072, 0.22375,106.37264251709
0.0234968683333333, 229.310236694078, -0.000614584593633595, 0.2325,104.652908325195
0.0241637866666667, 229.311915161147, -0.000689042353666921, 0.2375,106.611251831055
0.024830845, 229.313312281358, -0.000861832174647287, 0.24375,106.611251831055
0.025497065, 229.314647267277, -0.000764305573317339, 0.25125,108.805877685547
0.0261640783333333, 229.316680092507, -0.000840914225348765, 0.2575,106.906608581543
0.02683069, 229.318657263328, -0.000907278391963104, 0.265,109.06330871582
0.0274983083333333, 229.320144551742, -0.000648085410940219, 0.27125,110.978507995605
0.02816384, 229.322481148935, -0.000792532655529436, 0.27625,110.978507995605
0.0288302133333333, 229.324814742011, -0.000917777864571253, 0.28375,107.260589599609
0.0294983433333333, 229.326655359276, -0.000946483422731752, 0.29,104.981727600098
0.0301640833333333, 229.328369760727, -0.000928713815265766, 0.29625,106.565925598145
0.030831115, 229.330716571896, -0.000966276428536544, 0.305,108.464942932129
0.0314969016666667, 229.332864437749, -0.00050703099596754, 0.31125,108.464942932129
0.03216391, 229.335158189415, -0.000144296715716192, 0.31625,106.907852172852
0.0328304383333333, 229.338143210682, -0.000274565172455937, 0.3225,111.518905639648
0.0334974566666667, 229.341652163504, -0.000245823616131014, 0.33,108.754623413086
0.0341642983333333, 229.345448672484, -0.000423365198407302, 0.33625,108.341003417969
0.0348306633333333, 229.348581581117, -0.000676310993206659, 0.3425,108.341003417969
0.0354975883333333, 229.352106107487, -0.00101439551156405, 0.34875,105.128318786621
0.0361637516666667, 229.355313807068, -0.000909792265666792, 0.3575,109.961433410645
0.0368317216666667, 229.357944114673, -0.000782910638803463, 0.3625,126.627868652344
0.0374970516666667, 229.359917927195, -0.000391449801492479, 0.36875,107.584403991699
0.0381637583333333, 229.36243484025, -0.000479924357518471, 0.37625,107.584403991699
0.0388303533333333, 229.364358719543, -0.000506647015256544, 0.3825,113.915519714355
0.0394973483333333, 229.367251046014, -0.000695445532113404, 0.3875,108.228218078613
0.0401650566666667, 229.369719076404, -0.000799214819914925, 0.395,106.836921691895
0.0408303483333333, 229.372796433058, -0.000859493792141288, 0.40375,107.601280212402
0.0414969016666667, 229.376088785891, -0.000945566968772583, 0.40875,107.601280212402
0.0421644966666667, 229.379816594438, -0.00109440899262849, 0.41375,100.93839263916
0.04283152, 229.382717802583, -0.000797600901023225, 0.4225,108.983299255371
0.0434973166666667, 229.385463510589, -0.000681626726290748, 0.42875,101.727821350098
0.04416385, 229.388560218354, -0.000594850085008055, 0.435,114.692581176758
0.0448316333333333, 229.391501059485, -0.000342225274073503, 0.44125,114.692581176758
0.0454984733333333, 229.393777391297, -8.18713513499556E-05, 0.44875,110.847862243652
0.0461638283333333, 229.396417105256, -0.000198148510833145, 0.45375,104.888031005859
0.0468308183333333, 229.400033809687, -0.000551203777167434, 0.46,108.641098022461
0.0474970666666667, 229.403231936625, -0.00106920875830851, 0.4675,109.023490905762
0.0481647, 229.406771126518, -0.00141973965148954, 0.475,109.023490905762
0.0488303216666667, 229.410687547166, -0.00145607982615912, 0.48125,98.694450378418
0.0494974816666667, 229.41440689294, -0.00124022416840101, 0.4875,108.410331726074
0.0501642633333333, 229.41710368621, -0.00116992119968734, 0.495,114.326637268066
0.0508309583333333, 229.420473413283, -0.000955349477430958, 0.5025,104.263175964355
0.0514970583333333, 229.42312821876, -0.000733623114517042, 0.5075,104.263175964355
0.0521636483333333, 229.425345860169, -0.000367665496191741, 0.51375,106.91911315918
0.0528307916666667, 229.428125969682, -0.000620711785904862, 0.52125,108.034172058105
0.0534973383333333, 229.431274574454, -0.000520555816607158, 0.5275,136.21728515625
0.0541643416666667, 229.433511324095, -0.000402523745232092, 0.53375,108.261177062988
0.0548310433333333, 229.436378301252, -0.000171119868453045, 0.54125,108.261177062988
0.0554968016666667, 229.43882363054, -0.000436537536790901, 0.5475,122.074272155762
0.05616409, 229.441353160028, -0.000253263242488927, 0.55375,106.39086151123
0.0568309216666667, 229.443843907824, -0.000271532324866214, 0.56125,122.281105041504
0.057497275, 229.446879605051, -0.000467399986689621, 0.5675,106.639953613281
0.0581643933333333, 229.449615495652, -0.000705531025565, 0.57375,106.639953613281
0.0588312566666667, 229.452575376696, -0.00108363053401758, 0.58,103.909423828125
0.05949849, 229.455379967756, -0.00117387500113697, 0.5875,100.935935974121
0.0601649816666667, 229.458487617896, -0.00124220406901713, 0.59375,112.296051025391
0.060830375, 229.461231793327, -0.00125614886857468, 0.6,105.713516235352
0.0614982883333333, 229.464116869331, -0.00148882618140589, 0.6075,105.713516235352
0.0621641983333333, 229.467058016129, -0.00124296753060215, 0.615,106.324020385742
0.062830885, 229.469886053483, -0.00130778677482609, 0.62125,103.342063903809
0.0634969533333333, 229.472645148271, -0.00142612933057388, 0.625,101.846069335938
0.0641644133333333, 229.475171328478, -0.00117627788032855, 0.63375,102.833465576172
0.06483032, 229.478419300294, -0.000777398415643802, 0.64,102.833465576172
0.0654973333333333, 229.480934900637, -0.00076479304881216, 0.64625,106.173645019531
0.06616503, 229.484129440511, -0.00087516050514757, 0.65375,102.606979370117
0.0668320183333333, 229.487259468241, -0.000830804733085463, 0.66125,103.730857849121
0.06749844, 229.490709314612, -0.00116273956034804, 0.66625,113.127510070801
0.068164945, 229.493500736346, -0.00126360499399476, 0.6725,113.127510070801
0.0688303883333333, 229.497568590484, -0.00117658086514302, 0.67875,101.932838439941
0.06949832, 229.50119757084, -0.00103781533519229, 0.6875,107.984664916992
0.0701641766666667, 229.504968855669, -0.000813863084102616, 0.69375,132.170486450195
0.0708305216666667, 229.508115444721, -0.000409381400772762, 0.69875,104.942657470703
0.071497395, 229.511793057807, -0.000548148430647899, 0.70625,104.942657470703
0.07216496, 229.515077099849, -0.000700447780805925, 0.7125,110.655364990234
0.0728307616666667, 229.518048229123, -0.000469943858775103, 0.71875,105.670127868652
0.07349774, 229.521922460112, -0.000491608770553973, 0.7275,108.46605682373
0.0741636433333333, 229.525789720712, -0.000640656284074383, 0.73375,103.522811889648
0.0748308833333333, 229.529810148294, -0.000605205564745966, 0.74,103.522811889648
0.0754974083333333, 229.534111672204, -0.000702174194091632, 0.74625,104.736389160156
0.0761655166666667, 229.538140679871, -0.00095527748099584, 0.7525,112.171348571777
0.076830425, 229.54173353323, -0.000924428530523019, 0.75875,108.146644592285
0.0774970033333333, 229.545395265733, -0.000770426765869739, 0.76625,101.987281799316
0.0781640366666667, 229.549623963159, -0.000998983785685066, 0.7725,101.987281799316
0.0788309016666667, 229.553013642309, -0.000783903588992215, 0.78,106.21923828125
0.0794973666666667, 229.556974886882, -0.000708806861014322, 0.785,109.185562133789
0.0801646416666667, 229.560791847079, -0.000727306931792219, 0.79125,107.627838134766
0.080830725, 229.564988463065, -0.00122245306111689, 0.79875,104.552017211914
0.0814973016666667, 229.568233688318, -0.0011215981269835, 0.805,104.552017211914
0.0821636716666667, 229.572377378634, -0.00100522647217789, 0.81375,97.2320327758789
0.0828303783333333, 229.576147663674, -0.00114241858115331, 0.81875,109.258193969727
0.0834984166666667, 229.580411758963, -0.00152758573458426, 0.825,109.783843994141
0.0841637533333333, 229.584169076539, -0.00127712681487059, 0.83125,110.391151428223
0.0848309683333333, 229.588631871231, -0.00121254305884173, 0.83875,110.391151428223
0.085497465, 229.592744487706, -0.0013010326140905, 0.84625,107.519187927246
0.0861640883333333, 229.597178384309, -0.00120998718723349, 0.8525,104.520919799805
0.086830885, 229.601502804145, -0.00115297805073758, 0.8575,132.229934692383
0.0874968233333333, 229.606950112892, -0.00118500894187397, 0.86375,108.668388366699
0.0881649583333333, 229.611112870877, -0.000798185871561749, 0.8725,108.668388366699
0.0888315933333333, 229.616506085541, -0.000729294331902839, 0.8775,110.685173034668
0.0894969283333333, 229.62129888604, -0.000462556729835067, 0.88375,103.556579589844
0.0901649166666667, 229.626270832766, -0.00023869597415525, 0.8925,107.629699707031
0.09083033, 229.630874113591, -0.000212439792949098, 0.89875,107.676254272461
0.0914968833333333, 229.63625256312, -0.00077958080605437, 0.905,107.676254272461
0.0921639583333333, 229.641256072624, -0.000983575059633636, 0.91125,107.058578491211
0.09283174, 229.64632891795, -0.00158217399264698, 0.91625,106.116348266602
0.0934968516666667, 229.651062712574, -0.00167992858254998, 0.92375,105.981605529785
0.0941635866666667, 229.655644737117, -0.00158943212804582, 0.93,112.762649536133
0.09483043, 229.660514511296, -0.00150083907797072, 0.9375,112.762649536133
0.0954968366666667, 229.665320162297, -0.00157841818126109, 0.945,105.735076904297
0.0961643316666667, 229.670750789468, -0.00113948922819863, 0.95125,112.291397094727
0.0968307566666667, 229.676047909123, -0.00117755431622951, 0.9575,108.500038146973
0.0974969566666667, 229.68196976179, -0.00100178564493794, 0.96375,105.052574157715
0.0981637283333333, 229.687267243022, -0.000714211089510678, 0.97125,105.052574157715
0.0988316316666667, 229.692607951295, -0.000720501773520646, 0.9775,108.962219238281
0.0994968933333333, 229.69825356243, -0.00086209016170841, 0.98375,104.014999389648
0.100164188333333, 229.703629218784, -0.000843804580205195, 0.99,105.800193786621
0.100831293333333, 229.709552409395, -0.000918488828844668, 0.9975,102.631652832031
0.101497478333333, 229.715152409351, -0.00120032767235493, 1.0025,102.631652832031
0.102163761666667, 229.721082629427, -0.00119180660035349, 1.00875,109.79224395752
0.10283033, 229.726682971741, -0.00117695584628634, 1.01625,102.767127990723
0.10349731, 229.732165111354, -0.00124612937175432, 1.02375,125.252388000488
0.104164173333333, 229.737638461428, -0.00148084958204785, 1.03,107.412239074707
0.104831948333333, 229.743538072957, -0.00156643228331426, 1.0375,107.412239074707
0.105497413333333, 229.749501544235, -0.00167553530316518, 1.0425,105.733657836914
0.10616413, 229.755095518168, -0.00180391985455688, 1.04875,106.199996948242
0.106830391666667, 229.76066293599, -0.00173032005138849, 1.05625,108.561256408691
0.107498286666667, 229.766271879916, -0.0020916114040876, 1.06375,111.450012207031
0.108163793333333, 229.772116061871, -0.00224352077387952, 1.07,111.450012207031
0.10883184, 229.777758250756, -0.00219079242237441, 1.07625,110.223045349121
0.109496995, 229.783647129979, -0.00244578711426993, 1.08125,106.426330566406
0.110164055, 229.789702703676, -0.00287256217780989, 1.08875,117.267150878906
0.11083168, 229.79519967876, -0.00247258476822817, 1.09625,110.313163757324
0.111496903333333, 229.800881995053, -0.00238890697123019, 1.10125,110.313163757324
0.112163791666667, 229.805910978274, -0.00195637219700404, 1.10875,102.836822509766
0.112830395, 229.811260042411, -0.00176000806016064, 1.11625,107.694496154785
0.113496875, 229.817232187665, -0.00152634529680521, 1.1225,105.173881530762
0.114163758333333, 229.822934116173, -0.00137827873405707, 1.1275,103.471008300781
0.114830806666667, 229.828673781149, -0.00143630331954402, 1.135,103.471008300781
0.115498311666667, 229.834254744511, -0.00191860859382072, 1.14125,107.430648803711
0.116164268333333, 229.840248657573, -0.00163481984824615, 1.14875,112.374565124512
0.116831583333333, 229.845889603681, -0.00159846617425694, 1.155,102.004806518555
0.117498306666667, 229.852004116607, -0.00187120797473115, 1.1625,105.489608764648
0.118163805, 229.858177454526, -0.00171207046807095, 1.1675,105.489608764648
0.118830971666667, 229.864780752277, -0.0016742243690667, 1.17375,105.79508972168
0.119497425, 229.870350080746, -0.00196293886725298, 1.18125,127.41968536377
0.120163668333333, 229.876028369451, -0.00182318788675677, 1.1875,106.187156677246
0.120831961666667, 229.88155831268, -0.00170328990910524, 1.19375,111.47679901123
0.121497415, 229.887113058192, -0.00180538978074838, 1.20125,111.47679901123
0.1221646, 229.892276573375, -0.001745316298144, 1.2075,110.68009185791
0.12283172, 229.898071663756, -0.00170924311008197, 1.21375,104.837928771973
0.12349682, 229.903517727319, -0.00167145700805385, 1.22,105.35765838623
0.124163643333333, 229.908256493316, -0.00146018362009158, 1.2275,104.83521270752
0.124830871666667, 229.913377909389, -0.00148963314086237, 1.23375,104.83521270752
0.125497333333333, 229.918571609838, -0.00133519189831642, 1.24,109.327659606934
0.126164236666667, 229.923599962509, -0.00111204660661947, 1.24625,103.630592346191
0.12683163, 229.929230153639, -0.00105992872445275, 1.25375,111.665374755859
0.127497536666667, 229.935256204251, -0.00121754980732871, 1.26,104.10489654541
0.128164361666667, 229.940989381762, -0.000865303000332794, 1.26625,104.10489654541
0.128832245, 229.94650781502, -0.000772570158203314, 1.27375,109.804214477539
0.129497403333333, 229.95240831262, -0.00103681188566024, 1.28,111.80347442627
0.130164058333333, 229.958325681039, -0.00100809732795332, 1.28625,107.322555541992
0.130831973333333, 229.963573418354, -0.00081873933923028, 1.2925,107.503730773926
0.131497095, 229.968949094267, -0.000941527671716987, 1.29875,107.503730773926
0.132164046666667, 229.974709996008, -0.000919363284963054, 1.305,108.183151245117
0.132830375, 229.98030942022, -0.000636586988509468, 1.3125,107.706527709961
0.133498455, 229.985553187019, -0.000509066393765335, 1.32,110.417388916016
0.134164935, 229.991627690449, -0.000398689937840996, 1.32625,113.365226745605
0.134832061666667, 229.998185441751, -0.000547287473934159, 1.3325,113.365226745605
0.135497471666667, 230.004068047524, -0.00062644899776752, 1.3375,111.949371337891
0.136164981666667, 230.010200286578, -0.000714149592631398, 1.345,131.650772094727
0.136832061666667, 230.016929034754, -0.000819574797229165, 1.35125,109.386116027832
0.137497421666667, 230.02287605889, -0.00114924773808781, 1.35875,100.623718261719
0.138165101666667, 230.028597038658, -0.000867797375040494, 1.36625,100.623718261719
0.138830748333333, 230.035366043927, -0.000788695848183263, 1.3725,108.828636169434
0.13949706, 230.041581551622, -0.000651602734260973, 1.37875,107.549865722656
0.140164948333333, 230.047984259062, -0.00103536745816234, 1.385,107.680000305176
0.140830858333333, 230.054318447493, -0.00102480948848121, 1.3925,113.544502258301
0.141496925, 230.060712470409, -0.00120246806488221, 1.39875,113.544502258301
0.14216421, 230.066757430444, -0.0011760438921854, 1.405,108.501861572266
0.14283079, 230.072918750636, -0.00128057064189558, 1.4125,112.070129394531
0.143496858333333, 230.078318856855, -0.00104900177336841, 1.42125,104.288383483887
0.144163733333333, 230.084438923288, -0.00111169712425476, 1.425,109.218238830566
0.144832046666667, 230.090425778034, -0.0016708180401943, 1.43125,109.218238830566
0.145497175, 230.096485293658, -0.00180017304282368, 1.43875,110.229560852051
0.14616369, 230.101939464811, -0.00204306334270202, 1.445,106.524803161621
0.146830808333333, 230.107939084223, -0.00195551424018161, 1.45125,105.736808776855
0.14749693, 230.114010879895, -0.0019995685273749, 1.4575,107.717353820801
0.148165466666667, 230.120096087854, -0.00171767868639242, 1.465,107.717353820801
0.148831095, 230.126173606347, -0.00174180647450903, 1.4725,110.022918701172
0.149497563333333, 230.132444753561, -0.00193183792941665, 1.4775,108.423942565918
0.150163856666667, 230.138751999949, -0.00203547072405497, 1.485,102.82341003418
0.150830211666667, 230.144486637831, -0.00203345332541378, 1.49125,108.927833557129
0.151496855, 230.149418401638, -0.00188171944681954, 1.4975,108.927833557129
0.152164986666667, 230.154848922877, -0.00159296895044758, 1.50375,108.339050292969
0.152830775, 230.160360933088, -0.0014838854296139, 1.5125,125.601249694824
0.153498308333333, 230.165519709938, -0.00127718231209476, 1.5175,103.917404174805
0.154164985, 230.171593005701, -0.00127358699268378, 1.52375,110.302139282227
0.154830868333333, 230.178003736821, -0.00137846022499488, 1.53125,110.302139282227
0.1554969, 230.183843274803, -0.0016139528964411, 1.53875,105.797813415527
0.156163836666667, 230.189857718076, -0.00132857723057159, 1.545,107.847412109375
0.156830921666667, 230.196205180465, -0.00154688826502417, 1.5525,107.995162963867
0.157497296666667, 230.202336798011, -0.00135272301773853, 1.5575,106.601898193359
0.158163655, 230.207588632929, -0.00107879027709684, 1.56375,106.601898193359
0.158830306666667, 230.213975140812, -0.000929222289723487, 1.57,105.207122802734
0.15949835, 230.220237559644, -0.00129195656995358, 1.5775,106.23998260498
