Time (min), Depth (µm), Load (N), Position (µm), Acoustic (aJ)
7.32833333333333E-06, 229.444465884747, -2.27827276189126E-05, 0,107.349922180176
0.000665781666666667, 229.444762252436, -4.80939562597245E-05, 0.00125,104.723350524902
0.00133260666666667, 229.444655303402, -7.74114836617691E-05, 0.00375,111.04035949707
0.001999185, 229.444891231801, 2.7548744307225E-05, 0.01625,113.404808044434
0.00283230666666667, 229.445389829794, -2.92939005586679E-05, 0.02625,109.896064758301
0.00349908333333333, 229.447432373723, 7.39489136710386E-05, 0.03375,104.70817565918
0.00416575666666667, 229.448991176062, 5.66772812132051E-05, 0.04,104.70817565918
0.004832655, 229.451688449387, 0.000100158597199435, 0.04625,107.44278717041
0.005500525, 229.453702687174, 0.000454299809056732, 0.055,105.731063842773
0.00633236, 229.456079059273, 0.00042292738483965, 0.06125,101.911582946777
0.00699924166666667, 229.457414059502, 0.000297707674491434, 0.0675,107.732353210449
0.00766600333333333, 229.459005838618, 0.00074032344235347, 0.075,108.50269317627
0.00833246, 229.460459398796, 0.000752016854999153, 0.08125,108.50269317627
0.00899927333333333, 229.461719076739, 0.000560506474353612, 0.08875,107.548889160156
0.00983249, 229.463520068427, 0.00072841254064806, 0.095,113.495880126953
0.0104993716666667, 229.464814932054, 0.000343071395922564, 0.1025,107.204902648926
0.01116577, 229.465953268439, 0.000156336775405906, 0.11,110.797904968262
0.011832405, 229.467410134437, 0.000424974781990163, 0.11625,110.098129272461
0.0124993866666667, 229.468805319353, 0.00040795213698327, 0.1225,110.098129272461
0.0131657083333333, 229.47031683119, 0.000395235775703278, 0.13,107.860008239746
0.013832735, 229.4720827304, 0.000490214005047009, 0.135,104.457710266113
0.0144990666666667, 229.473807154887, 0.000507100156911951, 0.14125,112.675399780273
0.0151656316666667, 229.475380742052, 0.000247437699508339, 0.15,107.414009094238
0.01583229, 229.477605146141, -0.000111351778839802, 0.155,107.414009094238
0.0166656466666667, 229.479682965082, -0.00038028377067086, 0.1625,110.813194274902
0.0173323216666667, 229.482111461379, -0.00034195169607494, 0.17,101.73624420166
0.0179992316666667, 229.484063523159, -0.000566917896231245, 0.1775,104.485420227051
0.0186656233333333, 229.486135744871, -0.000223801130629508, 0.18375,108.094703674316
0.019332435, 229.488655236334, 0.000173810897700687, 0.19125,108.094703674316
0.0199991433333333, 229.491030244365, 0.000161066037878288, 0.1975,112.074035644531
0.02066578, 229.493052054318, 0.00026400886716358, 0.2025,108.660675048828
0.0213325883333333, 229.495704704762, 0.00048088447372845, 0.20875,108.558624267578
0.0219991983333333, 229.498175640612, 0.000371331476450279, 0.21625,107.65796661377
0.0226660616666667, 229.500281089084, 0.000168211678946891, 0.22375,107.65796661377
0.0233322566666667, 229.502621206061, 0.000614698752352612, 0.23,114.587921142578
0.02399927, 229.505556009088, 0.000723647280011254, 0.23625,122.236907958984
0.0246656266666667, 229.508495202888, 0.00055559122127648, 0.2425,110.959213256836
0.0253323416666667, 229.511747013729, 0.000642691846294039, 0.24875,108.090721130371
0.0259990866666667, 229.514899299214, 0.000596087687168874, 0.25625,109.279457092285
0.0268326616666667, 229.51920335371, 0.000399075582877003, 0.265,104.940711975098
0.0274991133333333, 229.522563501892, 6.38154226597927E-05, 0.27125,104.940711975098
0.0281656583333333, 229.52634499935, 0.000103441932249519, 0.27625,109.646743774414
0.02883247, 229.529430861565, 1.44124040880503E-05, 0.28375,108.346473693848
0.029499105, 229.53304020929, 0.000134778358238414, 0.29,111.052787780762
0.0301655783333333, 229.536576662181, 1.96666401865887E-05, 0.29625,113.773902893066
0.03083249, 229.539947124368, 2.2748985366636E-05, 0.30375,113.773902893066
0.03149927, 229.54256880138, 0.000159867598046289, 0.31125,117.009185791016
0.032165675, 229.546354546136, 0.000108636171350673, 0.3175,106.884887695313
0.03283243, 229.549698898881, 4.15145427851635E-05, 0.32375,108.748413085938
0.0334989433333333, 229.552551923956, 0.000315552278156329, 0.32875,105.465827941895
0.0341657866666667, 229.554866104587, 0.000337113695151373, 0.33625,105.465827941895
0.0348325233333333, 229.557471872819, 6.00281128826896E-05, 0.3425,107.095733642578
0.0354993066666667, 229.559655549696, 0.000135646814637933, 0.34875,113.747611999512
0.0361656583333333, 229.562029424896, -3.54015937489305E-05, 0.35625,107.073570251465
0.0368326, 229.565514791756, -0.000483898566195082, 0.3625,107.073570251465
0.0374989533333333, 229.56914445396, -0.00065688487725102, 0.36875,109.179664611816
0.0381656533333333, 229.57232566799, -0.000403424608317584, 0.37625,112.803192138672
0.0388327683333333, 229.575562544314, -0.000441812180158932, 0.3825,107.194114685059
0.0394989666666667, 229.578670973182, -0.000441608190461343, 0.38875,126.538650512695
0.0401658883333333, 229.581196484502, -0.000480330245508379, 0.39625,126.538650512695
0.0408323, 229.583912273044, -0.000162682200652304, 0.4025,112.55451965332
0.041499, 229.587178162975, -0.000215581543539393, 0.40875,108.416358947754
0.042165755, 229.590542698589, -0.000354186581600232, 0.415,108.338279724121
0.042832445, 229.593856326727, -0.000106324031432426, 0.4225,104.831176757813
0.0434991916666667, 229.59719566043, -0.000190508802921207, 0.43,109.851089477539
0.04433249, 229.600855369883, -0.000132662708459502, 0.4375,108.347099304199
0.045000525, 229.603502689909, -0.000293162146754163, 0.44375,108.347099304199
0.045667125, 229.606409917698, -0.000256940466112439, 0.45,106.234565734863
0.0463337216666667, 229.609684220102, -0.000331003745985201, 0.45625,111.839050292969
0.0470005733333333, 229.612850011972, -6.50911024879995E-05, 0.46375,107.268028259277
0.047833935, 229.617900887359, -0.00031049227624247, 0.47125,104.79475402832
0.0484989916666667, 229.621987588664, -0.00026618900155573, 0.4775,112.045288085938
0.049165605, 229.625871900749, -0.000151918741221657, 0.485,112.045288085938
0.0498325366666667, 229.629570576305, -0.00028120174745843, 0.49125,110.251182556152
0.0504994216666667, 229.633271677316, -0.000326746959784862, 0.4975,106.042488098145
0.0511657566666667, 229.636742179386, -2.1204806849128E-05, 0.505,106.099388122559
0.051832365, 229.63990986617, 0.000282007963127027, 0.51125,111.839469909668
0.052499085, 229.643709073978, 0.00011643877949919, 0.5175,111.839469909668
0.0531656033333333, 229.646726938621, 0.000123630918245549, 0.52375,109.417938232422
0.05383266, 229.649843760235, 2.91146657242919E-05, 0.53125,104.43327331543
0.0544992666666667, 229.653044131899, -0.000382718148359921, 0.5375,110.486938476563
0.0551658583333333, 229.656322050707, -0.000395927984874855, 0.54375,106.36833190918
0.055833915, 229.658718223286, -6.45886277066376E-05, 0.5525,106.36833190918
0.0564993466666667, 229.661544200771, -0.000133772652666692, 0.55875,126.614875793457
0.05716559, 229.664916867097, -0.000158486911309991, 0.56375,112.140045166016
0.057832525, 229.667506547316, -9.37456631762796E-05, 0.57,104.085289001465
0.0584989816666667, 229.670166713959, -0.000220151813918759, 0.5775,99.7605590820313
0.05916568, 229.673119209454, -0.000330613765534083, 0.58375,99.7605590820313
0.0598324033333333, 229.67622007728, -0.000120300329381187, 0.59,101.795188903809
0.06049937, 229.67876793205, 0.000254898324807897, 0.59625,106.897689819336
0.06116708, 229.681987563301, 0.000350565019558994, 0.60375,110.930099487305
0.0618322833333333, 229.685342755793, 8.35364321357365E-05, 0.61,110.843894958496
0.0624991516666667, 229.688280731503, 0.000225295811705471, 0.6175,110.843894958496
0.06316743, 229.690913373617, 0.000253227408746365, 0.625,116.37865447998
0.063832405, 229.694314218524, 0.000133174938860044, 0.63,111.486785888672
0.0644990866666667, 229.696950648811, 0.000208109674938623, 0.63625,109.196151733398
0.0651670716666667, 229.69951714237, 0.000451664441433872, 0.6425,107.290489196777
0.0658341483333333, 229.703094830062, 0.000405562757090069, 0.65125,107.290489196777
0.0664993333333333, 229.706063463479, 0.000405612254574122, 0.6575,103.326568603516
0.06716767, 229.709011827663, 0.000458025621912047, 0.6625,109.450271606445
0.0678326766666667, 229.712333876158, 0.000185990285980551, 0.66875,104.299301147461
0.0684990066666667, 229.715787602998, -3.90404109463487E-05, 0.67625,104.456245422363
0.0691674216666667, 229.718469905738, 3.93471517036446E-05, 0.6825,104.456245422363
0.0698341166666667, 229.721044660923, 0.000123179440915152, 0.69,110.276924133301
0.07049925, 229.724393002621, 1.50483722263186E-05, 0.6975,101.645393371582
0.0711656233333333, 229.726826464116, 0.000368076640006366, 0.7025,107.029876708984
0.0718322933333333, 229.728921959875, 0.00041537376433336, 0.70875,104.679733276367
0.0724997116666667, 229.731930180533, 0.000350968499372249, 0.7175,104.679733276367
0.07316705, 229.735118809439, 2.84411995609586E-05, 0.72375,127.570770263672
0.0738327766666667, 229.737487765934, 0.000243882878141265, 0.73,108.942665100098
0.0744991316666667, 229.740433318588, -6.55654255516608E-06, 0.7375,102.871406555176
0.0751656166666667, 229.743704283725, 0.000183725399770312, 0.7425,106.21907043457
0.0758327233333333, 229.746432487328, 0.00030510980276052, 0.74875,106.21907043457
0.0764992983333333, 229.749300612885, 0.000730516935010913, 0.755,103.47013092041
0.0771657983333333, 229.752808026942, 0.000739238996946152, 0.7625,105.010459899902
0.077832615, 229.756074179311, 0.00101793099850577, 0.77,102.338157653809
0.0784997316666667, 229.759013267564, 0.000899736935273901, 0.77625,106.525856018066
0.079165585, 229.762437618947, 0.000553833309642067, 0.7825,106.525856018066
0.0798322116666667, 229.765737989953, 0.000193216923030693, 0.79,105.943954467773
0.0804990833333333, 229.768622497822, 0.000141886501324461, 0.795,110.169548034668
0.0811657466666667, 229.771988435458, -0.000189280364494874, 0.80125,104.300918579102
0.08183232, 229.775117663872, -0.00026146873858726, 0.81,108.94718170166
0.0824994683333333, 229.778303682424, -0.000128741905325493, 0.81625,108.94718170166
0.0831655983333333, 229.7818758317, -0.000125052090655856, 0.8225,102.659927368164
0.0838325133333333, 229.785380307214, -0.000151003787144383, 0.8275,105.887855529785
0.08449916, 229.788667968131, -3.82019530561489E-05, 0.83375,105.847343444824
0.0851657166666667, 229.792242241698, 0.000177140730534797, 0.84125,100.97144317627
0.0858340983333333, 229.795746334556, 0.00025403886801856, 0.84875,100.97144317627
0.0864990983333333, 229.799871154975, 0.000272159457837416, 0.855,109.68187713623
0.0871656366666667, 229.80334581882, 0.000504434790886043, 0.8625,110.765838623047
0.0878326216666667, 229.807557732588, 0.000527077653524615, 0.86875,105.477508544922
0.088498985, 229.811750074747, 0.000243413401675521, 0.87375,110.383598327637
0.08916559, 229.815500400073, 0.000170053586475412, 0.88125,110.383598327637
0.0898322233333333, 229.818816057099, 0.000212799939355266, 0.88875,125.348197937012
0.0904992516666667, 229.822652386036, -0.0002151105671705, 0.895,111.398918151855
0.0911675066666667, 229.826766971271, -0.000385816992729658, 0.90125,103.693733215332
0.0918324016666667, 229.830020362874, -0.000274785069734825, 0.9075,111.834129333496
0.09249917, 229.833926168355, -0.000298632371924262, 0.91375,111.834129333496
0.093165975, 229.837918613131, -0.000382530657809514, 0.92,106.678146362305
0.0938344533333333, 229.841350774449, -0.000149625356383994, 0.92625,107.82975769043
0.094500695, 229.844797878637, 0.00034091450426936, 0.935,105.214172363281
0.0951672016666667, 229.849058168433, 0.000660464453630085, 0.94125,106.096855163574
0.095832395, 229.853404428548, 0.00093928094897894, 0.9475,106.096855163574
0.0964993916666667, 229.857931363288, 0.000843647252564714, 0.955,106.969390869141
0.0971664633333333, 229.862528098539, 0.000957131552383956, 0.96125,105.627555847168
0.09783246, 229.867345338428, 0.000801896849637402, 0.9675,107.676719665527
0.0984992, 229.872293034209, 0.000627010133979962, 0.97375,103.309326171875
0.0991655783333333, 229.876893535636, 0.000592097887576077, 0.98125,103.309326171875
0.0998328266666667, 229.881758492231, 0.000794800706031597, 0.9875,107.896034240723
0.100499113333333, 229.886466100391, 0.000635126226286253, 0.99375,107.320304870605
0.101165668333333, 229.891279684085, 0.00044339685669909, 1,108.264030456543
0.10183251, 229.896119091725, 0.000451175465993393, 1.0075,104.828910827637
0.102499008333333, 229.901172088558, 0.000217719692226862, 1.0125,104.828910827637
0.103166028333333, 229.906190897107, 4.68872729540675E-05, 1.02,101.310836791992
0.103832533333333, 229.911286510266, -0.000237550940014632, 1.0275,101.787208557129
0.104498895, 229.916262954666, -1.0265856305808E-05, 1.0325,103.176933288574
0.105166945, 229.920900275577, 0.000160821550136794, 1.03875,104.006988525391
0.105832828333333, 229.925717266908, 0.000278504139040885, 1.0475,104.006988525391
0.106499236666667, 229.931282722378, -3.80609602047509E-05, 1.05375,131.338150024414
0.107165708333333, 229.93664150682, 0.000337790161184767, 1.06,114.881416320801
0.10783419, 229.941914872128, 1.45293982340127E-05, 1.065,108.476997375488
0.108498983333333, 229.947893327107, -0.000312995650496589, 1.0725,110.250511169434
0.109165616666667, 229.952630505016, -0.000287292941522764, 1.07875,110.250511169434
0.10983253, 229.957349885374, 4.89331701801768E-05, 1.08625,111.95524597168
0.110499085, 229.962574894745, -0.000287012455659355, 1.0925,105.449691772461
0.111167506666667, 229.967850303342, -0.000286427485078323, 1.09875,108.204734802246
0.111832416666667, 229.972888221099, -0.00031003929909394, 1.105,108.204734802246
0.112498943333333, 229.978752868284, -0.000636956878356206, 1.1125,106.536109924316
0.113165683333333, 229.984394442298, -0.000565936945565244, 1.11875,108.8046875
0.11383369, 229.989635575782, -0.000207969425917614, 1.125,106.641326904297
0.114498891666667, 229.994755527791, -0.000236030016435933, 1.13125,106.288192749023
0.115167438333333, 229.999991917129, -0.000318963850759857, 1.1375,107.911674499512
0.115832705, 230.005128661178, -7.09138100628972E-05, 1.14625,107.911674499512
0.116498923333333, 230.010124681764, -0.000330091791884258, 1.1525,106.090026855469
0.1171671, 230.015714905985, -0.000354467067484896, 1.1575,108.190811157227
0.117834073333333, 230.020747881273, -7.31486978275793E-05, 1.16375,110.293548583984
0.118498965, 230.02582731792, 0.000201712496189753, 1.1725,106.312805175781
0.119165766666667, 230.031139316945, 0.000311940459534407, 1.17875,106.312805175781
0.119832508333333, 230.036621096571, 0.000296992210381048, 1.18375,107.510391235352
0.120499145, 230.041745272707, 0.000295961762124723, 1.19125,104.425651550293
0.12116562, 230.046943584691, 0.000197890688151375, 1.1975,109.719261169434
0.121832605, 230.05275936835, 0.000203128425060224, 1.20375,136.114898681641
0.122499146666667, 230.058444315167, 8.61519527051622E-06, 1.21125,136.114898681641
0.123165678333333, 230.063344805528, 0.000361340478257343, 1.2175,105.211547851563
0.123833705, 230.068853272243, 0.000368232632080542, 1.22375,112.4755859375
0.124499136666667, 230.074542340506, 0.000100485580740599, 1.23,102.203659057617
0.125165566666667, 230.080003722512, 0.000136597766858377, 1.2375,109.067169189453
0.125832785, 230.084830891938, 0.000517118153722892, 1.24375,109.067169189453
0.126499036666667, 230.090496069463, 0.000864566701745132, 1.25,107.531433105469
0.12716592, 230.095836423003, 0.0010318068014345, 1.25625,113.062637329102
0.127832435, 230.100720896711, 0.00165640392857161, 1.26375,105.360275268555
0.128499503333333, 230.10573607642, 0.00183610390240426, 1.27,111.476379394531
0.129165896666667, 230.110838087489, 0.00211021513402867, 1.27625,111.476379394531
0.12983442, 230.114533893986, 0.00203266152947441, 1.2825,104.168312072754
0.130499581666667, 230.119165297811, 0.00272727063999096, 1.29,105.238006591797
0.131165561666667, 230.123462046432, 0.00307096787642177, 1.295,104.308097839355
0.131832461666667, 230.12766913058, 0.00343023283093327, 1.3025,104.919044494629
0.132499336666667, 230.132069875596, 0.00374657294151842, 1.31,104.919044494629
0.133166016666667, 230.137376786887, 0.00467210445303806, 1.31625,108.916603088379
0.133832901666667, 230.14147538058, 0.00500804107928866, 1.32125,107.978332519531
0.134498933333333, 230.14689259198, 0.00553782496880891, 1.32875,105.029502868652
0.135165798333333, 230.152257014814, 0.00609006273047167, 1.33625,103.709693908691
0.135834158333333, 230.158310959438, 0.00674035206711178, 1.3425,103.709693908691
0.136499596666667, 230.162746888173, 0.00711721713758919, 1.3475,105.753456115723
0.13716556, 230.168965843965, 0.00725915350825976, 1.35625,105.926498413086
0.137832526666667, 230.174074521095, 0.0074896244319112, 1.3625,105.525001525879
0.138500018333333, 230.178305426188, 0.00815397706220049, 1.36875,122.773773193359
0.139165653333333, 230.182270865439, 0.0089601775675993, 1.375,122.773773193359
0.139832488333333, 230.186937558814, 0.00961511817064282, 1.3825,105.497360229492
0.140499386666667, 230.190157149091, 0.0106202146856816, 1.3875,104.544860839844
0.141165916666667, 230.194369434767, 0.0116347082287645, 1.3925,108.67472076416
0.141832261666667, 230.198344576198, 0.0125117366765031, 1.3925,106.187316894531
0.142499506666667, 230.201685528873, 0.0129432830003775, 1.395,106.187316894531
0.143165911666667, 230.204667580907, 0.0131211845645744, 1.39625,101.900581359863
0.143832311666667, 230.207152891699, 0.0135749927702676, 1.3975,107.602745056152
0.144499188333333, 230.208829063398, 0.0138891039927857, 1.39875,104.623558044434
0.145165896666667, 230.209610994914, 0.0139528087929442, 1.4025,109.37215423584
0.145832465, 230.211783606808, 0.0142004118561052, 1.4075,109.37215423584
0.146499298333333, 230.214065539783, 0.0144990003583172, 1.41625,111.349090576172
0.147165603333333, 230.215733213832, 0.015002711057451, 1.41875,108.937080383301
0.147832506666667, 230.218220410763, 0.0155510400154813, 1.4225,115.078483581543
0.148499133333333, 230.221910373566, 0.0161903994011245, 1.42875,106.576446533203
0.149165691666667, 230.224942058443, 0.0166722501982433, 1.43625,106.576446533203
0.149832738333333, 230.22855776028, 0.0175156353358569, 1.44375,107.735221862793
0.150500913333333, 230.233265752518, 0.0181199204832395, 1.45125,107.569786071777
0.151167185, 230.238040971691, 0.0185947516329395, 1.46,102.337219238281
0.151834423333333, 230.242126651295, 0.0195743974263466, 1.46875,106.225288391113
0.152501091666667, 230.247576218464, 0.0206328822597767, 1.47875,106.225288391113
0.15316712, 230.253455861775, 0.0215101956932795, 1.48875,109.07935333252
0.153834013333333, 230.259031834357, 0.0227874985356742, 1.49875,105.414695739746
0.154499023333333, 230.26491194896, 0.0242679481742328, 1.51,107.416404724121
0.155165666666667, 230.273007967807, 0.025341520749807, 1.52125,127.294769287109
0.155832468333333, 230.279902129385, 0.0262213405573702, 1.53375,127.294769287109
0.15649931, 230.287089921284, 0.0276627306578485, 1.545,110.158729553223
0.157167076666667, 230.294488159574, 0.0292900784178326, 1.5575,105.414405822754
0.157832333333333, 230.302669573775, 0.030235728418795, 1.57125,107.064315795898
0.158498888333333, 230.309195103132, 0.0320437406042368, 1.585,102.61506652832
0.15916572, 230.316866702342, 0.0339869185004664, 1.59875,102.61506652832
0.159832483333333, 230.325643828509, 0.0359228652598726, 1.6125,102.926086425781
0.160499371666667, 230.334026506537, 0.0374223369429652, 1.62625,108.295799255371
0.16116555, 230.343286816119, 0.0397962692028355, 1.64125,100.249053955078
0.161832446666667, 230.353338799389, 0.0415087316876084, 1.65625,107.865226745605
0.162499136666667, 230.362759640454, 0.0438154478236545, 1.67125,107.865226745605
