Time (min), Depth (µm), Load (N), Position (µm), Acoustic (aJ)
7.81833333333333E-06, 229.380314489282, -0.000966690595281948, 0,106.82886505127
0.000666901666666667, 229.380656589491, -0.00130705049936291, 0.00125,102.038040161133
0.001333045, 229.380281456067, -0.00117486363895008, 0.005,101.228149414063
0.00199957333333333, 229.38087701784, -0.00119199427847149, 0.01375,105.510208129883
0.00266648833333333, 229.380848970241, -0.00120480213514008, 0.0275,105.510208129883
0.00333283, 229.382090533915, -0.00103314775718803, 0.0325,111.599319458008
0.00399968166666667, 229.383742256622, -0.000888388528280432, 0.0375,107.656684875488
0.00466626666666667, 229.38590116448, -0.00108407019941407, 0.04375,122.077796936035
0.005332905, 229.387638837838, -0.00129247573144972, 0.0525,110.918502807617
0.005999635, 229.390013941849, -0.00151505705140102, 0.05875,110.918502807617
0.00666629833333333, 229.391690694332, -0.00155253416895956, 0.06375,114.364234924316
0.00733336, 229.393323604726, -0.00148861937934207, 0.07125,106.857070922852
0.00799965666666667, 229.395359888166, -0.00110250427349697, 0.07875,107.734252929688
0.008666485, 229.397855437577, -0.001075919608804, 0.085,104.816055297852
0.00933321666666667, 229.399002875889, -0.00115518612732433, 0.09125,104.816055297852
0.00999952833333333, 229.40089369406, -0.000992733787159074, 0.09875,106.196212768555
0.0106664566666667, 229.402013413449, -0.00103856698501344, 0.105,106.20337677002
0.0113332266666667, 229.402746202609, -0.000938151528772719, 0.11125,113.164329528809
0.011999575, 229.403457846363, -0.000556924677429252, 0.1175,106.583686828613
0.0126662733333333, 229.404921716707, -0.000487617658646877, 0.12375,106.583686828613
0.013332815, 229.406321454699, -0.000489414568358283, 0.13,106.970268249512
0.01400138, 229.407889165747, -0.000540043025316266, 0.1375,104.531623840332
0.0146667883333333, 229.409654667567, -0.00071804508446937, 0.14375,117.003707885742
0.015333455, 229.411616205083, -0.000950615902710455, 0.15125,105.099830627441
0.01599954, 229.412477955323, -0.000636084701274448, 0.1575,105.099830627441
0.016666485, 229.413634415311, -0.000697295126746521, 0.16375,106.768974304199
0.0173328683333333, 229.415242505414, -0.000498873093303047, 0.17,111.695236206055
0.0179994833333333, 229.41668237907, -0.000227026747846361, 0.17625,106.072662353516
0.0186661316666667, 229.419065548638, -5.86587047719471E-05, 0.18375,104.658355712891
0.0193332916666667, 229.422223088537, -8.2991982531802E-05, 0.19125,104.658355712891
0.019999485, 229.424720272701, 2.01188383079096E-05, 0.1975,106.896858215332
0.0206665266666667, 229.427036988869, 0.000261345721746728, 0.2025,137.788467407227
0.0213335, 229.429297391222, 7.40081315136895E-05, 0.20875,106.529861450195
0.0219994216666667, 229.431583639581, 0.00028588748901989, 0.21625,110.362770080566
0.0226667183333333, 229.433706710737, -0.000137482745529559, 0.22375,110.362770080566
0.0233329133333333, 229.436446767631, -0.000155964817214617, 0.22875,108.493522644043
0.02399947, 229.439992124228, -0.000346186762585218, 0.23625,104.179618835449
0.0246666516666667, 229.442888259016, -0.000414163348209363, 0.2425,105.571166992188
0.025333825, 229.445204658998, -0.000830834919226141, 0.24875,112.42170715332
0.0260003783333333, 229.447919761755, -0.000585852224465196, 0.255,112.42170715332
0.0266662966666667, 229.449934539835, -0.000413818365532851, 0.2625,108.342681884766
0.0273342833333333, 229.452145226999, -0.000344914826436206, 0.27,112.2119140625
0.0279995416666667, 229.455062947863, -0.000282382967352322, 0.27625,112.841598510742
0.0286664433333333, 229.458186281084, 1.74774709449283E-05, 0.2825,104.090316772461
0.0293341033333333, 229.461291872943, 9.59385299544435E-05, 0.28875,104.090316772461
0.0300012866666667, 229.464691959149, -0.00016641629228437, 0.295,105.73371887207
0.0306663266666667, 229.468408683894, -0.000509228573168483, 0.30125,110.537780761719
0.0313328116666667, 229.471315082152, -0.000492556910556969, 0.30875,112.293357849121
0.0319995116666667, 229.474294542132, -0.000821049410718959, 0.31625,113.579940795898
0.0326667583333333, 229.477818179555, -0.00089693059928728, 0.3225,113.579940795898
0.033332995, 229.480945362922, -0.000836545132385778, 0.3275,107.318054199219
0.0339995033333333, 229.483746336282, -0.000656920154773299, 0.335,103.474578857422
0.034666815, 229.487283043846, -0.000823321796593722, 0.34125,104.838279724121
0.0353333733333333, 229.490580200516, -0.000225900304449482, 0.3475,107.742202758789
0.0360009316666667, 229.493861009603, -0.000405286794039334, 0.35375,107.742202758789
0.0366662983333333, 229.496857361565, -0.000313500404378342, 0.36125,107.681533813477
0.0373328783333333, 229.500706989083, -9.64028089592811E-05, 0.3675,133.467300415039
0.037999475, 229.503718717609, 0.000123258157711283, 0.37375,106.341957092285
0.0386667883333333, 229.506713524244, -8.71632730624096E-05, 0.38125,105.768981933594
0.0393328183333333, 229.509759703288, 0.000146323999137844, 0.3875,105.768981933594
0.03999964, 229.513065822894, 0.000388428338501347, 0.39375,112.798095703125
0.040667225, 229.516448237347, 0.000274246573728321, 0.4,110.861968994141
0.04133299, 229.519950289087, 0.000108663890759601, 0.4075,107.799613952637
0.0420003483333333, 229.523414863921, 0.000220757760401973, 0.41375,104.135932922363
0.04266663, 229.526350159636, 0.000386452937679683, 0.42,104.135932922363
0.0433346833333333, 229.529619233243, 0.000207129444957276, 0.4275,108.335571289063
0.04399983, 229.532282011752, 0.000259176830677043, 0.43375,114.107711791992
0.0446663416666667, 229.535485047095, 0.000587627332955742, 0.44,112.428466796875
0.045334275, 229.538325686614, 0.000383741073976019, 0.4475,112.428466796875
0.0459995633333333, 229.542377879237, 0.000207972402641939, 0.45375,108.399543762207
0.046666345, 229.546393103001, -2.98946495384668E-05, 0.45875,110.508865356445
0.0473347033333333, 229.550193496839, -0.000394284846607315, 0.46625,107.108337402344
0.0479999366666667, 229.554304683088, -0.000705742702409694, 0.4725,107.54093170166
0.048666635, 229.558716814947, -0.00103604411172082, 0.48,107.940856933594
0.0493335683333333, 229.56213968305, -0.000830011460516211, 0.48625,107.940856933594
0.0500009333333333, 229.565162556746, -0.000769126518724662, 0.4925,107.172996520996
0.0506662866666667, 229.568418376378, -0.000387050709998919, 0.5,101.26375579834
0.0513330016666667, 229.571550830982, -0.00018732824184277, 0.50625,106.025329589844
0.0520012833333333, 229.57414430793, 7.28621890783137E-05, 0.5125,106.893112182617
0.0526667766666667, 229.577430057122, 0.000105116568972036, 0.52,106.893112182617
0.0533334916666667, 229.581364934437, 0.000275864992499501, 0.52625,107.103073120117
0.053999495, 229.584486143032, -6.08455948707084E-05, 0.5325,130.079376220703
0.0546663566666667, 229.588079698756, -8.14110170882748E-07, 0.53875,106.730201721191
0.0553336866666667, 229.591338897983, -3.80932376869363E-05, 0.54625,104.945068359375
0.05600012, 229.595191996761, -0.000128489197192313, 0.5525,104.945068359375
0.0566663866666667, 229.597907862742, -0.000181229548113911, 0.55875,107.04810333252
0.0573329816666667, 229.601247324923, -0.00022700424891655, 0.56625,106.027801513672
0.0580004, 229.604413164688, -7.03026199123228E-05, 0.5725,109.329360961914
0.0586665266666667, 229.60734391321, 8.2830724197137E-07, 0.57875,105.725112915039
0.0593329516666667, 229.609839603704, -4.7458767339952E-05, 0.58625,105.725112915039
0.059999645, 229.613104092054, -0.000104893882430148, 0.59375,109.950126647949
0.0606665166666667, 229.616217400282, -0.00019781421513129, 0.59875,107.73853302002
0.061333005, 229.6187803115, -0.000475055789537912, 0.605,106.032943725586
0.0620013133333333, 229.622143683151, -0.000249392124427822, 0.6125,107.43904876709
0.0626665033333333, 229.624672002928, -0.000304512855759963, 0.62,107.43904876709
0.06333288, 229.627839542071, -0.000179668126618833, 0.625,105.669441223145
0.06399986, 229.630605286355, 0.000284701048604372, 0.6325,109.386405944824
0.0646663483333333, 229.633766127961, 0.000421048699991972, 0.6375,105.895500183105
0.0653328983333333, 229.636789885678, 0.000122448198384745, 0.645,107.326774597168
0.06599944, 229.640361982195, 4.37712897519413E-06, 0.65125,107.326774597168
0.0666664683333333, 229.643143140064, -0.000240760058041794, 0.6575,107.863121032715
0.0673328283333333, 229.645696423676, -0.000302936434978344, 0.665,109.770088195801
0.067999505, 229.64803032487, -8.2075528593887E-05, 0.6725,110.27173614502
0.0686676033333333, 229.651266944891, -9.14740564987578E-05, 0.6775,110.386505126953
0.0693330383333333, 229.653769192598, -0.000102365009439919, 0.685,110.386505126953
0.0700004216666667, 229.656762536094, 8.13637620412577E-05, 0.69125,107.811828613281
0.07066612, 229.660030439229, -0.000359939571734132, 0.6975,129.121109008789
0.0713347016666667, 229.663441955053, -0.000664704763701453, 0.70375,107.501190185547
0.071999525, 229.665742796062, -0.000692319876629497, 0.71125,107.565490722656
0.07266802, 229.668300184466, -0.00037214145885879, 0.7175,107.565490722656
0.073333135, 229.671523974121, -0.000356167261243569, 0.725,113.728469848633
0.073999695, 229.674121710866, 0.000116348004773991, 0.7325,110.59880065918
0.0746667916666667, 229.676980514733, 0.000105767536226812, 0.73875,103.893501281738
0.0753330216666667, 229.680604550462, 0.000283288119582708, 0.74375,104.717529296875
0.076000585, 229.684008769741, -0.000297757195099969, 0.75125,104.717529296875
0.0766663783333333, 229.686404057928, -0.000290940037518187, 0.7575,104.809997558594
0.0773328633333333, 229.689467056707, -0.000406807717596778, 0.76375,109.97541809082
0.0779996683333333, 229.692259288012, -0.000733330816719733, 0.77,109.511741638184
0.0786662616666667, 229.69498649056, -0.000855172696695443, 0.7775,110.256698608398
0.0793347116666667, 229.697314735528, -0.000791161911894898, 0.785,110.256698608398
0.0799995016666667, 229.700320151505, -0.000551169466452501, 0.79125,102.241424560547
0.0806661616666667, 229.702999590907, -0.000539389058191429, 0.79625,106.416343688965
0.0813330333333333, 229.705786694319, -4.29439940997443E-05, 0.8025,107.268074035645
0.0819995616666667, 229.708650205174, 0.00016619500103286, 0.81125,107.118408203125
0.0826676083333333, 229.711861063052, 0.000574646984938268, 0.8175,107.118408203125
0.0833330233333333, 229.714965565098, 0.000352458645265641, 0.82375,103.406539916992
0.08399946, 229.718533695536, 0.000333783083332563, 0.83125,106.953468322754
0.08466719, 229.722049952619, -0.000159480640525951, 0.83625,109.45157623291
0.085333015, 229.724768885025, -0.000292744446809101, 0.8425,108.966934204102
0.08599957, 229.727594249686, -0.000542546399527877, 0.8525,108.966934204102
0.0866661683333333, 229.729955881889, -0.000175723324651863, 0.85875,102.88516998291
0.0873331666666667, 229.73248463587, -0.000225286835134754, 0.8625,121.424163818359
0.0879995633333333, 229.735009563138, -0.000285127829414112, 0.86875,107.571929931641
0.0886667283333333, 229.738277130039, -0.000457466173085334, 0.87625,106.791030883789
0.0893337233333333, 229.741364639341, -0.000362600438071847, 0.8825,106.791030883789
0.0900003533333333, 229.744674489136, -0.000763311310814288, 0.89125,112.178802490234
0.090666275, 229.748376823752, -0.000734569754446857, 0.8975,115.06803894043
0.091333625, 229.751967427898, -0.000330803535184881, 0.9025,110.331550598145
0.09200093, 229.755249306265, 0.000195016053457426, 0.90875,103.912483215332
0.0926671833333333, 229.759045159905, 0.000266515962099938, 0.915,103.912483215332
0.0933329583333333, 229.762700954154, 0.000507427861392818, 0.9225,103.309066772461
0.0939995383333333, 229.766997686996, 0.000450756207908897, 0.92875,105.905883789063
0.0946663033333333, 229.770487817307, 0.000350954220834124, 0.93625,105.560905456543
0.0953330683333333, 229.775241923624, -0.000334946327066811, 0.9425,104.099296569824
0.0960002283333333, 229.779481568098, -0.000592723379176717, 0.95,104.099296569824
0.0966676816666667, 229.783345398279, -0.000694173783468227, 0.95625,113.345542907715
0.0973332583333333, 229.786705205637, -0.000619567530833961, 0.9625,110.410621643066
0.0979995466666667, 229.791100420233, -0.000774424252545878, 0.96875,111.488647460938
0.0986668816666667, 229.794140714644, -0.000429705567447666, 0.97625,103.679779052734
0.0993330966666667, 229.798292165217, -0.000183606928718157, 0.98125,103.679779052734
0.100001385, 229.801808443289, 0.000171419238707095, 0.9875,104.699501037598
0.10066646, 229.805189654685, 0.000585425443612948, 0.99625,101.817398071289
0.101332995, 229.80868405759, 0.00131074851138477, 1.0025,102.858268737793
0.101999506666667, 229.812778759891, 0.00173661612051197, 1.00875,109.256568908691
0.102667766666667, 229.816277460645, 0.00217554657347758, 1.015,109.256568908691
0.103333025, 229.820270218814, 0.00247598748266767, 1.0225,127.526458740234
0.104001318333333, 229.82502322711, 0.00283611789368737, 1.02875,105.640007019043
0.104666786666667, 229.828872214901, 0.00293889423136391, 1.03375,102.189605712891
0.105332866666667, 229.831895504142, 0.00352084850040499, 1.04125,103.486427307129
0.105999501666667, 229.83582339245, 0.00392916099129839, 1.0475,103.486427307129
0.106666385, 229.840114448206, 0.00402193583131116, 1.055,108.754318237305
0.107333021666667, 229.843503582259, 0.00417074935653964, 1.06125,105.283729553223
0.108001373333333, 229.848187325215, 0.00484006973726017, 1.06875,105.255271911621
0.108666716666667, 229.853003334813, 0.00493932275189708, 1.07375,112.437965393066
0.10933305, 229.857348416824, 0.00541036809178691, 1.08,112.437965393066
0.11000134, 229.860940321347, 0.00610894600297586, 1.0875,107.700836181641
0.11066803, 229.865619314093, 0.00673332864085954, 1.09375,112.914779663086
0.111332911666667, 229.869071325413, 0.00728498143192001, 1.1,105.445404052734
0.111999501666667, 229.872773505909, 0.00781863362711389, 1.1075,104.183692932129
0.112666166666667, 229.876942100331, 0.00843134085146598, 1.11375,104.183692932129
0.113333503333333, 229.881766581183, 0.00887313166075745, 1.12,110.192344665527
0.114000113333333, 229.884905499654, 0.00963377945422906, 1.1275,109.500396728516
0.11466802, 229.889598071723, 0.0100936158571192, 1.13375,102.973655700684
0.11533367, 229.894129175999, 0.0109170129987557, 1.1375,106.321922302246
0.115999738333333, 229.897676728813, 0.0115784512753981, 1.1375,106.321922302246
0.116666336666667, 229.901252410788, 0.0121098115857212, 1.1375,104.18399810791
0.11733343, 229.90427292866, 0.0123180386267104, 1.1375,107.806922912598
0.117999726666667, 229.90648136812, 0.0122475991648335, 1.14,111.662940979004
0.118666231666667, 229.907162450895, 0.0121202525613202, 1.14375,111.662940979004
0.11933465, 229.908952808031, 0.0119967562643663, 1.1475,103.290451049805
0.119999578333333, 229.910842253061, 0.01218985806508, 1.1525,131.522811889648
0.120666751666667, 229.911767525293, 0.0127511193735256, 1.1575,106.222145080566
0.121334511666667, 229.913866404892, 0.0133669404414702, 1.1625,102.691207885742
0.122000958333333, 229.917715919554, 0.0139417370700049, 1.16875,110.199676513672
0.122667213333333, 229.920111733955, 0.0146337093129955, 1.175,110.199676513672
0.123333095, 229.923253905389, 0.0150721702895591, 1.1825,104.503982543945
0.123999666666667, 229.928305935775, 0.0151350261323353, 1.19,109.23957824707
0.124666568333333, 229.932043416827, 0.0155595153106809, 1.19875,103.239311218262
0.125332973333333, 229.936219837218, 0.0161939594432257, 1.2075,107.360321044922
0.12599959, 229.940868080948, 0.0167881710965519, 1.2175,107.360321044922
0.126666371666667, 229.945924458739, 0.0173804913449292, 1.2275,106.369522094727
0.127332951666667, 229.950035312122, 0.0185261008021886, 1.2375,109.686653137207
0.12799953, 229.956032711265, 0.0196873544736306, 1.24875,112.927787780762
0.128666395, 229.961480162044, 0.0208484791515315, 1.26,106.245834350586
0.129333548333333, 229.967883072696, 0.0224381638033523, 1.27125,106.245834350586
0.130000356666667, 229.974086508371, 0.0239431297105117, 1.285,104.114402770996
0.130666671666667, 229.981857074984, 0.0251527964502068, 1.29625,115.209617614746
0.131333086666667, 229.988664278105, 0.0263434621443096, 1.30875,108.716529846191
0.131999631666667, 229.996075144114, 0.0281758106073813, 1.3225,104.726745605469
0.132666351666667, 230.003800268673, 0.0296086496373489, 1.33625,104.726745605469
0.133333325, 230.012107123855, 0.0315836904330967, 1.35125,107.153861999512
0.133999601666667, 230.020243981829, 0.0335361138649208, 1.365,108.476608276367
0.134666456666667, 230.029254992751, 0.0358121130438415, 1.38,109.680694580078
0.13533307, 230.038945369178, 0.0376300382313648, 1.395,98.7300033569336
0.135999703333333, 230.048282557598, 0.0396041790723431, 1.41,98.7300033569336
0.136667658333333, 230.057041428311, 0.0413495019065749, 1.4275,124.825889587402
0.137332998333333, 230.066770474884, 0.043057215629922, 1.4425,110.651374816895
0.138002218333333, 230.076476760984, 0.0444859718649837, 1.4575,103.229187011719
0.13866741, 230.085910719887, 0.0465235790180979, 1.47375,104.09797668457
0.139333098333333, 230.095450228143, 0.0485371963761619, 1.4925,104.09797668457
0.139999621666667, 230.105630722389, 0.0510113581016256, 1.51125,111.42652130127
0.140666255, 230.115581423662, 0.0542106839027894, 1.5275,108.436340332031
0.14133357, 230.12581705042, 0.0572479773427059, 1.54375,110.816947937012
0.141999506666667, 230.136759893527, 0.0595615976319917, 1.56125,109.24739074707
0.142666355, 230.147849950211, 0.0624561867397943, 1.5775,109.24739074707
0.143332923333333, 230.158680925871, 0.0649849667218088, 1.59625,104.368759155273
0.143999698333333, 230.17066902526, 0.0670745777628564, 1.61375,107.963645935059
0.144666698333333, 230.180652281275, 0.0700646340754432, 1.63125,108.895919799805
0.145333548333333, 230.191948773898, 0.0731212885428726, 1.64875,110.368354797363
0.14599971, 230.203065379553, 0.0756376806471152, 1.6675,110.368354797363
0.14666637, 230.213665082792, 0.0789059504853133, 1.68625,110.96346282959
0.147333283333333, 230.22380978936, 0.0821137973584997, 1.705,104.858932495117
0.14800003, 230.235044607497, 0.0851857795560415, 1.72375,105.190200805664
0.148666695, 230.24572809644, 0.0878628990871306, 1.7425,110.771621704102
0.14933299, 230.256402820946, 0.0911033423230172, 1.76,110.771621704102
0.149999543333333, 230.266856601208, 0.0940611772540897, 1.77875,104.769203186035
0.150666763333333, 230.278405949222, 0.0970851618625019, 1.7975,108.477745056152
0.151333266666667, 230.289309144264, 0.0999657581731236, 1.81625,106.282684326172
0.151999561666667, 230.300030742695, 0.10360416891953, 1.835,101.732543945313
0.152667066666667, 230.310839037814, 0.106826088085891, 1.8525,101.732543945313
0.153334721666667, 230.322874197989, 0.110126124828488, 1.8725,127.209587097168
0.153999715, 230.334040728951, 0.113238582492981, 1.88875,108.296257019043
0.154666581666667, 230.34498863612, 0.116965565290563, 1.90875,106.483055114746
0.155332981666667, 230.357049472953, 0.119770749889061, 1.9275,108.803695678711
0.15599988, 230.368461707685, 0.122875167957349, 1.94625,108.803695678711
0.156667015, 230.37899644463, 0.126071031932417, 1.96375,109.679534912109
0.157332898333333, 230.389639639646, 0.129331907142031, 1.9825,108.067070007324
0.15799984, 230.400372352087, 0.132793713759063, 2.00125,113.453323364258
0.158666443333333, 230.409270407111, 0.136575799288842, 2.02,111.787170410156
0.159333076666667, 230.41905115167, 0.140185682968156, 2.035,111.787170410156
0.159999465, 230.430169971836, 0.14374915747856, 2.05625,112.31810760498
0.160666323333333, 230.440954866322, 0.147317236757668, 2.07625,111.998207092285
0.161334688333333, 230.452624265202, 0.150290328922342, 2.09375,105.568351745605
