Time (min), Depth (µm), Load (N), Position (µm), Acoustic (aJ)
8.97833333333333E-06, 229.762026005905, 7.8175964891875E-06, 0,127.513595581055
0.000664728333333333, 229.761867030258, 5.37242906818211E-05, 0.00125,113.229568481445
0.00133117, 229.761767323885, 0.000106178155999888, 0.005,111.580253601074
0.00199811833333333, 229.761586932366, -7.63701748058923E-05, 0.01375,111.580253601074
0.00266504166666667, 229.761996501345, -0.000152582846709842, 0.02125,116.456130981445
0.00333118666666667, 229.763429924044, -0.000325428164829366, 0.03,100.778442382813
0.00399802166666667, 229.766512844935, -0.00034392523577971, 0.0375,103.975471496582
0.00466437833333333, 229.7704288443, -0.000480452878116955, 0.045,102.223472595215
0.00533105833333333, 229.775512651507, -0.000400043416988797, 0.0525,102.223472595215
0.005998355, 229.781298661142, -0.000501424824736503, 0.05875,111.627471923828
0.00666508166666667, 229.786508333618, -0.000553829192549262, 0.065,103.53443145752
0.007331085, 229.791491030927, -0.000234849214589299, 0.07,108.078506469727
0.00799788333333333, 229.796239493825, -9.76136077849378E-05, 0.0775,106.450561523438
0.008664755, 229.801288493461, -3.62531898512847E-05, 0.08375,106.450561523438
0.00933183166666667, 229.80528354722, 0.000237870041210866, 0.09125,108.980041503906
0.00999827, 229.809573854155, 0.000473124224655715, 0.09875,112.597595214844
0.0106646433333333, 229.814340780937, 0.000171900354842109, 0.105,102.370758056641
0.01133113, 229.819075348239, -7.02969798343964E-05, 0.11125,109.710395812988
0.01199785, 229.82292334265, -2.03404891153437E-05, 0.11625,109.710395812988
0.012664675, 229.828163714465, 8.71005172166694E-06, 0.12375,104.776275634766
0.0134982116666667, 229.835793765202, -0.000384564194511668, 0.1325,105.776702880859
0.0141645333333333, 229.841399882907, -0.000439267946817195, 0.14,111.202362060547
0.0148312933333333, 229.846812428565, -0.00040234130159967, 0.14625,119.149284362793
0.01549784, 229.852217249349, -0.000770013333815452, 0.1525,105.993629455566
0.0161647583333333, 229.856556373674, -0.000495179138437378, 0.16125,105.993629455566
0.01699791, 229.861771796191, -0.000143935781037274, 0.16625,128.191131591797
0.01766489, 229.866573819743, 9.5860077219482E-06, 0.1725,107.982765197754
0.0183311433333333, 229.871634608048, -6.5245233572806E-05, 0.18,110.265846252441
0.0189977583333333, 229.87617899906, 3.42417692710118E-05, 0.18625,114.236145019531
0.0196645283333333, 229.884058804364, -0.000148287062517526, 0.19625,114.236145019531
0.0204982283333333, 229.888375005794, -0.000405494143247924, 0.2025,112.177909851074
0.0211646083333333, 229.892580288005, -0.000357886534526947, 0.2075,112.177909851074
0.0218317066666667, 229.896678827499, -0.000150188966937161, 0.21375,107.727264404297
0.0224977666666667, 229.901112794165, -0.00015640015497501, 0.22125,111.97566986084
0.023164665, 229.905174772005, -0.000381843331176568, 0.22875,107.407775878906
0.0238312216666667, 229.909653140526, -0.000612339753585373, 0.235,109.320182800293
0.024498275, 229.915020577154, -0.000949552815715691, 0.24125,109.320182800293
0.0251649583333333, 229.919475188272, -0.000902470180642124, 0.2475,108.420066833496
0.0258310133333333, 229.923888526995, -0.00063774547746359, 0.25375,111.841125488281
0.026498355, 229.928528577813, -0.000706539522036289, 0.26,107.289505004883
0.0271647716666667, 229.932435055204, -0.00038647059874702, 0.2675,107.289505004883
0.027831025, 229.935992203971, -0.000105315720870913, 0.275,102.177673339844
0.0284979666666667, 229.940638681705, -0.000208905017701534, 0.28,103.379539489746
0.0291645333333333, 229.945230332961, -9.22288782208077E-05, 0.28625,110.201538085938
0.0298310833333333, 229.949627990308, 5.14189065339483E-05, 0.29375,105.937789916992
0.030498125, 229.953563495162, 9.92455042603093E-05, 0.3,105.937789916992
0.03116459, 229.957438965073, 6.26938402073603E-05, 0.30625,107.926864624023
0.03183132, 229.960752058893, 0.00020338227360439, 0.31375,86.2259292602539
0.032497965, 229.963738696367, 9.09014233809614E-05, 0.32,106.649238586426
0.03316459, 229.967184763516, 0.000283847231935469, 0.3275,128.341186523438
0.0338312133333333, 229.971025981553, -4.78701062673853E-05, 0.33375,128.341186523438
0.03449824, 229.975058200439, 0.000166529124703878, 0.34,107.745170593262
0.03516488, 229.979466776743, -0.000130773942103244, 0.34625,107.751281738281
0.035831055, 229.984007071165, 0.000170217439427858, 0.3525,112.364692687988
0.0364977483333333, 229.988595855772, 5.55646983284464E-05, 0.35875,106.52367401123
0.0371652766666667, 229.992673670712, 0.000344364692184459, 0.36625,106.52367401123
0.0378319266666667, 229.997529190473, 0.000298693486208153, 0.3725,108.569145202637
0.0384979666666667, 230.002089307345, 0.000410397375441916, 0.37875,106.940010070801
0.039164525, 230.006543779065, -6.54057255052087E-05, 0.385,112.016693115234
0.0398310933333333, 230.011347080598, 2.8509057245326E-05, 0.3925,110.562934875488
0.0404977683333333, 230.016142164621, -6.19858972706661E-05, 0.4,109.885139465332
0.04133112, 230.020475593163, -0.000230988408452674, 0.4075,110.080696105957
0.041998205, 230.024794505329, -0.000441487835274082, 0.41375,110.080696105957
0.0426650783333333, 230.028946463319, -0.00043157333326822, 0.42,112.233032226563
0.04333107, 230.032837027946, -0.000516853049741413, 0.4275,110.103019714355
0.043998165, 230.037512154277, -0.000755645555448662, 0.43375,107.672431945801
0.0446646783333333, 230.041830279801, -0.000800346310166027, 0.44,107.672431945801
0.0453311816666667, 230.046018586251, -0.000567198020944672, 0.44625,112.864250183105
0.0459978816666667, 230.049922296038, -0.000551912288736817, 0.45375,105.999374389648
0.0466645866666667, 230.054569606199, -0.000301649859162478, 0.45875,107.299217224121
0.0473311016666667, 230.058685642303, -0.000187412597186531, 0.465,106.303146362305
0.0479978916666667, 230.062870386404, -0.000153632793919647, 0.4725,107.11270904541
0.0486647433333333, 230.06685548521, -0.000246976105387524, 0.48,107.11270904541
0.0493311866666667, 230.071004401875, -0.000283163287725465, 0.48625,110.589859008789
0.0499977783333333, 230.073979699161, -0.000411967817992582, 0.49375,131.147232055664
0.050664665, 230.076511706839, -0.000398095014806391, 0.50125,105.748916625977
0.05133277, 230.078878590601, -5.96070166782548E-05, 0.50625,109.623641967773
0.05199803, 230.081317013152, 0.000253241269300994, 0.5125,109.623641967773
0.05266528, 230.083434603845, 0.000418471469928677, 0.51875,109.552955627441
0.0533315866666667, 230.086046882372, 0.000336694077510952, 0.52625,109.806304931641
0.0539992233333333, 230.088870661167, 0.000535620085660192, 0.5325,102.080009460449
0.0546646583333333, 230.090908826839, 0.000134351240975977, 0.53875,107.959533691406
0.0553317483333333, 230.093642814613, -0.000329429963796134, 0.54625,107.959533691406
0.05599796, 230.095814109315, -0.000501912300188816, 0.5525,106.320014953613
0.0566653716666667, 230.098662343673, -0.000355677145413358, 0.55875,110.414482116699
0.0573325933333333, 230.100713131182, -0.000406502092553184, 0.565,107.233795166016
0.05799919, 230.103813082432, -0.000329071481821248, 0.5725,109.290512084961
0.058666385, 230.106504440126, -0.000292635311989858, 0.57875,109.290512084961
0.0593313183333333, 230.108987884428, -3.00779999353509E-05, 0.585,109.723655700684
0.0599992166666667, 230.110618609883, 0.000175998149055702, 0.5925,103.700088500977
0.060664625, 230.113247010849, 0.000474900135531746, 0.6,105.687370300293
0.0613325216666667, 230.11515284945, 0.000564583630818051, 0.60625,106.509506225586
0.0619987166666667, 230.117254061326, 0.00072122976268312, 0.61125,106.509506225586
0.0626644683333333, 230.120182862089, 0.000610667316069015, 0.61875,110.291763305664
0.06333161, 230.123115779776, 0.000100664432979586, 0.625,109.259246826172
0.06399898, 230.126054037216, -2.77186184451984E-05, 0.6325,106.33618927002
0.064665545, 230.129128656205, -0.000247889559497887, 0.6375,108.214721679688
0.0653311966666667, 230.132555527305, -0.000411142859464519, 0.64625,108.214721679688
0.0659982966666667, 230.135783608681, -0.000370485901618468, 0.6525,130.328109741211
0.06666468, 230.139119034778, -0.000390931374644948, 0.6575,109.165916442871
0.067331625, 230.142416330334, -0.000689908357341155, 0.665,108.854957580566
0.0679981783333333, 230.145312353777, -0.000558763944579874, 0.67125,113.225090026855
0.0686645866666667, 230.14769757182, -0.000690761814432879, 0.6775,113.225090026855
0.0693311133333333, 230.149695003168, -0.000635537588316913, 0.68625,109.710693359375
0.0699983116666667, 230.151514693848, -0.000426916067167195, 0.6925,107.639595031738
0.0706650083333333, 230.153802154157, -0.000217148603603355, 0.6975,104.711639404297
0.0713311483333333, 230.155641144464, -0.000241567377054196, 0.70375,110.259864807129
0.0719984616666667, 230.158232048223, 0.000254037729222886, 0.7125,110.259864807129
0.0726646083333333, 230.161157278834, 5.15823020340003E-06, 0.71875,108.726196289063
0.0733329566666667, 230.164071857633, -0.000220592430585842, 0.72375,106.427200317383
0.0739980466666667, 230.166341477249, -0.000393121264635024, 0.73125,107.554496765137
0.074664535, 230.169169482725, -0.000455125150265199, 0.73875,114.275886535645
0.0753325133333333, 230.170992242211, -0.00051501564202861, 0.745,114.275886535645
0.0760003266666667, 230.173532013711, -0.000678243443237879, 0.75,103.946380615234
0.0766651416666667, 230.175790736253, -0.000839216857707732, 0.7575,112.90599822998
0.07733192, 230.178615468462, -0.00111163767429588, 0.76375,105.829040527344
0.0779986416666667, 230.180721852049, -0.00103000727449093, 0.77125,110.583534240723
0.0786650766666667, 230.183101100523, -0.000936024995099741, 0.7775,110.583534240723
0.079331085, 230.185780349695, -0.00109607895576162, 0.785,107.019920349121
0.07999869, 230.187700741821, -0.00065782496880815, 0.79,111.402153015137
0.08066594, 230.189681088577, -0.000573911683700121, 0.79625,108.839828491211
0.08133124, 230.191607116663, -0.000470899857913532, 0.80375,113.413307189941
0.0819982233333333, 230.194061345148, -0.000616527543178146, 0.81125,113.413307189941
0.0826650066666667, 230.195469704507, -0.00016048444974145, 0.8175,128.792205810547
0.0833312233333333, 230.198256005729, -0.000665927561858574, 0.8225,103.09676361084
0.0839979833333333, 230.200709475158, -0.000540155879223689, 0.83125,112.94677734375
0.0846647466666667, 230.204053060305, -0.000680713819155127, 0.8375,106.887390136719
0.08533108, 230.206870295097, -0.000993221622231074, 0.8425,106.887390136719
0.0859983433333333, 230.210759111655, -0.00109720839907107, 0.85,113.480773925781
0.0866650166666667, 230.21371533611, -0.000993376114444609, 0.8575,104.577651977539
0.0873311016666667, 230.216580238649, -0.000973278623900939, 0.86375,108.457214355469
0.087999185, 230.219925699752, -0.00110514150055765, 0.87,109.70841217041
0.088664645, 230.223014759882, -0.000892393686673186, 0.87625,109.70841217041
0.089331125, 230.226176404347, -0.00115138717768668, 0.8825,109.297401428223
0.0899988733333333, 230.228973769194, -0.00120324407294347, 0.88875,110.438941955566
0.0906646383333333, 230.232132485847, -0.00123959924685708, 0.895,107.442222595215
0.0913325333333333, 230.234566243078, -0.00117905628787198, 0.9025,103.670936584473
0.0919996233333333, 230.237418303439, -0.00130058018385295, 0.91125,103.670936584473
0.0926646816666667, 230.240424801849, -0.00136111864306484, 0.91625,107.400581359863
0.0933326866666667, 230.244101968417, -0.00140051716412401, 0.9225,108.909942626953
0.0939980266666667, 230.24697948024, -0.00127378102997031, 0.92875,104.477798461914
0.0946647316666667, 230.250942692897, -0.0014006911553973, 0.935,108.302040100098
0.095332545, 230.254646785542, -0.00158961716584969, 0.9425,108.302040100098
0.0959991866666667, 230.258115858671, -0.00113811584429246, 0.9525,106.912101745605
0.0966658766666667, 230.2619609498, -0.000819588843587299, 0.95625,105.129150390625
0.0973315383333333, 230.266650658237, -0.000927053945713561, 0.96125,109.106002807617
0.0979979816666667, 230.27055573497, -0.000714783107874348, 0.9675,107.011283874512
0.0986645433333333, 230.274524005255, -0.00039913296262097, 0.975,107.011283874512
0.09933113, 230.278121464836, -0.000787356962517117, 0.98125,130.794479370117
0.0999980483333333, 230.281734583564, -0.000903820112711327, 0.98875,105.886772155762
0.100665015, 230.284637584795, -0.000974891042931999, 0.99625,106.995315551758
0.101331621666667, 230.288167963787, -0.000914199591388469, 1.0025,109.562637329102
0.10199804, 230.291785391188, -0.00128416050864745, 1.00875,109.562637329102
0.10266464, 230.295216904137, -0.000990209773476725, 1.015,110.470771789551
0.103332585, 230.29863770831, -0.000882420687615597, 1.0225,105.975517272949
0.103998065, 230.302474851736, -0.000935923000261574, 1.02875,104.367393493652
0.104665063333333, 230.306220401612, -0.00088650798231586, 1.03375,104.827903747559
0.105332578333333, 230.309487612867, -0.000854918069017797, 1.04,104.827903747559
0.105997958333333, 230.312651461025, -0.000423010263298472, 1.0475,105.533599853516
0.106665518333333, 230.315608575309, -0.000617551991630587, 1.055,114.433959960938
0.10733126, 230.318838211466, -0.000742402720490585, 1.06125,110.64119720459
0.107999201666667, 230.321784907643, -0.00097865735368244, 1.0675,104.583930969238
0.108664538333333, 230.325711987098, -0.000848327400020907, 1.07375,104.583930969238
0.10933118, 230.32911931225, -0.00124649590047474, 1.08125,106.716453552246
0.109998325, 230.333315832728, -0.00110358157892321, 1.0875,108.159439086914
0.110664931666667, 230.336461010679, -0.000675938058983736, 1.09375,103.58602142334
0.11133108, 230.339695139233, -0.000502179286732596, 1.10125,104.292594909668
0.111998203333333, 230.342372984966, -0.000322722300674536, 1.1075,104.292594909668
0.11266453, 230.345957650164, -0.000225893164277119, 1.11375,105.279571533203
0.113331066666667, 230.348410026335, 0.000211907845421549, 1.12,102.731750488281
0.113998563333333, 230.35206176338, -6.41577881041407E-05, 1.1275,108.890182495117
0.114664965, 230.355141210052, -0.000389770432901777, 1.13375,108.135391235352
0.115331183333333, 230.358706570377, -0.000114072280897394, 1.14125,108.135391235352
0.1159981, 230.36141506235, -2.05804768923402E-05, 1.14625,127.361351013184
0.116664563333333, 230.365020145647, -0.00017475473287325, 1.1525,112.573844909668
0.117331653333333, 230.367723939793, -0.000214135254839587, 1.16,106.589248657227
0.117998096666667, 230.371240445487, 0.000357666024173008, 1.16625,105.558616638184
0.118664615, 230.374201279258, 2.05279582628535E-05, 1.17375,105.558616638184
0.119331621666667, 230.377239596343, -0.000275167189307673, 1.17875,110.331199645996
0.119997936666667, 230.380124335463, -0.000190767928607971, 1.18625,106.022850036621
0.120665131666667, 230.382754149131, 0.000124658727866813, 1.1925,107.070701599121
0.121331095, 230.384993390863, 0.00010938649493608, 1.19875,103.666198730469
0.121998376666667, 230.387494714267, 0.000199845451266394, 1.205,103.666198730469
0.122664953333333, 230.3905857141, 0.000502996724299506, 1.2125,106.223373413086
0.123332585, 230.393279785702, 0.000241400864021283, 1.21875,114.771820068359
0.123999241666667, 230.39657916643, 0.000137067604580375, 1.225,108.348022460938
0.124664648333333, 230.399796898907, -9.63806695216318E-05, 1.2325,105.669136047363
0.1253325, 230.403055465383, -0.000335134177194396, 1.23875,105.669136047363
0.125998451666667, 230.405206304932, -0.000487499524068673, 1.245,101.305274963379
0.126666011666667, 230.408203369984, -0.000560848839840468, 1.2525,108.173271179199
0.127332576666667, 230.411120511201, -0.000711868754291228, 1.25875,107.170532226563
0.12799797, 230.41365077781, -0.000929321831878877, 1.265,113.499450683594
0.128664566666667, 230.416592931422, -0.000641586784497956, 1.27125,113.499450683594
0.129331071666667, 230.420052581175, -0.000922761161370052, 1.2775,106.662940979004
0.129998011666667, 230.423191818729, -0.000942666661505088, 1.28375,106.493751525879
0.130665131666667, 230.425847450943, -0.00104539650148261, 1.29,104.17610168457
0.131331096666667, 230.428890204789, -0.00086646298910505, 1.2975,114.344131469727
0.131998696666667, 230.43168967616, -0.00101623946601297, 1.305,114.344131469727
0.13266643, 230.435164105331, -0.000996056479778313, 1.31125,130.109191894531
0.133331078333333, 230.437944560693, -0.00118489549461532, 1.3175,113.410865783691
0.133998035, 230.440949374366, -0.000670749819601449, 1.32375,104.935523986816
0.134665051666667, 230.443136510808, -0.000564006181219424, 1.33,109.369705200195
0.135331176666667, 230.446455997531, -0.00063993986714186, 1.3375,109.369705200195
0.135997848333333, 230.44881399363, -0.000370386906480329, 1.34375,106.644905090332
0.136665088333333, 230.451981311695, -8.74771167335983E-05, 1.35125,105.573875427246
0.137331158333333, 230.454832208443, -0.000294619712166655, 1.3575,111.23762512207
0.13799848, 230.458875982151, -0.00042411420776554, 1.3625,106.20011138916
0.138664568333333, 230.461699397013, 1.49557382120786E-05, 1.37,106.20011138916
0.139331035, 230.465340956368, 2.78340913488765E-05, 1.3775,110.608810424805
0.139998323333333, 230.468368254377, 0.000180523421915512, 1.38375,109.53392791748
0.140665325, 230.473206973469, -9.80801789401951E-06, 1.39,105.723289489746
0.141331676666667, 230.476952845671, 0.000243118277866841, 1.3975,111.211723327637
0.141998401666667, 230.481090650492, -7.4546266178924E-05, 1.4025,111.211723327637
0.142664656666667, 230.485014088456, 0.000140848914723627, 1.40875,110.657180786133
0.143331253333333, 230.488378326732, -3.25348764054444E-05, 1.41875,106.961112976074
0.143998425, 230.491670740096, 0.000297247558955888, 1.425,110.28401184082
0.144664856666667, 230.495096931937, 0.000176586119676829, 1.43,110.28401184082
0.145331855, 230.498449045112, 0.000416665560755868, 1.43625,108.316146850586
0.145998121666667, 230.50191986867, -2.10124551204784E-05, 1.44375,110.277229309082
0.146666211666667, 230.506355361556, -0.000190217456139435, 1.45,106.654685974121
0.14733108, 230.510206659043, -0.000594541647364439, 1.45625,109.430488586426
0.14799833, 230.514902726869, -0.000906747965571568, 1.4625,132.063812255859
0.1486649, 230.518909915936, -0.000872939663741022, 1.47,132.063812255859
0.149331196666667, 230.523501440567, -0.000681777265663307, 1.47625,107.391128540039
0.149997831666667, 230.527924009427, -0.000458730969040729, 1.4825,111.818504333496
0.150666268333333, 230.531858620485, -0.000274010747358966, 1.49125,112.577644348145
0.151331068333333, 230.535714590166, -6.9217033923985E-05, 1.49625,115.193862915039
0.151998768333333, 230.539459533417, -0.000186317652074596, 1.5025,115.193862915039
0.152665135, 230.54328499959, -0.000171543394173268, 1.51,109.69654083252
0.153331631666667, 230.546270236661, -0.000223559281480568, 1.5175,107.219566345215
0.15399791, 230.550637209613, -0.000256098647053417, 1.5225,107.041328430176
0.154665326666667, 230.554162127201, -0.000585743089348395, 1.52875,114.707092285156
0.155331181666667, 230.558378903248, -0.000625504592155669, 1.535,114.707092285156
0.155998206666667, 230.562458128946, -0.000841234256242655, 1.5425,108.064987182617
0.15666503, 230.567479212426, -0.00093726093293555, 1.55,110.72868347168
0.157331071666667, 230.571868933445, -0.00114220613873526, 1.55625,105.88045501709
0.157999155, 230.576906331403, -0.00100609697539154, 1.5625,111.214141845703
0.158664995, 230.581813019795, -0.0013216511254406, 1.56875,111.214141845703
0.159331976666667, 230.586409493852, -0.00102605497294445, 1.575,109.357055664063
0.159999238333333, 230.590858064989, -0.000907422931744321, 1.58125,105.009834289551
0.160664481666667, 230.595096634994, -0.000694198141793349, 1.58875,108.930679321289
