Time (min), Depth (µm), Load (N), Position (µm), Acoustic (aJ)
7.48333333333333E-06, 229.59120054198, 0.00116073227754083, 0,104.35277557373
0.000667156666666667, 229.590951500649, 0.000992737715749101, 0.00125,105.437950134277
0.00133321166666667, 229.591026721824, 0.000561311385848238, 0.005,105.437950134277
0.001999755, 229.590551097885, 0.000542274342048958, 0.0125,102.807670593262
0.00266686833333333, 229.591109266862, 0.000608891995929956, 0.025,107.867340087891
0.0033334, 229.592338139588, 0.000547605074355825, 0.03125,102.166519165039
0.003999965, 229.594420028364, 0.000707929021410289, 0.0375,102.166519165039
0.004666525, 229.59719035076, 0.00105803693582459, 0.04375,107.858291625977
0.005333475, 229.600241282469, 0.000939023913719756, 0.0525,125.703804016113
0.00599973166666667, 229.60269718467, 0.000825251628393835, 0.05875,105.116882324219
0.00666649, 229.603567530176, 0.000944069660262479, 0.065,104.424659729004
0.00733330333333333, 229.605295230978, 0.000685805132615244, 0.07125,106.458152770996
0.007999855, 229.606235797677, 0.000584927699615811, 0.0775,106.458152770996
0.00866660333333333, 229.606954785517, 0.000928824426034767, 0.08375,108.461479187012
0.00933339, 229.607617954333, 0.000934536139140061, 0.09125,105.970748901367
0.009999805, 229.609428800144, 0.000821017341059545, 0.09875,108.049545288086
0.0106671033333333, 229.610462032973, 0.00106109678215984, 0.105,108.049545288086
0.0113333533333333, 229.612064213797, 0.0007516533251711, 0.11125,107.491096496582
0.0120000666666667, 229.613425431422, 0.000422584853974497, 0.1175,111.948654174805
0.0126665966666667, 229.615499359734, 0.000396138182369132, 0.125,107.704322814941
0.0133334833333333, 229.616500084628, 0.000141911451916852, 0.13,107.6494140625
0.0140009183333333, 229.61839441669, 5.97965764233777E-05, 0.13625,109.99479675293
0.0146664016666667, 229.619875946691, 0.000220844987134647, 0.14375,109.99479675293
0.01533331, 229.621764839625, 0.000209511556388254, 0.15125,102.504127502441
0.0159997583333333, 229.622386841763, 0.000408004086299936, 0.1575,106.534538269043
0.0166664666666667, 229.623614124853, 0.000832656756426711, 0.1625,105.082176208496
0.0173332283333333, 229.62444196967, 0.000973813166322574, 0.17,107.349395751953
0.0179999066666667, 229.62565846288, 0.000859889388653178, 0.17625,107.349395751953
0.0186668816666667, 229.626562813174, 0.000782677766905372, 0.18375,102.701751708984
0.01933436, 229.62880556232, 0.000454359257995414, 0.19125,105.974517822266
0.0200014933333333, 229.630681848083, 0.00037483925220842, 0.1975,106.721946716309
0.02066822, 229.632852396601, 0.000326558177345364, 0.20125,107.563858032227
0.021334145, 229.634846271694, 0.000611533363292938, 0.20875,107.563858032227
0.0219999133333333, 229.637457154705, 0.000629622454699325, 0.21625,127.20418548584
0.02266658, 229.639118327688, 0.00063689558936346, 0.2225,106.213966369629
0.0233335933333333, 229.641363976519, 0.000618506513012659, 0.23125,112.338592529297
0.02399987, 229.643768605226, 0.000507590084218131, 0.23625,112.338592529297
0.024667045, 229.646456992062, 0.000168848598865844, 0.24375,102.200210571289
0.0253338866666667, 229.648921714896, 0.000199403564113118, 0.24875,113.33228302002
0.0260007433333333, 229.651501137958, 0.000263502844517218, 0.255,110.609550476074
0.02666686, 229.653754791356, -6.37507178538857E-05, 0.2625,106.303024291992
0.0273344333333333, 229.655891191456, -0.000205532596289669, 0.27,108.169067382813
0.0280000183333333, 229.658623922894, -0.000182997728165624, 0.27625,108.169067382813
0.0286666483333333, 229.661168419406, -0.000278350938673932, 0.28125,105.237464904785
0.0293347766666667, 229.663921574165, -0.000325735058637569, 0.28875,102.678176879883
0.0299999183333333, 229.666333547057, 5.23884485842037E-05, 0.295,103.460357666016
0.03066836, 229.669193458484, 0.000159394573758053, 0.30125,107.834938049316
0.031333795, 229.671140475128, 0.000309414038398045, 0.3075,107.834938049316
0.0319999983333333, 229.673340366523, 0.000496652633620468, 0.31625,105.73811340332
0.0326681783333333, 229.6758549528, 0.000306186200508373, 0.32125,111.99829864502
0.0333336, 229.679342800297, 1.36588938726424E-05, 0.3275,100.714263916016
0.0340000416666667, 229.682011451856, 0.000137182189423216, 0.335,105.794281005859
0.034668735, 229.685590646399, -6.60426027883998E-05, 0.34125,105.794281005859
0.0353336516666667, 229.68904717892, -0.000176212069102581, 0.3475,107.336204528809
0.0359998783333333, 229.69238616759, 4.31234139087145E-05, 0.355,111.167381286621
0.0366666783333333, 229.695289964622, 0.000378992543539918, 0.36125,109.92894744873
0.037333555, 229.69800454707, 0.00015814513647509, 0.3675,104.42179107666
0.0379998916666667, 229.700604958309, 0.000158475119886315, 0.37375,104.42179107666
0.0386665316666667, 229.702941022195, 0.000113801363829463, 0.38125,131.895385742188
0.0393331783333333, 229.705546726526, -0.00015854145664721, 0.3875,109.018699645996
0.0399999016666667, 229.708501457405, -0.000630285761415225, 0.39375,109.088623046875
0.0406667416666667, 229.711275866325, -0.000487471934841221, 0.4,105.807472229004
0.0413336866666667, 229.714258207756, -0.000293282688743872, 0.4075,105.807472229004
0.0420000966666667, 229.71733806045, -0.000235628584669546, 0.41375,110.123916625977
0.0426665133333333, 229.719963004408, 0.000182791898477734, 0.42,117.484588623047
0.0433334283333333, 229.722425298351, 0.000322977857093402, 0.4275,105.208290100098
0.0440003133333333, 229.725590497532, 0.000208511106662503, 0.43375,105.67115020752
0.0446666883333333, 229.728743946274, 2.72047134751605E-05, 0.44,105.67115020752
0.0453331916666667, 229.73204421817, 0.000214387811452155, 0.4475,107.115249633789
0.046001445, 229.735204641807, 0.000158088139347766, 0.45375,108.046676635742
0.0466668366666667, 229.739518658319, -2.64505914599489E-05, 0.45875,105.173301696777
0.0473337333333333, 229.743340979576, 9.38283670537715E-05, 0.465,108.458335876465
0.0479998416666667, 229.747421191693, 0.000326390185769691, 0.4725,108.458335876465
0.0486666816666667, 229.750455787108, 0.00037034247810356, 0.48,109.257347106934
0.0493335833333333, 229.754765759108, 0.000219436557949956, 0.48625,106.499862670898
0.0499999433333333, 229.757239385128, 0.000684689188774204, 0.4925,105.46410369873
0.050667145, 229.760792150329, 0.000811059341352259, 0.5,110.531669616699
0.051333425, 229.763247563323, 0.000687921526415831, 0.50625,110.531669616699
0.05200007, 229.766951486291, 0.000570607918936195, 0.5125,102.148818969727
0.0526670933333333, 229.769963734428, 5.83866472717744E-05, 0.51875,109.895027160645
0.0533349833333333, 229.773815889358, -0.000123974192919837, 0.52625,107.636512756348
0.05399995, 229.776395282071, -0.000154368666234707, 0.5325,105.989250183105
0.0546683566666667, 229.779984585372, -0.000309585369867168, 0.53875,105.989250183105
0.055334695, 229.782649980494, -0.000293410182318149, 0.54625,128.51643371582
0.05599987, 229.784926171757, 0.00026445529668332, 0.5525,103.240661621094
0.0566666633333333, 229.787593370023, 0.000143879353073992, 0.56,106.389709472656
0.0573333733333333, 229.790914261694, 0.000198089630165831, 0.56625,106.503890991211
0.0579999833333333, 229.7934109994, 0.000239378056291924, 0.5725,106.503890991211
0.0586670783333333, 229.796524606511, 0.000254246809451911, 0.57875,109.190238952637
0.05933485, 229.800499765362, 6.49038199303968E-05, 0.585,108.44938659668
0.059999905, 229.803637898177, 3.25594445937337E-05, 0.5925,103.88786315918
0.0606666916666667, 229.806628511786, -0.000247345996041919, 0.59875,109.159042358398
0.0613335133333333, 229.810109227018, -0.000127857497837494, 0.605,109.159042358398
0.061999875, 229.81366730354, -0.000162178773920225, 0.6125,105.139785766602
0.0626667033333333, 229.816597366743, 2.13265088036129E-05, 0.61875,106.715484619141
0.0633333, 229.820081351859, 0.00032261787523662, 0.625,105.231590270996
0.063999935, 229.823874834036, 0.000458028073702152, 0.63125,110.400169372559
0.06466814, 229.826920666095, 0.000283874821269192, 0.6375,110.400169372559
0.065334135, 229.830029403091, 0.000417873590637463, 0.645,109.05884552002
0.0659999583333333, 229.833573231536, 0.0005185650330534, 0.6525,104.343872070313
0.0666665066666667, 229.83604470142, 0.000435755692433693, 0.65875,105.760833740234
0.0673336033333333, 229.838480228433, 0.000412844343241921, 0.665,110.543983459473
0.06799999, 229.841229753956, 0.00057434273133793, 0.67125,110.543983459473
0.0686674266666667, 229.844179525211, 0.00044069944409574, 0.6775,108.284797668457
0.0693333383333333, 229.846502662868, -4.3589814648449E-07, 0.685,105.263702392578
0.06999986, 229.849661849157, 0.00016769665675411, 0.69375,103.847534179688
0.0706682916666667, 229.852178155961, 0.000110822513475748, 0.69875,130.160858154297
0.0713335433333333, 229.854843449428, 0.000261659437085549, 0.70375,130.160858154297
0.07200013, 229.857340812302, 0.000299492036791421, 0.71125,100.979476928711
0.0726666966666667, 229.86115577442, 0.000384458269064332, 0.7175,110.917785644531
0.073333195, 229.863814851227, 0.000226657195238722, 0.72375,104.6923828125
0.0739999516666667, 229.867198248588, 0.000371060941977737, 0.7325,114.324317932129
0.0746674483333333, 229.870288073459, 0.000319061553860127, 0.7375,114.324317932129
0.0753337866666667, 229.873764171998, 8.72631968567531E-05, 0.74375,105.713302612305
0.0760013333333333, 229.875895955891, 0.000202869890004161, 0.75,109.627883911133
0.07666652, 229.878912676672, 9.13504915357618E-05, 0.75875,104.925796508789
0.0773331833333333, 229.881722753901, 0.000179106583645069, 0.765,102.658157348633
0.077999945, 229.885129269046, -0.000119592913036535, 0.77,102.658157348633
0.0786667433333333, 229.887808402141, 0.00016033052671321, 0.7775,106.362907409668
0.0793331716666667, 229.891059936232, 5.80071663127337E-05, 0.785,102.761703491211
0.0799999183333333, 229.894703398669, 0.000114011353288427, 0.79125,102.997596740723
0.080668195, 229.898036508636, -0.00044781992653664, 0.7975,107.214622497559
0.0813332433333333, 229.901909179754, -0.000510704267897798, 0.80375,107.214622497559
0.0819999216666667, 229.904930736385, -0.000869970722312445, 0.81,105.924156188965
0.0826665366666667, 229.907903840263, -0.000837191368771313, 0.81625,108.500099182129
0.083334815, 229.910406197533, -0.000971473623936815, 0.8225,108.163864135742
0.0840012316666667, 229.91346184797, -0.000416639492643176, 0.83,107.011749267578
0.0846668083333333, 229.916075060802, -0.000182841736048939, 0.83875,107.011749267578
0.085333175, 229.919508371387, 4.62612563341906E-05, 0.8425,104.332977294922
0.085999875, 229.923550147719, 0.00019018952697361, 0.85,106.648567199707
0.0866666066666667, 229.927483977309, 0.000397569110526143, 0.85625,105.667915344238
0.0873337416666667, 229.931193368243, 0.00010162647542908, 0.8625,126.246932983398
0.087999955, 229.935200142146, 0.00021971854380153, 0.87,126.246932983398
0.0886673483333333, 229.939186288164, 0.000358292083407393, 0.87625,107.942657470703
0.0893332766666667, 229.942735647675, 0.000296781672990906, 0.88375,106.042724609375
0.0900012316666667, 229.946369180561, 0.000144182337888466, 0.89,105.89485168457
0.0906665583333333, 229.949980578492, 0.000314539281040411, 0.8975,112.469009399414
0.091333155, 229.95354288655, 0.000257020170162379, 0.9025,112.469009399414
0.0919998233333333, 229.956829328022, 0.000262977870912316, 0.90875,102.36190032959
0.09266664, 229.961030812047, 0.000355230737147737, 0.91625,110.007438659668
0.0933332416666667, 229.964705603851, 0.00041236436739037, 0.9225,105.715026855469
0.0940012816666667, 229.96927931487, 0.000223357361020203, 0.92875,102.16934967041
0.094668175, 229.973275925714, 0.000180696503831334, 0.93625,102.16934967041
0.09533472, 229.977554563073, -8.43611826284859E-05, 0.9425,110.838417053223
0.0959998266666667, 229.981164267849, -0.000119930396027268, 0.95,110.924690246582
0.0966666866666667, 229.98604546161, -0.000144211176411755, 0.95625,107.276405334473
0.097333205, 229.990115903355, 5.70929319636775E-06, 0.9625,110.165298461914
0.098000225, 229.994132143981, -0.00024576057571388, 0.96875,110.165298461914
0.0986669583333333, 229.998882780014, -0.000374257621435821, 0.97625,107.557495117188
0.0993351666666667, 230.003428887051, -0.000673429594346959, 0.9825,103.924293518066
0.100002346666667, 230.008155337163, -0.000797803347204213, 0.98875,107.90079498291
0.100666895, 230.01227508013, -0.00097246357417049, 0.99625,107.418060302734
0.101333586666667, 230.017435920271, -0.000974057994087457, 1.0025,107.418060302734
0.10200023, 230.021739221594, -0.000691431690116704, 1.00875,107.592506408691
0.10266688, 230.026737683377, -0.000586145978509695, 1.015,106.438690185547
0.103334496666667, 230.031124923774, -0.000414374606390428, 1.02125,101.827850341797
0.104001256666667, 230.036211678885, -0.000344275627416862, 1.0275,126.328308105469
0.104666923333333, 230.040155813873, -0.000229724881198126, 1.03375,126.328308105469
0.105333628333333, 230.044756024229, -0.000237581486582653, 1.04125,106.624649047852
0.106001053333333, 230.048760696227, -0.000116647060977184, 1.04875,107.585891723633
0.106666975, 230.053237534279, -0.000134140682267954, 1.055,105.280967712402
0.107333813333333, 230.057549754959, -0.000111476820623974, 1.06125,100.128700256348
0.108000378333333, 230.062371776923, -3.83314946135311E-05, 1.0675,100.128700256348
0.108666893333333, 230.067418957488, 0.00010786316216053, 1.07375,105.56517791748
0.109333558333333, 230.072018643206, 0.000334656270580069, 1.08125,109.420890808105
0.110000515, 230.076631998538, 0.000309729022629, 1.0875,110.275077819824
0.1106669, 230.081572378355, 0.00059401874299676, 1.09375,111.347114562988
0.111335148333333, 230.085645072326, 0.000778122495663768, 1.1,111.347114562988
0.11200031, 230.089391521808, 0.000968885913828962, 1.1075,107.385787963867
0.11266693, 230.094113043116, 0.000881678794178772, 1.11375,108.813087463379
0.11333413, 230.098719606276, 0.000998249938930016, 1.12,105.537109375
0.114000248333333, 230.102867664896, 0.000903988673599821, 1.1275,108.852729797363
0.114667233333333, 230.108044273565, 0.00108704847869087, 1.13375,108.852729797363
0.115333578333333, 230.113423739142, 0.00134486002908331, 1.14,108.520736694336
0.1160003, 230.117396845882, 0.00177384598155499, 1.14625,106.267936706543
0.116667305, 230.121658008226, 0.00210425688539007, 1.1525,104.462379455566
0.11733362, 230.126686540141, 0.00249055348213047, 1.16,110.837890625
0.118002176666667, 230.13071382008, 0.00285506817294604, 1.1675,110.837890625
0.118666896666667, 230.134779461688, 0.00308625606061102, 1.1725,102.994743347168
0.119334413333333, 230.139933047272, 0.00346031327213794, 1.17875,105.23560333252
0.120002518333333, 230.144042406237, 0.00376782032636075, 1.18625,107.697616577148
0.12066705, 230.147817965558, 0.00410804973699737, 1.1925,133.494155883789
0.121333738333333, 230.15215161878, 0.00429681975524806, 1.19875,133.494155883789
0.122000311666667, 230.156608906656, 0.0045870551770343, 1.205,111.767631530762
0.122666886666667, 230.159554405058, 0.00518501214227552, 1.2125,107.300186157227
0.123333946666667, 230.163799424247, 0.00563445256734135, 1.21875,107.284065246582
0.124000241666667, 230.167788013459, 0.00618082712351283, 1.225,104.67259979248
0.124667003333333, 230.171787848849, 0.00678537475772969, 1.2325,104.67259979248
0.125333548333333, 230.175529549565, 0.00732320424310927, 1.23875,108.953651428223
0.12600181, 230.180678733252, 0.00759556806254885, 1.245,109.664352416992
0.126666908333333, 230.184296508505, 0.00813701686612986, 1.2525,100.811264038086
0.127333665, 230.188542015652, 0.00853616781721661, 1.25875,105.620780944824
0.128000248333333, 230.192859521415, 0.00915166790127516, 1.265,105.620780944824
0.128666893333333, 230.196866147424, 0.00997404359420174, 1.27125,109.054870605469
0.129333656666667, 230.200796819963, 0.0105524355421687, 1.2775,104.598274230957
0.13000114, 230.205305034215, 0.0109996815774713, 1.2775,105.022407531738
0.130667053333333, 230.208879704638, 0.0116103624035932, 1.27875,110.516212463379
0.131333695, 230.21176663862, 0.0118581064596907, 1.28,110.516212463379
0.132000268333333, 230.214607052521, 0.0118002033681229, 1.28125,110.746978759766
0.13266689, 230.216557066088, 0.0117466335589, 1.28375,105.074211120605
0.13333374, 230.21776359221, 0.0120195373512523, 1.2875,109.340599060059
0.134000351666667, 230.2186091746, 0.0124989297718703, 1.2925,102.848220825195
0.13466696, 230.220894792249, 0.0126192372289689, 1.29625,102.848220825195
0.13533416, 230.222005837805, 0.0131343098573703, 1.30125,106.287521362305
0.136000313333333, 230.224154120235, 0.0140363960465468, 1.3075,104.163513183594
0.136668476666667, 230.227348434306, 0.014157031987111, 1.31375,107.719833374023
0.137333966666667, 230.231183926147, 0.0146829295718223, 1.32125,126.417213439941
0.13800039, 230.234585638869, 0.0156527208601997, 1.3275,126.417213439941
0.138666915, 230.238971548478, 0.0167061599470871, 1.335,106.92618560791
0.139333573333333, 230.24457665556, 0.0168808306735667, 1.34375,105.164878845215
0.140000338333333, 230.249189890689, 0.0182413703350785, 1.35375,102.483367919922
0.140667211666667, 230.254843562915, 0.01890322259092, 1.3625,111.589286804199
0.141334593333333, 230.261030557795, 0.0198720854259855, 1.37375,111.589286804199
0.142000203333333, 230.267562967258, 0.0207419262347297, 1.38375,106.710021972656
0.1426669, 230.273390026415, 0.0219184761378505, 1.395,105.952117919922
0.143333905, 230.281019174374, 0.0226429562479589, 1.40625,102.917678833008
0.14400028, 230.287379650626, 0.0238755133379041, 1.42125,109.035629272461
0.14466737, 230.29349584304, 0.0253502962610683, 1.43125,109.035629272461
0.14533454, 230.30055007909, 0.02634789765261, 1.44375,112.198234558105
0.146000436666667, 230.307419376644, 0.0280400541573896, 1.4575,105.370826721191
0.146667285, 230.314589735556, 0.029655231528704, 1.47125,107.933227539063
0.147333941666667, 230.322855529647, 0.0311179175595155, 1.485,112.292892456055
0.148000243333333, 230.331303067117, 0.032592695982949, 1.49875,112.292892456055
0.148667058333333, 230.339434302918, 0.0345734514916721, 1.51375,110.891723632813
0.149333711666667, 230.348386292963, 0.0363900942435543, 1.5275,112.946357727051
0.150000341666667, 230.357389440122, 0.0385639215545031, 1.54375,103.605964660645
0.150666886666667, 230.36611847681, 0.0410487447444105, 1.56,105.349281311035
0.151333736666667, 230.375398507239, 0.042927490376976, 1.575,105.349281311035
0.152000281666667, 230.384872534162, 0.0449081798889829, 1.59125,107.095863342285
0.152667748333333, 230.394883439641, 0.0469643861079069, 1.6075,109.769340515137
0.153335395, 230.404071542936, 0.049368502851633, 1.62375,128.144821166992
0.15400025, 230.414681121563, 0.0514090243583729, 1.64125,107.266716003418
0.154667053333333, 230.424978222511, 0.0539025786097195, 1.6575,107.266716003418
0.155334018333333, 230.435063222526, 0.0566767792645482, 1.67625,108.969497680664
0.156000266666667, 230.444752134318, 0.0592191995614027, 1.6925,106.97371673584
0.156667243333333, 230.454651546162, 0.062035569098131, 1.71,112.255516052246
0.157333566666667, 230.464307942513, 0.0647592987880428, 1.7275,112.793907165527
0.158001753333333, 230.473962145412, 0.0671910741424835, 1.745,112.793907165527
0.158667203333333, 230.484811565933, 0.0693835845149874, 1.76375,102.356559753418
0.159333825, 230.494870940672, 0.072286337712741, 1.78125,108.922393798828
0.160000533333333, 230.506109627447, 0.0750357521125126, 1.79875,104.12654876709
0.160666953333333, 230.517055280504, 0.0776134926352723, 1.81625,106.607078552246
0.16133397, 230.528706110189, 0.0806945613763793, 1.83625,106.607078552246
0.162000238333333, 230.540166254123, 0.0834382835620841, 1.85375,104.548583984375
