Time (min), Depth (µm), Load (N), Position (µm), Acoustic (aJ)
6.66666666666667E-06, 227.447362207855, 0.000130016306612196, 0,151.99967956543
0.000666288333333333, 227.447777948653, 0.00016895435081581, 0.0049999999999998,149.679183959961
0.00133273, 227.447932167732, -0.00031130352633163, 0.0162499999999998,149.679183959961
0.001998785, 227.448648987359, -0.000567967634343032, 0.03125,146.565155029297
0.00266523833333333, 227.44959438154, -0.000858138559358671, 0.0462500000000003,192.245895385742
0.003331855, 227.451807742911, -0.00101711707403213, 0.0600000000000002,176.988433837891
0.00399851166666667, 227.455044047629, -0.00107353524022813, 0.0787499999999998,188.919250488281
0.00483248166666667, 227.462873352283, -0.00103633710865111, 0.0937500000000001,195.532623291016
0.00549852166666667, 227.469887051882, -0.000981159380149137, 0.1075,195.532623291016
0.00616524166666667, 227.477737507812, -0.000972617309227305, 0.12,195.356338500977
0.00683201166666667, 227.485746476175, -0.00115706004485196, 0.13375,199.805099487305
0.00749868166666667, 227.492954298432, -0.00116730603019345, 0.14625,200.91130065918
0.00816528333333333, 227.499417489253, -0.0011279870051489, 0.16,204.365585327148
0.00883175833333333, 227.504860109178, -0.00120740801592528, 0.1725,204.365585327148
0.00949888, 227.509586813225, -0.00136048732692178, 0.18625,205.494110107422
0.01016524, 227.514416983353, -0.0015869999494354, 0.200000000000001,214.831787109375
0.010831745, 227.519341380212, -0.00179505299915126, 0.2125,211.622467041016
0.0114990733333333, 227.524938287143, -0.00200116064659729, 0.22625,211.622467041016
0.0121653083333333, 227.531075394155, -0.0019076958412315, 0.24,211.444793701172
0.012831805, 227.53815413732, -0.00194244909560613, 0.25375,169.882339477539
0.0134986366666667, 227.546476543146, -0.00173399106623762, 0.2675,208.426376342773
0.0141653083333333, 227.554922949239, -0.00151600101564984, 0.28,205.189712524414
0.014832125, 227.564220847093, -0.00111177281962916, 0.29375,205.189712524414
0.0154985466666667, 227.574007645821, -0.00109409920734623, 0.307500000000001,205.574569702148
0.0161655433333333, 227.583906415006, -0.00122671804602971, 0.32,168.036712646484
0.0168321533333333, 227.593506536693, -0.00138020383660326, 0.33375,211.323333740234
0.01749869, 227.604334403881, -0.0017243900484958, 0.34625,205.558547973633
0.0181654383333333, 227.614886726978, -0.00207284954573587, 0.36,250.377410888672
0.01883197, 227.625531589838, -0.00202578490975514, 0.37375,250.377410888672
0.0194986166666667, 227.636108667218, -0.00165367460048623, 0.38875,210.523773193359
0.0201654283333333, 227.647376275998, -0.00155807240252698, 0.40125,207.594421386719
0.0208318283333333, 227.657968320629, -0.0014039131457901, 0.41375,211.397583007813
0.0214985183333333, 227.669186176169, -0.00153526754796784, 0.4275,209.817001342773
0.0221655483333333, 227.680223566528, -0.00154446508598142, 0.44125,209.817001342773
0.0228318066666667, 227.690945397645, -0.00132093281376717, 0.455000000000001,214.1220703125
0.0234985283333333, 227.70169340765, -0.00113233078700713, 0.4675,209.222579956055
0.0241652316666667, 227.712811006813, -0.00101580164013918, 0.48,206.756164550781
0.024831755, 227.723438985877, -0.000840371951784, 0.49375,209.929580688477
0.0254987816666667, 227.734618570379, -0.00074625767902407, 0.5075,209.929580688477
0.0261659116666667, 227.746457616601, -0.00148649449768797, 0.52,211.202896118164
0.0268318383333333, 227.757706920962, -0.0015151670575116, 0.53375,203.456039428711
0.0274985716666667, 227.76846249358, -0.00142652450990993, 0.54625,201.755996704102
0.028165425, 227.780003493792, -0.00121936091555649, 0.56,196.747253417969
0.0288319016666667, 227.791001067483, -0.00102576263980154, 0.57375,196.747253417969
0.0294985166666667, 227.802114720594, -0.000813160318605449, 0.58625,203.496658325195
0.0301652433333333, 227.81314164226, -0.00109699106210581, 0.6,195.327011108398
0.03083189, 227.824935085781, -0.00115685005547801, 0.6125,194.015823364258
0.0314985183333333, 227.836240299001, -0.00147709896967442, 0.62625,188.312515258789
0.032165435, 227.848102766214, -0.00196095516610289, 0.64,188.312515258789
0.032831925, 227.859874625634, -0.00206454596285792, 0.65375,191.204711914063
0.03349852, 227.87164082792, -0.00175369557652387, 0.66625,205.122787475586
0.034165325, 227.882823582687, -0.00125637305652876, 0.67875,196.50212097168
0.0348318516666667, 227.894057996049, -0.00113625159009864, 0.6925,235.25309753418
0.0354987183333333, 227.904869284804, -0.00101898898006996, 0.705,235.25309753418
0.0361657633333333, 227.91579704572, -0.0008007784405524, 0.72,194.743698120117
0.0368317466666667, 227.926971961764, -0.00094187485340837, 0.73125,196.606674194336
0.0374985833333333, 227.938381383177, -0.00149090427624121, 0.745,201.039398193359
0.0381652033333333, 227.949759330958, -0.00140769295586017, 0.7575,192.327377319336
0.03883214, 227.960888158825, -0.00109349923747866, 0.77125,192.327377319336
0.0394987616666667, 227.971974806336, -0.000920079448206418, 0.785,200.604293823242
0.040165465, 227.983259793663, -0.00092468571681397, 0.79875,204.164215087891
0.0408317733333333, 227.995079782193, -0.00100069739882663, 0.81,203.60856628418
0.04149857, 228.006720798416, -0.00123603257821051, 0.82375,206.501434326172
0.0421655066666667, 228.018213365144, -0.00147256319753507, 0.84,206.501434326172
0.04299911, 228.029661319602, -0.00137579255818938, 0.85375,208.028686523438
0.0436652466666667, 228.040984584889, -0.00149709146550986, 0.8675,205.545471191406
0.0443318566666667, 228.051744577429, -0.00116523313437059, 0.88,204.289596557617
0.04499861, 228.062453855857, -0.000804112773074703, 0.89375,212.32145690918
0.0456653916666667, 228.073263930064, -0.000835842179342268, 0.90625,212.32145690918
0.0463319033333333, 228.084521280431, -0.00112719504500022, 0.92,202.074661254883
0.046998515, 228.095272634301, -0.000808344060560187, 0.93375,205.420593261719
0.0476652383333333, 228.105871525519, -0.00111340023790425, 0.9475,196.997543334961
0.0483317616666667, 228.11621386055, -0.00112180131591092, 0.96,198.51774597168
0.048999745, 228.129209156633, -0.00142885539292144, 0.975,198.51774597168
0.0496655716666667, 228.143618316853, -0.00173894531745551, 0.9875,199.540603637695
0.0503318183333333, 228.157356158574, -0.001868643802837, 1.00125,206.002990722656
0.050998525, 228.170930355967, -0.00158100925041235, 1.015,199.870788574219
0.05166523, 228.184791625765, -0.00158186420742848, 1.0275,244.009323120117
0.052332395, 228.196702879227, -0.00120344071524104, 1.04125,201.582946777344
0.0529989916666667, 228.206592563521, -0.001001843341262, 1.055,201.582946777344
0.0536653, 228.217633341191, -0.00108850298841999, 1.06875,203.033081054688
0.054332185, 228.228587281232, -0.00156590800884233, 1.08125,199.603332519531
0.0549986366666667, 228.239415366104, -0.00181401504668787, 1.095,203.112426757813
0.05566519, 228.24993686137, -0.00181574145999483, 1.1075,199.840545654297
0.0563323233333333, 228.260105200271, -0.00163451006307016, 1.12125,199.840545654297
0.05699999, 228.270791239692, -0.00160594249801853, 1.135,199.211334228516
0.0576653316666667, 228.281828178001, -0.00125085033391953, 1.14875,205.107940673828
0.058331795, 228.292715506099, -0.00107239979728484, 1.16125,203.361145019531
0.0589989733333333, 228.303421978048, -0.000934285234610132, 1.175,201.819274902344
0.0596653016666667, 228.314975407856, -0.00124082333754092, 1.18875,201.819274902344
0.0603318616666667, 228.325727275978, -0.00114535463281105, 1.2025,196.999114990234
0.0609985683333333, 228.336337030762, -0.0009091914950503, 1.215,198.515029907227
0.0616653616666667, 228.34732348206, -0.0010045372059791, 1.22875,200.382369995117
0.0623323633333333, 228.358420247182, -0.00122782949024632, 1.2425,196.540664672852
0.0629985216666667, 228.368750755199, -0.00102143685707866, 1.25625,196.540664672852
0.0636653333333333, 228.3791034377, -0.00138128228244048, 1.26875,207.432968139648
0.064332815, 228.390005007909, -0.0021134750051482, 1.28375,205.615539550781
0.0649997516666667, 228.400189296689, -0.00208253755909308, 1.295,201.659515380859
0.0656653966666667, 228.410592948564, -0.00186799133555155, 1.30875,199.932235717773
0.06633216, 228.42129266693, -0.00191174413791853, 1.3225,199.932235717773
0.0670001683333333, 228.43171036128, -0.00162826437681355, 1.33625,204.401260375977
0.0676652166666667, 228.441359009533, -0.000888699524409828, 1.35,200.835891723633
0.068332025, 228.451592138289, -0.000946859103114322, 1.3625,249.232620239258
0.0689985883333333, 228.461981524996, -0.00110747403558803, 1.375,206.059860229492
0.0696651516666667, 228.472026982947, -0.00116118183791977, 1.38875,206.059860229492
0.0703318966666667, 228.481878513344, -0.00109697006318542, 1.4025,204.313415527344
0.07099856, 228.492077805903, -0.00165789088868517, 1.415,202.167770385742
0.071665285, 228.50177759345, -0.00178456702586274, 1.42875,206.01139831543
0.0723323, 228.51101685205, -0.00195358003649432, 1.44125,204.880157470703
0.07299856, 228.519998897971, -0.0021596486858421, 1.455,204.880157470703
0.0736659366666667, 228.528968485185, -0.00246538132921956, 1.46875,208.301055908203
0.0743321916666667, 228.536786128573, -0.00259849514308364, 1.48125,211.949752807617
0.0749985416666667, 228.54480536203, -0.00258285992842606, 1.49375,211.286834716797
0.0756652, 228.552195676926, -0.00278548625073701, 1.5075,203.050262451172
0.07633213, 228.559683684151, -0.00255955859884693, 1.52125,203.050262451172
0.0769993133333333, 228.566908074793, -0.00241509335522864, 1.53375,201.282104492188
0.0776653983333333, 228.574671701058, -0.00225866921223902, 1.5475,205.30793762207
0.078331815, 228.582738551242, -0.00254843065780755, 1.56,210.695953369141
0.0789986416666667, 228.590241118335, -0.00239175602742133, 1.57375,202.658081054688
0.079665305, 228.597987927562, -0.00261454733685284, 1.5875,202.658081054688
0.08033244, 228.606582533662, -0.00284186391893163, 1.6,201.196502685547
0.080998745, 228.615308669324, -0.00302527170652675, 1.61375,200.797058105469
0.0816653166666667, 228.623111343442, -0.00269714818783172, 1.62625,201.328659057617
0.0823321333333333, 228.631476988294, -0.00264653323015086, 1.64,198.130340576172
0.0829985366666667, 228.639439660413, -0.00248069556001233, 1.6525,198.130340576172
0.0836652083333333, 228.6466625214, -0.00225876070756385, 1.66625,205.106582641602
0.0843318483333333, 228.653425258709, -0.00184073620454405, 1.67875,199.546813964844
0.0849986833333333, 228.660907837658, -0.00194396251960532, 1.6925,240.951644897461
0.0856658433333333, 228.668573099963, -0.00180116219232969, 1.705,205.46940612793
0.0863318266666667, 228.677009412469, -0.00196728784799615, 1.71875,205.46940612793
0.0869989016666667, 228.685067283958, -0.00168304612516679, 1.7325,197.836669921875
0.0876656433333333, 228.693512483907, -0.00191667289029404, 1.74625,189.340286254883
0.0883318083333333, 228.701433659665, -0.00179097920374938, 1.75875,188.879592895508
0.0889985133333333, 228.709405297076, -0.00198556143006163, 1.7725,190.499313354492
0.08966553, 228.716180845958, -0.00163414708123705, 1.78625,190.499313354492
0.0903320983333333, 228.723364124524, -0.00197708385588914, 1.79875,187.897521972656
0.0909992933333333, 228.729876766311, -0.00197121315081836, 1.8125,186.979110717773
0.0916657266666667, 228.736300948634, -0.00197959023005583, 1.82625,195.586532592773
0.0923320433333333, 228.742297727482, -0.00179550447650291, 1.83875,196.797912597656
0.0929986133333333, 228.748433273431, -0.00204613138779226, 1.8525,196.797912597656
0.0936652033333333, 228.754301025999, -0.00175951228435865, 1.86625,199.336090087891
0.094332495, 228.76067635908, -0.00183940877123463, 1.88,185.112991333008
0.0949987183333333, 228.766452847095, -0.00184337007224251, 1.8925,190.924118041992
0.0956654166666667, 228.772665948045, -0.00216659033723437, 1.90625,197.485397338867
0.09633189, 228.779086398489, -0.00216673133010702, 1.92,197.485397338867
0.0969999783333333, 228.785454634744, -0.00251675374887284, 1.93375,189.301895141602
0.097666835, 228.792455157398, -0.00250485034672569, 1.9475,191.882690429688
0.098331965, 228.799332831083, -0.00273751116040971, 1.96,190.245346069336
0.0989986716666667, 228.80612635918, -0.00246671026247464, 1.97375,189.834503173828
0.0996652133333333, 228.812474425164, -0.00276395483218753, 1.98625,189.834503173828
0.100331858333333, 228.818967107204, -0.00270870960708741, 2,196.700164794922
0.100998711666667, 228.824839435097, -0.00254935761119503, 2.01375,228.263137817383
0.101665846666667, 228.831643996584, -0.00236295297415336, 2.02625,193.533767700195
0.102331923333333, 228.839020422501, -0.0026300430584559, 2.04,192.56982421875
0.102998578333333, 228.846809840784, -0.00239865268097523, 2.05375,192.56982421875
0.103665321666667, 228.854312565795, -0.00218772727553828, 2.0675,188.98291015625
0.10433202, 228.862211587594, -0.00242532434128359, 2.08,196.720062255859
0.104998705, 228.869928255326, -0.00245385890799836, 2.09375,190.295394897461
0.105665291666667, 228.877078654307, -0.00223964566773811, 2.10625,190.827209472656
0.106331873333333, 228.884702275661, -0.00214953319400871, 2.12,190.827209472656
0.106998633333333, 228.892411148309, -0.00200330103908206, 2.13375,186.688613891602
0.107665665, 228.899895798409, -0.00191462399321912, 2.1475,176.987060546875
0.10833189, 228.907791753133, -0.00188703437904844, 2.16,184.855499267578
0.108998525, 228.915419456839, -0.00193205161787866, 2.1725,177.424499511719
0.109665273333333, 228.923139222824, -0.00194691437134103, 2.18625,177.424499511719
0.110332018333333, 228.93075760023, -0.00213405097161902, 2.2,172.541763305664
0.110998711666667, 228.938117323256, -0.00167189568519759, 2.21375,187.951522827148
0.111665848333333, 228.945470683359, -0.00142002683626855, 2.22625,176.638046264648
0.112331831666667, 228.953274524643, -0.00110659057985947, 2.24,173.757034301758
0.112998535, 228.960683445356, -0.000935654665802847, 2.2525,173.757034301758
0.11366543, 228.968291667062, -0.000828554045349084, 2.26625,176.508407592773
0.11433206, 228.976144799313, -0.00120630857112515, 2.28,173.369232177734
0.11499865, 228.984217277867, -0.00116674955813357, 2.29125,171.620407104492
0.115665333333333, 228.99188737681, -0.00137681700664182, 2.305,167.724166870117
0.116331858333333, 228.999717369377, -0.00133996985739641, 2.31875,167.724166870117
0.116998518333333, 229.007653382559, -0.00128464063657222, 2.3325,167.244033813477
0.117665228333333, 229.015490008303, -0.00103959344506194, 2.345,209.407257080078
0.118332145, 229.022651942981, -0.000992722299371737, 2.35875,162.892013549805
0.118998543333333, 229.029964591542, -0.000917367584396483, 2.37125,168.607574462891
0.119665366666667, 229.036713063165, -0.000722720861313632, 2.385,168.607574462891
0.120331863333333, 229.043852575326, -0.000787523606326622, 2.3975,169.420700073242
0.120998518333333, 229.050903585714, -0.00107876697748188, 2.41125,174.826782226563
0.121665258333333, 229.058279790814, -0.00146634001008074, 2.42375,175.99836730957
0.122331875, 229.065994347548, -0.00153404210945407, 2.4375,169.061950683594
0.122998573333333, 229.074302252598, -0.00210052465564004, 2.45,169.061950683594
0.12366539, 229.081698480287, -0.00230860170414636, 2.46375,178.254364013672
0.124331926666667, 229.089343846397, -0.00208817427597821, 2.4775,178.622863769531
0.124998551666667, 229.096567194735, -0.00172127320501197, 2.49,179.290283203125
0.125665375, 229.10406285404, -0.00146829141202694, 2.5025,180.285507202148
0.12633185, 229.109680626673, -0.00118190929669155, 2.51625,180.285507202148
0.126998523333333, 229.115724027102, -0.000885623178842377, 2.53,174.926010131836
0.127665275, 229.121382495257, -0.000685935208968758, 2.54375,178.652389526367
0.128331953333333, 229.128054128596, -0.00109479517237562, 2.55625,184.032089233398
0.128998528333333, 229.134057316735, -0.00140376765299546, 2.56875,180.436370849609
0.12966531, 229.142045872611, -0.00169191817947859, 2.58375,180.436370849609
0.130331821666667, 229.149624931121, -0.00167333861270732, 2.59625,179.881103515625
0.130998531666667, 229.158101499235, -0.00181000724795973, 2.61,180.465148925781
0.131665488333333, 229.165663000581, -0.00149812341356306, 2.6225,177.6357421875
0.132331845, 229.17367293167, -0.00139452211735847, 2.63625,179.600204467773
0.13299854, 229.181451540847, -0.00107974342837467, 2.65,179.600204467773
0.133665331666667, 229.189847248979, -0.00108950193822134, 2.66375,177.099975585938
0.134331915, 229.197338613239, -0.00111855997872287, 2.67625,213.867950439453
0.134999145, 229.205363724694, -0.00107555413885749, 2.69,177.9228515625
0.135665395, 229.213618699032, -0.00105536365300082, 2.70375,179.944396972656
0.13633187, 229.222208288693, -0.00112258577650135, 2.71625,179.944396972656
0.136998521666667, 229.230483775718, -0.00109446368899748, 2.73,172.356964111328
0.137665223333333, 229.23982532853, -0.00131154028545364, 2.74375,169.409225463867
0.138333576666667, 229.248538774366, -0.00140230222657717, 2.75625,171.036727905273
0.138999306666667, 229.25718025157, -0.00140435112365209, 2.77,174.63410949707
0.139666228333333, 229.265764517002, -0.00133495710925433, 2.78375,174.63410949707
0.14033195, 229.274186299041, -0.00145794793162049, 2.7975,175.097869873047
0.140998618333333, 229.282015000982, -0.00143830191840722, 2.81,168.532455444336
0.14166539, 229.290015289059, -0.00132478312036921, 2.82375,177.817031860352
0.142331935, 229.298199311959, -0.00123882543791696, 2.8375,176.861557006836
0.142998613333333, 229.306236597201, -0.0012325377537558, 2.85,176.861557006836
0.143665678333333, 229.314708154177, -0.00127029085742579, 2.86375,182.942413330078
0.144331861666667, 229.323121390162, -0.00142231272152671, 2.87875,172.140716552734
0.144998668333333, 229.331866764052, -0.00156368212068783, 2.89,180.068420410156
0.145665235, 229.340369287682, -0.00157793590473621, 2.90375,172.564483642578
0.14633181, 229.34940088887, -0.00168233816069967, 2.9175,172.564483642578
0.146998866666667, 229.358272167097, -0.00158676746113164, 2.93125,175.139999389648
0.147665331666667, 229.367196245543, -0.00128046934612663, 2.945,176.037811279297
0.148332291666667, 229.376647489835, -0.00121338971544441, 2.9575,176.50927734375
0.148998725, 229.385905115861, -0.00117554661624646, 2.97,180.746429443359
0.149665196666667, 229.395146031388, -0.00120252426121811, 2.98375,180.746429443359
0.150331916666667, 229.404698210912, -0.000984207227067909, 2.9975,176.87370300293
0.150998638333333, 229.414537790996, -0.00099724907200717, 3.01,221.226654052734
0.15166556, 229.42426093715, -0.00104116686605851, 3.02375,181.001647949219
0.15233199, 229.434163252114, -0.000996562106545462, 3.0375,181.763458251953
0.152998703333333, 229.444044218751, -0.00103267129283569, 3.05,181.763458251953
0.153665528333333, 229.454629735574, -0.00134878641469658, 3.06375,184.111114501953
0.154331851666667, 229.464911438531, -0.001529129856247, 3.0775,177.145782470703
0.154998673333333, 229.475132322978, -0.00180337758109839, 3.09,183.208480834961
0.155666341666667, 229.485651297463, -0.00211940270749509, 3.10375,184.119262695313
0.156332246666667, 229.495935591038, -0.00198801230708916, 3.1175,184.119262695313
0.156998656666667, 229.506493675866, -0.00230473339851525, 3.13,185.310531616211
0.157665491666667, 229.51703911008, -0.00238253449063855, 3.14375,188.489547729492
0.158331888333333, 229.527545471768, -0.00223156707356316, 3.15625,187.898529052734
0.158998655, 229.53776546698, -0.00199786081235752, 3.17,184.048065185547
0.159665153333333, 229.548095097993, -0.00216283002613904, 3.1825,184.048065185547
0.160331875, 229.557907056405, -0.00150372263244438, 3.19625,181.216171264648
0.160998533333333, 229.56769486095, -0.00113435568535536, 3.21,179.630859375
