Time (min), Depth (µm), Load (N), Position (µm), Acoustic (aJ)
7.705E-06, 227.401619984155, -0.000855343972670063, 0,301.864776611328
0.000667041666666667, 227.402411278782, -0.00086241761736731, 0.0049999999999998,301.864776611328
0.00133303, 227.402428209923, -0.000800062749405518, 0.0162499999999998,250.289428710938
0.00199991, 227.402831296321, -0.00108667885296907, 0.0300000000000005,250.362243652344
0.00266687333333333, 227.403222354913, -0.00108399248787399, 0.0449999999999999,265.782073974609
0.00333290333333333, 227.404465981199, -0.000980349193743596, 0.0600000000000002,285.912872314453
0.003999645, 227.405841469226, -0.000876219924064039, 0.0750000000000004,285.912872314453
0.00466637333333333, 227.409117977506, -0.000798535826065445, 0.0899999999999998,296.454132080078
0.00533292, 227.413230127577, -0.000816737411823331, 0.103750000000001,293.120544433594
0.00600035833333333, 227.419299789934, -0.00086696088917118, 0.11625,293.806701660156
0.00666626666666667, 227.425346246412, -0.000977214351251943, 0.12875,297.122131347656
0.00733291833333333, 227.432745164778, -0.000921009174342451, 0.1425,297.122131347656
0.00799960333333333, 227.43840697721, -0.000910230715752788, 0.15625,302.581024169922
0.00866664, 227.444450716053, -0.000811199689970068, 0.17,297.436309814453
0.00933293333333333, 227.449322097792, -0.000771189199669346, 0.1825,299.511871337891
0.00999968333333333, 227.454392684297, -0.000641018238037067, 0.195,302.830780029297
0.01066635, 227.458311846574, -0.000936930874624811, 0.20875,302.830780029297
0.0113329166666667, 227.464071280084, -0.000958948268680954, 0.22375,300.822723388672
0.0119996166666667, 227.469862914255, -0.000768553832003978, 0.23625,298.567260742188
0.012666275, 227.477903873385, -0.000577800913288353, 0.25,302.078704833984
0.013333125, 227.491440585633, -0.000491624241873233, 0.2675,299.9208984375
0.01416636, 227.501615964445, -0.00048456709638693, 0.28,302.964752197266
0.0148329366666667, 227.512138178951, -0.00053307915967185, 0.29375,302.964752197266
0.0154996016666667, 227.522884538605, -0.0010217096162623, 0.30625,303.888000488281
0.0161662733333333, 227.533481193808, -0.000996996857564658, 0.32,299.900299072266
0.01683292, 227.544190828602, -0.000904841486415448, 0.3375,367.164764404297
0.0176663033333333, 227.555358612474, -0.00134423091631221, 0.35,301.346832275391
0.01833294, 227.56593412627, -0.00143358142833849, 0.36375,296.391296386719
0.018999945, 227.576984549967, -0.00139905616249441, 0.37625,296.391296386719
0.019666255, 227.587285423058, -0.00152606528293201, 0.39,302.575103759766
0.0203330916666667, 227.59786306589, -0.00155632626297499, 0.40375,294.645812988281
0.0209996666666667, 227.608110359897, -0.00133911617322569, 0.4175,295.888519287109
0.02166659, 227.618845618778, -0.00157609526998933, 0.43,303.280731201172
0.0223329566666667, 227.629045452935, -0.00139869318072506, 0.44375,303.280731201172
0.022999605, 227.640281791051, -0.00119138409364073, 0.4575,298.720092773438
0.0236662466666667, 227.651121580253, -0.00117366998337766, 0.4725,300.538116455078
0.02433296, 227.661860304277, -0.000843014591886111, 0.48375,298.753784179688
0.024999635, 227.6725116655, -0.000453938634737626, 0.49625,238.120819091797
0.02566628, 227.68361549339, -0.000477446953926911, 0.51,238.120819091797
0.0263329366666667, 227.694693333593, -0.000707251911079544, 0.52375,295.196990966797
0.0270008466666667, 227.705866653532, -0.00079133018791444, 0.53625,297.5322265625
0.0276662966666667, 227.717429416464, -0.00115621236023006, 0.55,297.990417480469
0.0283329233333333, 227.728468151862, -0.0013206895987223, 0.5625,297.990417480469
0.0289998683333333, 227.739951108718, -0.00147695924949838, 0.57625,290.606231689453
0.029666355, 227.751043205997, -0.00123469441820248, 0.59,292.788055419922
0.0303329133333333, 227.761996363385, -0.000955394947132013, 0.60375,296.113586425781
0.0309997133333333, 227.773248073283, -0.000932288607767818, 0.61625,293.436462402344
0.0316665183333333, 227.78474544662, -0.000869900741469155, 0.62875,290.813537597656
0.0323328883333333, 227.795723560655, -0.000944172510897732, 0.6425,290.813537597656
0.0329998833333333, 227.807074455895, -0.000900001229579733, 0.65625,295.356109619141
0.0336663433333333, 227.818755663306, -0.00137348244710428, 0.66875,349.920989990234
0.03433315, 227.830421878695, -0.00139110056216303, 0.6825,295.366607666016
0.0349997983333333, 227.842152926183, -0.00159704171791528, 0.695,289.123565673828
0.035666685, 227.853772782731, -0.00154114702542102, 0.70875,289.123565673828
0.0363329333333333, 227.865068259155, -0.00153761170298618, 0.72125,293.442687988281
0.0369998633333333, 227.876339776373, -0.00139038359810698, 0.735,298.723236083984
0.0376662466666667, 227.887472146297, -0.00160291992262933, 0.74875,292.057312011719
0.0383330083333333, 227.898389732151, -0.00138328145484607, 0.76125,294.111328125
0.038999645, 227.909672607784, -0.00154200948212293, 0.775,294.111328125
0.0396663183333333, 227.921099129163, -0.00164146048682358, 0.7875,294.856079101563
0.0403329166666667, 227.932619931235, -0.00192846957064454, 0.80125,291.547576904297
0.04099985, 227.944117386457, -0.00187065647456222, 0.815,306.822814941406
0.0416663366666667, 227.955901133461, -0.00207477672181261, 0.8275,301.271545410156
0.0423330616666667, 227.967056507069, -0.00204539919737067, 0.84,301.271545410156
0.0429996433333333, 227.978837559638, -0.0024616387900743, 0.85375,299.980987548828
0.043666265, 227.990008861748, -0.00239323622585586, 0.8675,304.532989501953
0.04433302, 228.001277717487, -0.00228973692446818, 0.88125,302.753601074219
0.0449996616666667, 228.012401396323, -0.00216725307672036, 0.89375,295.644592285156
0.0456665133333333, 228.023806113252, -0.00208761607680865, 0.90625,295.644592285156
0.046332905, 228.034193559065, -0.00143811870042349, 0.92,296.509857177734
0.0469998816666667, 228.045632604822, -0.00118833174697, 0.93375,300.014953613281
0.0476665066666667, 228.056895024692, -0.00100382001478029, 0.94625,295.362274169922
0.0483331366666667, 228.068210788829, -0.000591459227242369, 0.96,298.683563232422
0.0489996383333333, 228.080822919672, -0.000405458069886428, 0.975,298.683563232422
0.049666395, 228.094303607575, -0.000666456960145885, 0.9875,295.638946533203
0.05033291, 228.107336867705, -0.000841210182488926, 1,363.709777832031
0.0509996616666667, 228.11979533289, -0.000680991230142691, 1.015,288.997680664063
0.051666305, 228.132470806018, -0.00135544585298824, 1.0275,299.355560302734
0.0523329766666667, 228.143632228641, -0.00139996811668037, 1.04,299.355560302734
0.05299987, 228.154090358609, -0.0012543224322804, 1.05375,300.280639648438
0.0536662733333333, 228.164636465237, -0.00132044211115325, 1.06875,294.709045410156
0.0543329383333333, 228.175638589519, -0.00161694721800781, 1.0825,294.101379394531
0.0549995766666667, 228.186486022554, -0.00133574134272324, 1.09375,297.177276611328
0.0556664966666667, 228.197815971649, -0.00119206205957727, 1.10875,297.177276611328
0.056332905, 228.209274550778, -0.00146116954260602, 1.12125,292.802551269531
0.0569997616666667, 228.220250109251, -0.00138218051016405, 1.135,294.927764892578
0.0576663816666667, 228.231533346889, -0.00156531681139967, 1.14875,297.560394287109
0.058332905, 228.242175700674, -0.00169203794630934, 1.16,291.912261962891
0.05899985, 228.253050186068, -0.00189763561933074, 1.175,291.912261962891
0.0596662783333333, 228.263890192627, -0.00187920754498796, 1.18875,296.18798828125
0.06033371, 228.274728076318, -0.00203795957103401, 1.20125,295.574554443359
0.06099962, 228.285067366012, -0.00185343283964278, 1.215,295.877838134766
0.0616662583333333, 228.295533495621, -0.00188956602472346, 1.22875,298.827728271484
0.0623329733333333, 228.305770332015, -0.0023639321977947, 1.2425,298.827728271484
0.062999765, 228.316025146685, -0.00242528811591264, 1.255,296.454559326172
0.0636662866666667, 228.326104666869, -0.00232605910008744, 1.26875,298.369110107422
0.0643329266666667, 228.3362314699, -0.00242807497592148, 1.28125,298.357147216797
0.064999845, 228.346479051251, -0.00232811549680562, 1.295,298.357147216797
0.0656663283333333, 228.356003463629, -0.00199062494861819, 1.30875,294.729461669922
0.06633291, 228.365621197657, -0.00212392325318387, 1.32125,303.992919921875
0.066999615, 228.375407065608, -0.00233779751050772, 1.335,357.778503417969
0.0676663866666667, 228.384945523847, -0.00231965142199527, 1.34875,295.104858398438
0.0683329183333333, 228.394344736171, -0.00226957943705465, 1.3625,302.795349121094
0.0689998633333333, 228.403641555313, -0.00228862248050904, 1.375,302.795349121094
0.069666315, 228.412688806792, -0.00213541117616505, 1.38875,303.564971923828
0.0703329016666667, 228.421439442404, -0.00200021846675925, 1.40125,300.600158691406
0.0709998616666667, 228.430091511397, -0.00167191195724452, 1.415,305.6669921875
0.071666515, 228.438759530951, -0.00154058005395408, 1.4275,301.457885742188
0.072333185, 228.44786037588, -0.00157510831962572, 1.44125,301.457885742188
0.0729995966666667, 228.456501035895, -0.00129923167661735, 1.455,306.390197753906
0.07366626, 228.465165913672, -0.00106646286833378, 1.46875,304.498626708984
0.0743329866666667, 228.473641716714, -0.00134159104895865, 1.48125,305.5361328125
0.075000395, 228.481908261479, -0.0011750859123119, 1.49375,302.931884765625
0.0756666983333333, 228.489667983721, -0.000917245863334546, 1.5075,302.931884765625
0.076333025, 228.498193627203, -0.000865193977862822, 1.52,296.055908203125
0.0769996383333333, 228.50682458728, -0.000878940787399139, 1.53375,299.437377929688
0.0776662866666667, 228.51563093969, -0.000825972447946992, 1.5475,298.645690917969
0.0783329533333333, 228.524798779134, -0.00106089364804679, 1.56,300.964447021484
0.0789998533333333, 228.534230946195, -0.00159505281783775, 1.57375,300.964447021484
0.079667865, 228.543295700935, -0.00176221342151249, 1.58625,298.971221923828
0.0803329266666667, 228.552129409083, -0.00216590164466299, 1.6,303.5009765625
0.080999775, 228.560800379768, -0.00201473623752386, 1.61375,301.314849853516
0.08166647, 228.569186274362, -0.0019126003677588, 1.62625,301.163909912109
0.082332975, 228.577480454645, -0.00125738077871251, 1.64,301.163909912109
0.0829997733333333, 228.585327358388, -0.000868759298785735, 1.65375,373.309936523438
0.0836666433333333, 228.593237204419, -0.000412188231852822, 1.66625,302.750793457031
0.0843329216666667, 228.601323009748, -0.000934295506938189, 1.68,303.751617431641
0.0849996116666667, 228.609309350451, -0.00075263963132238, 1.6925,295.710113525391
0.0856663966666667, 228.617876337437, -0.00127563036209381, 1.705,295.710113525391
0.0863331383333333, 228.626254076889, -0.0016349418142193, 1.71875,300.086761474609
0.0869996566666667, 228.635314473445, -0.0020059766775423, 1.7325,282.187561035156
0.0876665233333333, 228.643617802077, -0.00186077497087197, 1.74625,282.161010742188
0.08833302, 228.651889517426, -0.00240995138629633, 1.75875,284.173004150391
0.0889996383333333, 228.659656036912, -0.00262246371198572, 1.7725,284.173004150391
0.0896664066666667, 228.66724139231, -0.00243260324848132, 1.78625,283.291961669922
0.0903331466666667, 228.673955586717, -0.00249080932486357, 1.79875,286.043975830078
0.0909996033333333, 228.680803333512, -0.0019489975395132, 1.8125,288.641387939453
0.091666525, 228.687667321305, -0.00168009854604027, 1.825,281.032104492188
0.0923329583333333, 228.694807033961, -0.00128221653125372, 1.84,281.032104492188
0.0929999516666667, 228.701712344667, -0.00144529434004392, 1.8525,280.990966796875
0.0936665533333333, 228.708519441005, -0.00130038511867474, 1.86625,283.341094970703
0.0943330616666667, 228.715338661827, -0.00143158052886573, 1.88,283.113220214844
0.0949998366666667, 228.722113077968, -0.0014831509385615, 1.8925,286.641876220703
0.0956663933333333, 228.728480621988, -0.00172004753948297, 1.90625,286.641876220703
0.0963332116666667, 228.734736752798, -0.00162278492486925, 1.92,279.224884033203
0.0969996016666667, 228.741274802484, -0.00180165994015257, 1.9325,280.783966064453
0.09766628, 228.747433410474, -0.00177793413188231, 1.94625,280.650085449219
0.0983330083333333, 228.753705267351, -0.00182007301529382, 1.96,280.650085449219
0.0989997016666667, 228.759321333819, -0.00168788315505344, 1.9725,282.141754150391
0.09966647, 228.765266142429, -0.00167735968361233, 1.98625,344.458221435547
0.100332918333333, 228.770972388983, -0.00180413931561624, 2,280.392822265625
0.100999878333333, 228.776661695988, -0.00214372675850199, 2.01375,284.595001220703
0.101666506666667, 228.781839925053, -0.00217814252980088, 2.02625,282.200836181641
0.102332928333333, 228.787580239004, -0.00222660209575294, 2.04,282.200836181641
0.103000271666667, 228.793224526885, -0.00238073285392615, 2.05375,288.323333740234
0.103666348333333, 228.799054833455, -0.00237507963787258, 2.06625,287.412017822266
0.104332926666667, 228.805081371207, -0.00191138242886706, 2.08,285.168792724609
0.104999663333333, 228.811318416328, -0.00183912055850016, 2.0925,280.709594726563
0.105666511666667, 228.817717408156, -0.0017691805715346, 2.10625,280.709594726563
0.106333141666667, 228.824296435159, -0.00129985114545966, 2.12,278.202209472656
0.107000498333333, 228.83106423077, -0.000824184537675735, 2.13375,277.935302734375
0.107666265, 228.838428852767, -0.000667184423630244, 2.14625,283.243347167969
0.10833294, 228.845871147364, -0.000615833002961112, 2.16,276.707550048828
0.108999913333333, 228.853307487764, -0.000579177844103084, 2.1725,276.707550048828
0.109666991666667, 228.861477741847, -0.000955906421396033, 2.18625,275.593444824219
0.110332926666667, 228.869514835344, -0.00113995467683887, 2.2,275.151214599609
0.110999765, 228.877609507432, -0.00165834213885155, 2.21375,276.152801513672
0.111666358333333, 228.88619971246, -0.00169393685096518, 2.225,277.676940917969
0.112332925, 228.894876910081, -0.0015869607242794, 2.24,277.676940917969
0.112999736666667, 228.903488289163, -0.00139301446597789, 2.2525,274.669067382813
0.113666298333333, 228.912660745136, -0.00146956762082765, 2.26625,267.324859619141
0.114332968333333, 228.920768387256, -0.00108864975389, 2.27875,268.418304443359
0.11499985, 228.929271790674, -0.00115424445915794, 2.2925,272.857788085938
0.115666388333333, 228.937432335668, -0.0010558134032428, 2.305,272.857788085938
0.116332881666667, 228.945762312722, -0.00129926767478177, 2.31875,318.071929931641
0.116999833333333, 228.953654135714, -0.00120701330860069, 2.33125,268.413757324219
0.117666405, 228.96213764387, -0.00122876671594061, 2.345,271.549499511719
0.118332963333333, 228.970550042031, -0.00112865274454745, 2.3575,268.303985595703
0.118999828333333, 228.978985644657, -0.00135039710659671, 2.37,268.303985595703
0.119666266666667, 228.987074129975, -0.00137339245157632, 2.38375,273.760528564453
0.120333048333333, 228.995263288996, -0.00141606230833286, 2.3975,273.300567626953
0.120999676666667, 229.003319430102, -0.00132921517062447, 2.41,266.687683105469
0.12166628, 229.010770295842, -0.00136580283284184, 2.42375,270.687255859375
0.12233294, 229.018763846853, -0.00134539185805539, 2.43625,270.687255859375
0.122999613333333, 229.026442412199, -0.00114425946074763, 2.45,276.609130859375
0.12366631, 229.034030211195, -0.00113933670798472, 2.46375,279.126220703125
0.12433297, 229.041485518234, -0.00105447547046255, 2.47625,271.701110839844
0.124999783333333, 229.049553008489, -0.00130633381987826, 2.49,286.084289550781
0.12566632, 229.056914050551, -0.00142000861011797, 2.5025,286.084289550781
0.126333016666667, 229.0634965901, -0.00127077360600464, 2.51625,286.407562255859
0.126999606666667, 229.070394760402, -0.00139149204245353, 2.53,265.41796875
0.127666316666667, 229.077601899574, -0.00198005347963869, 2.54375,261.1123046875
0.128332936666667, 229.083733883019, -0.00164202295855982, 2.55625,262.396484375
0.128999741666667, 229.090680236244, -0.00147065056641683, 2.56875,262.396484375
0.12966636, 229.09848138889, -0.00180617021364082, 2.58375,265.097900390625
0.130332926666667, 229.106016607274, -0.00167758317243343, 2.59625,268.295959472656
0.13099967, 229.113581948205, -0.0012078052688769, 2.60875,260.577270507813
0.13166655, 229.12210853734, -0.00105798529418254, 2.6225,265.538360595703
0.132332915, 229.130145883571, -0.00113982718334961, 2.635,265.538360595703
0.13299962, 229.138693447061, -0.000919587245774367, 2.65,316.922729492188
0.133666496666667, 229.147358941575, -0.00112781128691471, 2.6625,263.515441894531
0.134333133333333, 229.156374610196, -0.00132361895167697, 2.67625,267.508728027344
0.134999615, 229.164879656166, -0.00182971153118823, 2.68875,261.349273681641
0.135666301666667, 229.173406522761, -0.00176297988303133, 2.7025,261.349273681641
0.13633295, 229.181317339524, -0.00161945509212015, 2.71625,264.705078125
0.136999846666667, 229.189018647488, -0.00133936066096718, 2.73,260.806579589844
0.137666276666667, 229.196356766455, -0.000796540926269046, 2.74375,263.769409179688
0.138332973333333, 229.204384734457, -0.000335455086117179, 2.75625,262.393585205078
0.138999923333333, 229.21256349049, -0.000180280380431772, 2.77,262.393585205078
0.139666263333333, 229.220606001045, 7.06210170446248E-05, 2.78375,256.533660888672
0.140332926666667, 229.229315893949, -0.000100950865065246, 2.7975,261.850708007813
0.140999856666667, 229.238317856563, -0.000524768077193136, 2.81,258.054718017578
0.141666456666667, 229.246995258455, -0.000662050181632745, 2.82375,256.282745361328
0.142333813333333, 229.25536299377, -0.000889549754573743, 2.83625,256.282745361328
0.142999861666667, 229.264029688676, -0.000962065112207293, 2.85,256.383117675781
0.143666506666667, 229.27261970852, -0.000907254865269134, 2.86375,254.834915161133
0.144332968333333, 229.281020957674, -0.000769383290432775, 2.87875,261.141510009766
0.144999626666667, 229.289223231522, -0.000566662472884416, 2.89,259.090393066406
0.145666263333333, 229.297817480276, -0.000372506225145192, 2.90375,259.090393066406
0.146332946666667, 229.30646228118, -0.000606656463995448, 2.9175,257.542999267578
0.146999856666667, 229.315040204381, -0.000696215465577537, 2.93,259.575347900391
0.147666378333333, 229.323876967693, -0.000577620922423724, 2.94375,263.746887207031
0.148333098333333, 229.332934708373, -0.000562524180711934, 2.95625,259.042694091797
0.148999811666667, 229.342020622998, -0.000590140793543127, 2.97,259.042694091797
0.149666273333333, 229.351339875701, -0.000663044631703392, 2.985,316.518371582031
0.150333046666667, 229.361203129617, -0.000647595407693074, 2.9975,260.945404052734
0.150999743333333, 229.37060132019, -0.000846242429839545, 3.01,259.76318359375
0.151666375, 229.38065204724, -0.00138675378051975, 3.02375,259.830810546875
0.152332893333333, 229.390358643739, -0.00125942967587244, 3.03625,259.830810546875
0.152999578333333, 229.400069999953, -0.00114429095911759, 3.05,276.279449462891
0.153666265, 229.409197573056, -0.000971643631019301, 3.06375,264.240692138672
0.154332896666667, 229.419375055525, -0.00104314203975866, 3.0775,262.311004638672
0.154999771666667, 229.428581291086, -0.000814349531748262, 3.09,260.283905029297
0.15566646, 229.438517309961, -0.000809059297464046, 3.10375,260.283905029297
0.156332923333333, 229.448416248469, -0.0007805337302957, 3.11625,264.820922851563
0.15699965, 229.458821547259, -0.000699012824972186, 3.13,261.971984863281
0.157666391666667, 229.468575104443, -0.000438528408825555, 3.14375,265.574584960938
0.158332893333333, 229.479077613434, -0.000370989801212178, 3.15625,265.058441162109
0.158999875, 229.48912263656, -0.000398081440459723, 3.17,265.058441162109
0.159666283333333, 229.4991537603, -0.000187403522591819, 3.1825,274.598541259766
0.160332951666667, 229.509174987606, -0.000406412022040696, 3.19625,262.079711914063
