Time (min), Depth (µm), Load (N), Position (µm), Acoustic (aJ)
8.99E-06, 226.799905635031, 0.000152995783118083, 0,167.051879882813
0.00066479, 226.800078454523, 0.000114288727336333, 0.00500000000000001,167.051879882813
0.00133050666666667, 226.799754965266, 0.000224773177817706, 0.0174999999999999,174.421829223633
0.00199748166666667, 226.800126329578, 0.000280166895476257, 0.0325,176.518692016602
0.00266372833333333, 226.800686225588, 0.000179235465134544, 0.0475,183.038116455078
0.003330435, 226.802413414629, 0.000266081102982295, 0.0599999999999999,191.993637084961
0.003997155, 226.806027363, 0.000282017802487434, 0.075,191.993637084961
0.004663715, 226.811760024233, 0.000273909209781906, 0.0887499999999999,193.226974487305
0.00533041666666667, 226.819257382464, 0.000465839569324122, 0.1025,199.178207397461
0.00599719833333333, 226.829109342516, 0.00060073379373117, 0.11625,191.367965698242
0.00666381333333333, 226.839519820396, 0.000565712052845847, 0.12875,192.411209106445
0.00733053, 226.849398582811, 0.000565163080407984, 0.1425,192.411209106445
0.00799736, 226.858425835702, 0.000812353664251844, 0.15625,185.908081054688
0.00866373666666667, 226.866382506328, 0.000391081824303873, 0.17,193.06413269043
0.00933065333333333, 226.873040293392, 0.000180889882006387, 0.1825,190.540588378906
0.009997225, 226.879390955629, -6.76671332026363E-05, 0.19625,190.319366455078
0.01066384, 226.885802248227, -0.00015013449095213, 0.20875,190.319366455078
0.0113304416666667, 226.892920818462, -0.000590998346771095, 0.2225,189.928344726563
0.011997405, 226.901263112055, -0.000378522019267381, 0.23625,186.473861694336
0.0126642316666667, 226.910711739131, -0.00040360075958318, 0.25,188.192718505859
0.01333035, 226.921168211805, 1.03394485851672E-05, 0.2625,230.385284423828
0.0139974083333333, 226.938433711107, -0.000130144995050512, 0.27875,230.385284423828
0.014830905, 226.950143629839, -0.00031399676035401, 0.29375,190.245346069336
0.0154970466666667, 226.962276612951, -0.00033633213846866, 0.30625,196.091903686523
0.0161640283333333, 226.973792445902, -0.000380113439356795, 0.32,186.87841796875
0.0168306016666667, 226.985734384691, -0.00050344324461684, 0.33375,187.134246826172
0.0174970216666667, 226.99717001058, -0.000169644011023452, 0.34625,189.979965209961
0.0181640433333333, 227.008978554951, -0.000131886407537743, 0.36,189.979965209961
0.0188309733333333, 227.020496874377, 0.000167816538675911, 0.37375,193.748229980469
0.0194980466666667, 227.032058615113, 0.000143598755137615, 0.3875,189.842956542969
0.020164335, 227.044132625142, 7.43457336550113E-05, 0.4,193.673477172852
0.0208303783333333, 227.055862356666, 0.000122226328638635, 0.41375,190.19270324707
0.0214985383333333, 227.067651488876, 0.000112670308628914, 0.4275,190.19270324707
0.02216393, 227.079404404668, -0.000250537947797625, 0.44,200.075393676758
0.0228303816666667, 227.091793439493, -0.000465657142609977, 0.45375,204.566116333008
0.0234971616666667, 227.103317250103, -0.000142589869971006, 0.4675,196.027008056641
0.0241639966666667, 227.115333695482, -0.000203312819884495, 0.48125,195.713760375977
0.0248318166666667, 227.126908007189, 2.81405544636212E-05, 0.49375,195.713760375977
0.0254972833333333, 227.138989986641, 0.000144311219356687, 0.5075,198.816009521484
0.0261638566666667, 227.150947637159, -0.000227628098530257, 0.52125,194.708587646484
0.0268306233333333, 227.163089443574, -0.000451559350678282, 0.53375,193.378982543945
0.0274970383333333, 227.175668959244, -0.000500665384154417, 0.5475,193.845397949219
0.0281639883333333, 227.187987978467, -0.000773854162185814, 0.56,193.845397949219
0.0288305216666667, 227.200311433536, -0.000555043652779421, 0.57375,202.28581237793
0.02949795, 227.212227768666, -3.8174114560394E-05, 0.5875,150.833435058594
0.0301643033333333, 227.224394874403, 0.000123793749980106, 0.6,226.074493408203
0.030830475, 227.236138110276, 0.000127239076950758, 0.6125,187.731002807617
0.0314979216666667, 227.248162549083, 0.000199233960710107, 0.62625,187.731002807617
0.0321639283333333, 227.259918463031, 0.000141320369607747, 0.63875,192.470321655273
0.032831025, 227.272150283594, -0.00011174391928323, 0.65375,187.550216674805
0.0334983866666667, 227.283490589332, -9.56332285048047E-05, 0.6675,188.806259155273
0.0341651733333333, 227.294769067775, 1.01039604538557E-05, 0.67875,182.984481811523
0.0348308316666667, 227.306029786171, 0.000164368211920215, 0.6925,182.984481811523
0.035497465, 227.317058351645, 0.000177140070445636, 0.70625,183.188598632813
0.036164, 227.328034727808, 0.000472515734033252, 0.71875,183.676132202148
0.0368310483333333, 227.338654626125, 0.000597939434142819, 0.73125,184.807601928711
0.037497105, 227.349753435648, 0.000533369177391079, 0.745,186.259826660156
0.0381637433333333, 227.360607752973, 0.00046045034002929, 0.75875,186.259826660156
0.0388324183333333, 227.371658758989, 0.000510735314256418, 0.7725,186.627075195313
0.0394972, 227.382239985505, 0.000560510314122677, 0.78375,188.152816772461
0.0401637633333333, 227.392615901429, 0.000649070365882163, 0.79875,187.895843505859
0.04083079, 227.402280921077, 0.000866025468482914, 0.81125,187.534515380859
0.0414978283333333, 227.412139616822, 0.000902229150010545, 0.82375,187.534515380859
0.042164455, 227.42139640076, 0.000791557208936257, 0.8375,191.344970703125
0.0428304683333333, 227.430687137501, 0.000802256171553801, 0.85,188.820114135742
0.0434978133333333, 227.44040063866, 0.000485583077666114, 0.8625,194.017730712891
0.0441641783333333, 227.449495661316, 0.000220114411834785, 0.87625,214.352188110352
0.0448304116666667, 227.458152808814, 0.000172245816161371, 0.89125,214.352188110352
0.0454983566666667, 227.467194524983, 0.000156961583877919, 0.90375,223.328811645508
0.0461640766666667, 227.475869929823, 0.000294861657277941, 0.9175,225.838973999023
0.0468304166666667, 227.484316217819, 0.000409619393128089, 0.93125,269.150024414063
0.04749748, 227.493032192499, 0.000353871693289115, 0.94375,230.298400878906
0.04816375, 227.50173334311, 0.000249020959865321, 0.9575,230.298400878906
0.0488311416666667, 227.509894460498, 4.75735783266148E-05, 0.97,237.817428588867
0.04949768, 227.518470975199, -0.00055916244593466, 0.98375,232.901473999023
0.050163765, 227.526968569409, -0.000825915047225211, 0.9975,233.794189453125
0.0508305233333333, 227.535618134586, -0.000937137460640511, 1.01,230.093490600586
0.0514971083333333, 227.544671628624, -0.000978212897458833, 1.02375,230.093490600586
0.0521642533333333, 227.553462330891, -0.00118341759022282, 1.0375,234.427703857422
0.0528309683333333, 227.561908725711, -0.00108493703678111, 1.05125,228.713989257813
0.0534986033333333, 227.570633885849, -0.000983170148419256, 1.06375,231.215087890625
0.05416379, 227.579522192719, -0.000823578164537345, 1.0775,234.49919128418
0.0548307733333333, 227.587974498608, -0.000886456506243398, 1.09125,234.49919128418
0.055497885, 227.597048697801, -0.000637485511792805, 1.10375,231.7431640625
0.0561651083333333, 227.605791267081, -0.000845064585312226, 1.1175,229.48078918457
0.0568304133333333, 227.614732696773, -0.000932906173133773, 1.13125,229.999923706055
0.0574974966666667, 227.623187685662, -0.00122975026303099, 1.14375,230.473236083984
0.058164285, 227.631963152359, -0.00131533596412496, 1.1575,230.473236083984
0.05883211, 227.64020899089, -0.00118740139018176, 1.17125,227.84814453125
0.05949797, 227.648815188628, -0.000809619865745185, 1.185,224.524566650391
0.060164515, 227.657118687511, -0.000584824656970851, 1.19875,238.160842895508
0.0608307316666667, 227.665700353121, -8.35828337873838E-05, 1.21125,231.335159301758
0.0614970983333333, 227.673460174555, 0.000464057658835494, 1.225,231.335159301758
0.0621646366666667, 227.682167319817, 0.000523382678992606, 1.2375,235.43359375
0.06283049, 227.690488150097, 0.000509257888485414, 1.25125,276.175201416016
0.0634971583333333, 227.699625690339, 0.000282988253788883, 1.265,234.33772277832
0.0641637783333333, 227.708087936146, -0.000144188789597419, 1.2775,230.350540161133
0.0648307616666667, 227.716638651135, -2.23094115116279E-05, 1.29125,230.350540161133
0.0654972783333333, 227.725013677436, 2.98849668634216E-05, 1.305,237.526840209961
0.066163985, 227.733476819592, -0.000413938240377031, 1.3175,236.36994934082
0.0668307733333333, 227.741227633322, -0.00020149491121019, 1.3325,224.163619995117
0.0674973183333333, 227.750142744626, -6.16704344182148E-05, 1.34375,223.974487304688
0.068163735, 227.759253515351, -0.000167403123603665, 1.3575,223.974487304688
0.0688305916666667, 227.768464506484, -0.000252594344515812, 1.37125,224.791305541992
0.0694976416666667, 227.777751065242, 0.000193600243567512, 1.385,230.604354858398
0.07016401, 227.787221845208, 0.000149742446513556, 1.3975,222.882476806641
0.070830565, 227.796450398543, 0.000188377505945204, 1.41125,214.048538208008
0.07149721, 227.805673930041, -0.000129714516619252, 1.42375,214.048538208008
0.0721645083333333, 227.814157171447, 0.00011608413714459, 1.4375,210.729217529297
0.0728308116666667, 227.822757177862, 0.000184413205046008, 1.45125,208.242965698242
0.073497115, 227.831064217336, 0.000196885078605761, 1.46375,213.930801391602
0.0741639983333333, 227.839158995203, 0.00035228327311227, 1.47625,208.305389404297
0.0748307416666667, 227.847589117818, 0.000393204217738311, 1.49,208.305389404297
0.075497125, 227.856440216574, 0.00026172082204064, 1.50375,215.66584777832
0.0761642516666667, 227.864905570317, 3.30480200742084E-06, 1.5175,205.148132324219
0.076830785, 227.872697754494, -1.83706092422711E-05, 1.53,204.337814331055
0.077497455, 227.880382371108, -0.000316455136769761, 1.5425,203.248352050781
0.07816378, 227.887289696495, -0.000195609206767847, 1.55625,203.248352050781
0.0788307566666667, 227.89379597164, -0.000287086612023022, 1.56875,202.957489013672
0.0794981266666667, 227.900610242961, -0.000185399219654543, 1.5825,245.834274291992
0.08016378, 227.907536571715, -0.000304955214520877, 1.59625,207.969787597656
0.0808304, 227.914133838969, -3.79536257368775E-05, 1.60875,212.242324829102
0.08149758, 227.9207224891, -0.000162513369220135, 1.6225,212.242324829102
0.0821644616666667, 227.926950522894, -0.000173113336784556, 1.63625,210.519973754883
0.08283062, 227.932970155637, -0.000346548125322085, 1.64875,211.90104675293
0.0834973983333333, 227.938974796811, -0.000394397221893241, 1.6625,213.518218994141
0.0841654733333333, 227.944638292821, -0.000543695222831503, 1.675,213.51530456543
0.08483194, 227.950191532949, -0.000521290848194304, 1.68875,213.51530456543
0.0854973683333333, 227.954159087532, -0.000698241460106929, 1.70125,217.781646728516
0.086164515, 227.957276302471, -0.000495921122438002, 1.715,235.465133666992
0.086831035, 227.960168165971, -0.000109120551055596, 1.72875,253.937225341797
0.087497105, 227.963526060074, 4.40097573918677E-05, 1.74125,247.871444702148
0.0881637866666667, 227.967124288163, 0.000104137237274756, 1.75375,247.871444702148
0.0888305733333333, 227.972132367189, 0.000384867636438471, 1.76875,259.170715332031
0.0894976766666667, 227.97799787428, 0.000213475745256991, 1.78125,264.576751708984
0.090165295, 227.984110165521, 4.00259574541756E-05, 1.795,258.544494628906
0.0908318516666667, 227.989743092473, -1.28568862857315E-05, 1.80875,252.904373168945
0.0914973233333333, 227.994749170859, 0.00012709058430731, 1.82125,252.904373168945
0.0921639533333333, 228.000048948976, 0.000110702407493029, 1.835,259.603912353516
0.09283043, 228.004979844327, 0.000421674287661228, 1.84875,257.75732421875
0.0934973383333333, 228.010043392405, 0.00031317123763537, 1.8625,256.9716796875
0.0941637683333333, 228.015155399863, 0.000481750770071897, 1.875,256.575775146484
0.094830755, 228.021408814222, 0.000187909529425117, 1.8875,256.575775146484
0.09549722, 228.027270564603, -0.000149851005239914, 1.9025,245.350616455078
0.096163745, 228.0332113058, 2.88332310132663E-06, 1.915,298.951019287109
0.09683049, 228.039552954523, 0.000265143650060226, 1.92875,254.088745117188
0.0974980033333333, 228.046512341361, -0.00012690815761442, 1.9425,251.390563964844
0.0981645316666667, 228.053247020258, -0.000115028754300225, 1.955,251.390563964844
0.09883064, 228.060674934813, 1.98054731094388E-05, 1.96875,250.605117797852
0.0994979333333333, 228.068105176259, -0.00032340878757851, 1.9825,252.531997680664
0.100164386666667, 228.07573150573, -0.000403303774572589, 1.99625,258.593719482422
0.100830461666667, 228.082823782885, -0.000379904949864742, 2.00875,246.45556640625
0.101497306666667, 228.090022475688, -0.000419412965405357, 2.0225,246.45556640625
0.102164051666667, 228.096885640306, -0.000501041865264651, 2.03625,251.779312133789
0.102830433333333, 228.103810277161, -0.000365421677361409, 2.04875,247.430389404297
0.10349713, 228.110592609659, -0.000454977679030929, 2.0625,252.176681518555
0.104163965, 228.117270260282, -0.000225222219383604, 2.075,261.477020263672
0.104830818333333, 228.123826135837, -3.52147632664303E-05, 2.08875,261.477020263672
0.105497233333333, 228.130288360866, 0.00014325377243985, 2.1025,253.549606323242
0.106163966666667, 228.136614459168, 0.000362071781468258, 2.11625,253.250122070313
0.106830511666667, 228.142858705456, 0.000385509604189336, 2.12875,256.084869384766
0.107499186666667, 228.149460298127, 0.00034579309911416, 2.1425,260.219512939453
0.10816379, 228.155702257259, 0.000304248185851348, 2.15625,260.219512939453
0.1088304, 228.162400166062, 0.00030314724114807, 2.16875,258.984252929688
0.109497278333333, 228.168876161828, 0.000167408559174463, 2.1825,257.147125244141
0.110163751666667, 228.175417170956, 0.000270814865185379, 2.19625,259.037994384766
0.11083062, 228.18154905771, 8.61201422184705E-05, 2.20875,256.809356689453
0.111498373333333, 228.187652405565, 6.4674219402477E-05, 2.2225,256.809356689453
0.11216396, 228.193512822899, 0.000360795345567291, 2.23625,254.557601928711
0.11283045, 228.200202650974, 0.000152379314060819, 2.24875,312.591735839844
0.113497275, 228.206475302067, 2.97124754932846E-05, 2.2625,255.292068481445
0.11416425, 228.21297783312, 2.72181007855849E-05, 2.275,253.647659301758
0.114830471666667, 228.219652518553, -2.46897919434259E-05, 2.28875,253.647659301758
0.115497138333333, 228.226103943045, -0.00036856251957193, 2.30125,251.892517089844
0.116164531666667, 228.231729032889, -0.000146836156658014, 2.315,253.235687255859
0.116830763333333, 228.237261631782, -8.19539156303966E-05, 2.32875,249.482391357422
0.1174973, 228.243168783433, -0.000131631420367935, 2.34125,250.052139282227
0.11816396, 228.248603228372, -0.000133201841473195, 2.35375,250.052139282227
0.118830533333333, 228.254094383862, -0.000187533612462953, 2.3675,251.48991394043
0.119497108333333, 228.260382315202, -0.000430698398528337, 2.38125,247.095748901367
0.120163755, 228.26628860628, -0.000558347986834913, 2.39375,253.363388061523
0.120831016666667, 228.272230499913, -0.000642210274513232, 2.40625,249.692474365234
0.121497291666667, 228.278435093772, -0.000561925307131797, 2.42,249.692474365234
0.122164798333333, 228.285537933877, -0.000757504983406016, 2.43375,255.980834960938
0.122830946666667, 228.292561552076, -0.000627395518653016, 2.44625,255.274932861328
0.123497575, 228.300953253296, -0.000922987171354701, 2.45875,261.344268798828
0.124164148333333, 228.309045160187, -0.000565751614943385, 2.4725,263.161590576172
0.124830535, 228.318252766175, -0.000518169504937263, 2.48625,263.161590576172
0.125497103333333, 228.327073940036, -0.000417130079996008, 2.49875,258.575103759766
0.126164038333333, 228.33665953373, -0.000238312061861261, 2.5125,252.734848022461
0.126830768333333, 228.345958385456, 0.000257420537990098, 2.52625,254.862869262695
0.12749718, 228.357177452729, 0.000210438397851549, 2.53875,256.091033935547
0.1281641, 228.368719448457, 0.000243961714002968, 2.5525,256.091033935547
0.128830488333333, 228.380383920463, 0.0005742886220077, 2.56625,253.12809753418
0.12949711, 228.391779006044, 0.00053802944323464, 2.58,294.781219482422
0.130164171666667, 228.404041710987, 0.000505284587976037, 2.59375,249.492233276367
0.130830746666667, 228.414888136203, 0.00065153624191993, 2.60625,250.650253295898
0.131497376666667, 228.425597726485, 0.000517702464257272, 2.61875,250.650253295898
0.132164091666667, 228.436397176206, 0.000407359006712314, 2.6325,243.884292602539
0.132830745, 228.447868454587, 0.00010143137314118, 2.64625,252.006744384766
0.133497468333333, 228.458686167099, 0.000202934274744296, 2.66,244.028549194336
0.134163751666667, 228.469948403669, -4.90815667762621E-05, 2.6725,244.162628173828
0.134830895, 228.480725059301, 0.000369698898312816, 2.68625,244.162628173828
0.135497241666667, 228.491750505365, 0.000502029751447107, 2.7,243.426361083984
0.136163808333333, 228.502479700428, 0.000603936132778461, 2.71375,243.913070678711
0.136830501666667, 228.513217882312, 0.0004793073927514, 2.72625,243.171981811523
0.137497141666667, 228.523884533263, 0.000540229832716793, 2.74,243.12873840332
0.13816395, 228.534633848633, 3.523969785447E-05, 2.75375,243.12873840332
0.138831091666667, 228.545504857331, -3.30536607047419E-06, 2.7675,246.219818115234
0.139497305, 228.556126109211, 3.76170784374615E-05, 2.78,246.526550292969
0.140164563333333, 228.566715386426, 0.00037423317059152, 2.7925,244.055740356445
0.140830446666667, 228.577619020379, 0.000387432507571869, 2.8075,244.494644165039
0.1414973, 228.588378115854, 0.000756580465655507, 2.82,244.494644165039
0.142164651666667, 228.599048942353, 0.00104916026970911, 2.83375,236.300048828125
0.142830648333333, 228.609709625708, 0.00118833977888016, 2.8475,243.445709228516
0.143497175, 228.620962574512, 0.00115410699833722, 2.86125,237.115325927734
0.144164486666667, 228.631758068725, 0.00109994921862075, 2.87375,245.136810302734
0.144830423333333, 228.643210303707, 0.00105360154663231, 2.8875,245.136810302734
0.145498335, 228.654783125426, 0.000778998339654844, 2.9,291.022796630859
0.146164715, 228.666588503606, 0.000602956682036863, 2.915,243.057434082031
0.146830703333333, 228.677884004016, 0.000423517695092897, 2.92875,244.4775390625
0.147497491666667, 228.689424926703, 0.000491098300589565, 2.94125,250.09147644043
0.148163753333333, 228.700077490572, 0.000462698727049839, 2.95375,250.09147644043
0.14883078, 228.711575788653, 0.000170666395530945, 2.96625,249.930526733398
0.149497188333333, 228.722518772546, 0.000258044506626869, 2.98125,244.602615356445
0.150163775, 228.733666480501, 0.000103952746509393, 2.99375,245.216293334961
0.150830723333333, 228.745122559797, -0.000114620774777523, 3.0075,241.960723876953
0.151497126666667, 228.756192923371, -0.000541674824277741, 3.02,241.960723876953
0.152165776666667, 228.766368033114, -6.17409308439138E-05, 3.03375,249.378204345703
0.152831031666667, 228.776901466646, -0.000189755000822989, 3.0475,247.461044311523
0.153498355, 228.787366921901, -0.000240888932432394, 3.06,251.912185668945
0.154163791666667, 228.797502788696, 0.000147536057418806, 3.07375,260.543304443359
0.15483039, 228.808264708254, 0.000284083198815802, 3.0875,260.543304443359
0.155497328333333, 228.819198243679, -0.000175244729637889, 3.1,261.830780029297
0.156163906666667, 228.83009060082, -0.000209855491172957, 3.11375,266.293670654297
0.15683043, 228.84076789559, -0.000122490879417916, 3.12625,253.260131835938
0.157497298333333, 228.851462236173, -0.000384505218732173, 3.14,254.075332641602
0.158164468333333, 228.86224081781, -0.000307668578148944, 3.1525,254.075332641602
0.158830521666667, 228.872368492621, -9.29873613473594E-05, 3.16625,255.02375793457
0.159497598333333, 228.883008614913, 0.000144347217542365, 3.18,253.56201171875
0.160164563333333, 228.893434450303, -1.71706695708862E-05, 3.19375,258.298828125
