Time (min), Depth (µm), Load (N), Position (µm), Acoustic (aJ)
1.013E-05, 226.787736454282, 6.90267810395466E-05, 0,306.737884521484
0.000665631666666667, 226.788521871828, -0.000254443971348918, 0.00500000000000001,256.113220214844
0.00133272833333333, 226.789016662838, -0.000509531658536193, 0.0174999999999999,248.113906860352
0.00200032, 226.790059410746, -0.000666923252914697, 0.0325,253.747741699219
0.002667, 226.79042419708, -0.000973806338500738, 0.0475,251.236022949219
0.003334795, 226.792111740552, -0.00100743464938164, 0.0599999999999999,251.236022949219
0.003998925, 226.793958462658, -0.00084755467995054, 0.075,261.749237060547
0.00466554833333333, 226.797574437441, -0.000914800802262774, 0.0887499999999999,259.685394287109
0.00533359833333333, 226.802103889984, -0.000939200076717626, 0.10375,260.563232421875
0.00600024166666667, 226.80835706083, -0.000982567398427954, 0.11625,260.642974853516
0.00666695166666667, 226.814550834671, -0.00103702666299199, 0.13375,260.642974853516
0.00749902, 226.821036738924, -0.00119479473848073, 0.14625,270.225372314453
0.00816555, 226.826798378817, -0.00115845756368121, 0.16,265.830505371094
0.00883254, 226.83249014514, -0.00139597363350874, 0.17375,266.479400634766
0.00949887, 226.837262265355, -0.00132190135406831, 0.18625,263.809600830078
0.0101655166666667, 226.843296469159, -0.00136252681348063, 0.2,270.033813476563
0.0108324433333333, 226.850654524284, -0.00110948052374626, 0.2125,270.033813476563
0.0114989533333333, 226.859227453446, -0.00108115444656605, 0.2275,267.207733154297
0.0121654616666667, 226.869688220215, -0.000881179991067651, 0.24,262.318328857422
0.01283245, 226.881193664393, -0.000668025697606141, 0.25375,268.731597900391
0.0134988216666667, 226.892589556819, -0.000382300549286905, 0.2675,267.062164306641
0.014165795, 226.904529969268, -0.000375384396694508, 0.28,267.062164306641
0.0148323666666667, 226.916123568885, -0.000398778721586637, 0.29375,263.2216796875
0.015498955, 226.927462753793, -0.00057528535583339, 0.3075,315.282531738281
0.0161656383333333, 226.939444389979, -0.000753117923465164, 0.32125,263.280487060547
0.0168324133333333, 226.951243602486, -0.00102969803114619, 0.33375,266.588714599609
0.017499345, 226.963301473426, -0.00128556567917193, 0.34875,266.588714599609
0.018165595, 226.975369468765, -0.00174051682747303, 0.36125,267.004364013672
0.018832185, 226.986958212805, -0.00151927344028072, 0.37375,266.250793457031
0.0194989083333333, 226.997778790821, -0.00130743158086335, 0.3875,272.019439697266
0.020165825, 227.008802985242, -0.000986074222341648, 0.40125,260.103759765625
0.020833285, 227.0193207936, -0.000826194252931803, 0.41375,260.103759765625
0.021498865, 227.030402539395, -0.000351480097335239, 0.4275,267.997100830078
0.02216589, 227.041292668448, -0.00020815029663899, 0.44125,262.243927001953
0.0228324333333333, 227.052796021171, -0.00014000571948168, 0.455,262.870330810547
0.0234990066666667, 227.064459051395, -0.000372033564940007, 0.46875,272.395904541016
0.0241662283333333, 227.075926229941, -0.000198265793121193, 0.48125,272.395904541016
0.0248322133333333, 227.087481865101, -0.000169906717540354, 0.49375,266.541900634766
0.0254988566666667, 227.099037408202, -0.000439452178537361, 0.5075,264.41650390625
0.0261655233333333, 227.111210953399, -0.000822156455673085, 0.52125,265.485870361328
0.0268322066666667, 227.122888828374, -0.000891014997016378, 0.535,271.824249267578
0.027498905, 227.141667487473, -0.00159130582219266, 0.55125,271.824249267578
0.028332175, 227.153449358919, -0.00137344626504922, 0.56375,261.835815429688
0.028998965, 227.16542462604, -0.00118365329814297, 0.57625,263.871215820313
0.0296658266666667, 227.177253694524, -0.00139827301802276, 0.59,263.135375976563
0.0303324616666667, 227.189083355058, -0.00110479325919968, 0.60375,264.687805175781
0.0309991233333333, 227.20021205757, -0.000879872056732961, 0.6175,264.687805175781
0.0316659783333333, 227.211479665401, -0.00099414531691584, 0.63,265.157257080078
0.0323323866666667, 227.222371132761, -0.000759840585830795, 0.6425,314.547119140625
0.0329988883333333, 227.232842489465, -0.000349644189568094, 0.65625,262.042175292969
0.033665865, 227.242929853519, -0.000148852275163644, 0.67,262.467132568359
0.03433233, 227.253579583723, -0.000264812950555238, 0.68375,262.467132568359
0.0349989083333333, 227.264005030687, -0.00040150108484614, 0.69625,263.828552246094
0.0356657, 227.274619820245, -0.000345232911154219, 0.70875,255.738067626953
0.0363326183333333, 227.284993137987, -0.000446201839563505, 0.7225,254.938949584961
0.0369988766666667, 227.295181587861, -0.000640164597033454, 0.73625,261.612365722656
0.0376660566666667, 227.304942678083, -0.000638232694061993, 0.74875,258.124969482422
0.0383321966666667, 227.314803591425, -0.000971785939989484, 0.76125,258.124969482422
0.03899886, 227.324411404406, -0.000941811445592542, 0.775,264.644744873047
0.0396659283333333, 227.334240029449, -0.00102129845306392, 0.78875,264.554351806641
0.040332345, 227.344286340048, -0.00118586118724714, 0.8025,257.1484375
0.040998865, 227.354454848201, -0.00104513825561009, 0.81875,260.427001953125
0.04183221, 227.364438197806, -0.000590338599758739, 0.83125,256.851715087891
0.0424989283333333, 227.374095781023, -0.000734652351012304, 0.84375,256.851715087891
0.0431657783333333, 227.383699859287, -0.000635595826535984, 0.8575,257.955841064453
0.043832315, 227.392982882123, -0.000570136114485588, 0.87,262.435363769531
0.044499025, 227.401883917987, -0.000722637954480561, 0.885,268.683898925781
0.045165725, 227.411001483885, -0.000988822084358515, 0.89875,268.252563476563
0.0458325183333333, 227.419854463862, -0.000836459737375552, 0.91125,268.252563476563
0.04649892, 227.428800508897, -0.000686174786031167, 0.92375,270.309783935547
0.0471654966666667, 227.437813470481, -0.000740530555832631, 0.9375,278.979125976563
0.0478322066666667, 227.447295823041, -0.000582762480365146, 0.9525,273.600158691406
0.04866578, 227.460854034657, -0.000523014481420045, 0.9675,329.487823486328
0.0493323566666667, 227.470119502456, -0.000674422876333757, 0.98125,275.0078125
0.0499988666666667, 227.479099106677, -0.000697037240451175, 0.99375,275.0078125
0.0506656266666667, 227.488265819967, -0.000657590721811094, 1.0075,278.71240234375
0.0513596766666667, 227.496837603967, -0.000729437113054521, 1.0225,276.434600830078
0.0519989766666667, 227.506198217885, -0.000749804590033285, 1.035,277.044281005859
0.0526655983333333, 227.515650806984, -0.00107286586301715, 1.04875,282.938446044922
0.05333258, 227.525078357656, -0.0011049057536787, 1.06125,282.938446044922
0.053998935, 227.533865995768, -0.000833192901557666, 1.075,275.919891357422
0.0546655183333333, 227.543271824141, -0.000931634456964889, 1.08875,272.743560791016
0.05533251, 227.551716452433, -0.00124599166712761, 1.10125,281.022033691406
0.055998825, 227.560347543015, -0.00112492974792661, 1.115,281.327575683594
0.056665555, 227.568968155125, -0.00138480519463799, 1.1275,281.327575683594
0.0573326166666667, 227.577771182956, -0.00154800899705681, 1.1425,275.811248779297
0.0579988183333333, 227.585817202861, -0.00121165389179143, 1.155,277.783843994141
0.0586658, 227.594213464577, -0.000624512883292459, 1.16875,274.817932128906
0.0593330133333333, 227.603168387528, -0.000492796999248521, 1.1825,271.994598388672
0.05999893, 227.612006821422, -0.000592565987943913, 1.195,271.994598388672
0.0606655566666667, 227.621013293153, -0.000654212891481097, 1.20875,275.622985839844
0.0613321866666667, 227.63143177789, -0.00123477373053901, 1.2225,279.331878662109
0.0619989316666667, 227.641929930294, -0.00178884290021696, 1.235,278.959136962891
0.062665545, 227.652295947781, -0.00185725746383062, 1.24875,274.398529052734
0.0633321833333333, 227.662333583429, -0.00147576512578276, 1.26125,274.398529052734
0.0639988333333333, 227.672667779142, -0.00138362625382324, 1.275,280.106170654297
0.0646656366666667, 227.682333748333, -0.000728369166730623, 1.28875,277.332458496094
0.065333015, 227.69210402885, -0.000517431761877193, 1.3025,328.102752685547
0.0659990666666667, 227.702070117624, -0.0003236504953238, 1.315,274.776885986328
0.0666655033333333, 227.712479631008, -0.000198010806057656, 1.3275,274.776885986328
0.0673321716666667, 227.723135084685, -0.000194025506259322, 1.3425,276.607513427734
0.0679988883333333, 227.73402026621, -0.00036361148809796, 1.35625,273.956939697266
0.0686659133333333, 227.744916908609, -0.000415487882435757, 1.36875,281.048492431641
0.0693324333333333, 227.755471819224, -0.00045202754709348, 1.3825,265.88134765625
0.0699988433333333, 227.766156290002, -0.000463431474244318, 1.395,265.88134765625
0.0706655016666667, 227.776358845554, -0.000524317915981525, 1.4075,273.045867919922
0.071332335, 227.787293034864, -0.000712252476254585, 1.42125,273.735015869141
0.071999005, 227.798086736341, -0.000857103200550786, 1.435,270.828430175781
0.0726654683333333, 227.809002465046, -0.00107296785789783, 1.4475,269.622222900391
0.07333218, 227.820046878333, -0.0013950346808323, 1.46125,269.622222900391
0.07399901, 227.830684069934, -0.00128288381404135, 1.47375,267.443786621094
0.0746655783333333, 227.841299464941, -0.00111786360283012, 1.4875,258.779693603516
0.0753323633333333, 227.851715203465, -0.000757056725777029, 1.50125,269.149597167969
0.0759989833333333, 227.861843307388, -0.000615678327090738, 1.51375,261.158325195313
0.076665675, 227.872191456905, -0.000567080768072323, 1.5275,261.158325195313
0.07733219, 227.882403282937, -0.000712147481525102, 1.54,268.378845214844
0.07799887, 227.891793591495, -0.000499116181843405, 1.55375,269.786651611328
0.0786658583333333, 227.901143929907, -0.000454961399672588, 1.5675,258.915863037109
0.0793323433333333, 227.910795895501, -0.000348490747574464, 1.58,268.680236816406
0.079998925, 227.920416934155, -0.000320718142584078, 1.5925,268.680236816406
0.0806655183333333, 227.929458529155, 1.93252773840313E-05, 1.6075,269.301025390625
0.08133217, 227.938591343622, -0.000139795730150241, 1.61875,267.614685058594
0.0819990066666667, 227.947964794501, -0.00023967721323964, 1.6325,323.707366943359
0.082665565, 227.956943949636, -0.000328517750883789, 1.64625,262.762786865234
0.0833325566666667, 227.964931246464, -0.000121202664080596, 1.65875,262.762786865234
0.0839988483333333, 227.973617646699, -0.00044622133875078, 1.6725,278.652587890625
0.0846655433333333, 227.981901743945, -0.000351490596976094, 1.685,270.396789550781
0.0853322833333333, 227.989198063608, -0.000394032960115852, 1.69875,274.071624755859
0.0859989733333333, 227.995058896044, -0.000103031076832029, 1.7125,276.744659423828
0.0866663183333333, 228.001907815524, -0.000133224560255609, 1.725,276.744659423828
0.087332225, 228.008372724561, 0.000217987298753281, 1.73875,283.032684326172
0.08799884, 228.015398860159, -0.000123766035310846, 1.7525,290.680755615234
0.0886655216666667, 228.022860508598, 0.000283576004344865, 1.76625,288.185791015625
0.0893323633333333, 228.031839021428, -0.000134393001493272, 1.77875,289.130981445313
0.0899989183333333, 228.040111666632, -0.000403284495344187, 1.7925,289.130981445313
0.090665615, 228.048848242302, -0.00072202898513033, 1.805,289.395355224609
0.0913322183333333, 228.057036318023, -0.000696281278424408, 1.81875,292.723480224609
0.09199889, 228.065437574857, -0.000827841170330408, 1.8325,285.388702392578
0.0926654833333333, 228.073192908686, -0.000480491617361292, 1.84625,287.505401611328
0.0933322566666667, 228.081288258811, -0.000415489382381414, 1.85875,287.505401611328
0.0939988933333333, 228.089447245095, -0.000266729854388937, 1.87125,284.106292724609
0.09466556, 228.097341243458, -5.1034688541972E-05, 1.88625,285.568420410156
0.0953325116666667, 228.10531161216, -0.000187521832941583, 1.89875,283.359985351563
0.09599889, 228.113279899576, -0.000343618992347535, 1.9125,281.496185302734
0.09666559, 228.120842866651, -0.000125679939210722, 1.92625,281.496185302734
0.0973321616666667, 228.127667089023, 0.000401986056648299, 1.93875,281.400848388672
0.0979988816666667, 228.135100444331, 0.000723809891808191, 1.9525,340.76220703125
0.0986655, 228.142061872053, 0.000691612509020539, 1.96625,285.952087402344
0.09933274, 228.149319224624, 0.00112912403326687, 1.98,281.270294189453
0.0999997083333333, 228.156693270349, 0.00106854657604175, 1.9925,281.270294189453
0.100665501666667, 228.164941153539, 0.000849392583925757, 2.005,290.126312255859
0.101332161666667, 228.172760013492, 0.000742614447282457, 2.02,278.165435791016
0.101998845, 228.180748446505, 0.000857970653075776, 2.0325,282.436401367188
0.102665851666667, 228.188941101068, 0.000772449448731151, 2.0475,280.851287841797
0.10333224, 228.197252061407, 0.000861840458716312, 2.05875,280.851287841797
0.103998908333333, 228.204954703548, 0.000819643078253066, 2.0725,282.401611328125
0.104665685, 228.213604967327, 0.000618476182641532, 2.08625,283.956848144531
0.10533222, 228.221501884521, 0.000609031157037652, 2.1,285.591430664063
0.105999091666667, 228.229633563901, 0.000322587544801731, 2.1125,287.692779541016
0.10666577, 228.23779330939, 0.000153547535488387, 2.12625,287.692779541016
0.107332278333333, 228.245747070525, -0.000367415297086007, 2.13875,290.259124755859
0.107998896666667, 228.253289054441, -1.01857403935583E-05, 2.1525,286.710479736328
0.108665773333333, 228.261188682861, -0.000114557997868951, 2.1675,288.783264160156
0.109332508333333, 228.268793860977, -6.4427515876612E-05, 2.18,290.504852294922
0.109998858333333, 228.276286877452, 5.73078694877209E-05, 2.1925,290.504852294922
0.110665581666667, 228.283928186051, 0.000363578985789708, 2.20625,289.435241699219
0.111332398333333, 228.291399831046, -4.30280907171195E-05, 2.21875,282.326751708984
0.111998915, 228.298803390482, 0.000426400330368438, 2.2325,285.737762451172
0.112665683333333, 228.306229033589, 0.000683388422114706, 2.24625,286.236297607422
0.113333145, 228.314208996341, 0.000688254177665276, 2.25875,286.236297607422
0.113998923333333, 228.32228675142, 0.000658810656592103, 2.2725,281.509460449219
0.114665716666667, 228.330163565206, 0.000834802816704777, 2.28625,345.285308837891
0.115332176666667, 228.338501443505, 0.000349991168282645, 2.29875,284.004760742188
0.115998885, 228.346444096666, -0.000161604634778093, 2.3125,284.004760742188
0.116665521666667, 228.353824478251, -0.000319462705752281, 2.325,284.069610595703
0.117332355, 228.36105822938, -0.000362125062865553, 2.33875,286.729217529297
0.117998848333333, 228.368335129884, -0.000726701250624167, 2.35125,290.031311035156
0.118665531666667, 228.375328245251, -0.000732925937960392, 2.365,286.756805419922
0.119332265, 228.382035916126, -0.000556779285612929, 2.37875,284.438629150391
0.119999078333333, 228.388999417608, -0.00053885968566411, 2.39125,284.438629150391
0.120665495, 228.396038282445, -0.000589212156489385, 2.40375,287.870544433594
0.121332401666667, 228.403266151399, -0.000397451288425991, 2.4175,290.972442626953
0.121999031666667, 228.410458791648, -0.000453353480521009, 2.43125,287.247283935547
0.122665498333333, 228.417900042131, -0.000425658871578338, 2.44375,292.790191650391
0.123332193333333, 228.42521023348, -0.000662897455306255, 2.45625,292.790191650391
0.123998906666667, 228.432052961966, -0.000471469570545401, 2.47,291.511810302734
0.124665521666667, 228.438834533194, -0.000660476576894315, 2.48375,288.841247558594
0.125332203333333, 228.446000167582, -0.000612117505941035, 2.49625,290.109588623047
0.12599891, 228.453255743169, -0.000898459123317534, 2.51,287.727966308594
0.126665513333333, 228.460415611203, -0.000891946450453375, 2.5225,287.727966308594
0.127332193333333, 228.468691167713, -0.00105776162174711, 2.535,290.039367675781
0.127998938333333, 228.477197001074, -0.00117515772504767, 2.54875,296.074249267578
0.128665543333333, 228.486129064938, -0.0010841527961283, 2.56375,288.772216796875
0.129332348333333, 228.494697311984, -0.00096682418940463, 2.5775,286.234069824219
0.129998885, 228.503034347814, -0.00071598578875317, 2.59,286.234069824219
0.130665496666667, 228.510890858799, -0.000488265726882385, 2.60375,286.472259521484
0.131332223333333, 228.518426140067, -0.00046810823938384, 2.61625,343.58642578125
0.131998921666667, 228.524848074372, -0.00033966519096167, 2.63,290.278442382813
0.132665525, 228.531999774042, -0.000270856147187447, 2.64375,284.031799316406
0.133332498333333, 228.539198862509, -0.000413317491484177, 2.65625,284.031799316406
0.133998885, 228.546680493594, -0.00060832119666002, 2.67,286.403930664063
0.134665686666667, 228.55369279095, -0.000593518440195031, 2.68375,291.957092285156
0.135332165, 228.56123600498, -0.000779225612346679, 2.69625,286.701110839844
0.135998923333333, 228.568747371143, -0.00118579969055914, 2.71,281.567535400391
0.136665621666667, 228.576020522411, -0.00119474524125172, 2.7225,281.567535400391
0.137332315, 228.583320591613, -0.00117377329467468, 2.73625,286.098937988281
0.137998831666667, 228.591175453571, -0.00119792508153924, 2.75,286.025695800781
0.138665623333333, 228.599551681929, -0.00166760099017258, 2.76375,285.571594238281
0.139332175, 228.607118854826, -0.00133095339962731, 2.77625,282.556732177734
0.13999885, 228.615563276555, -0.00152240228335107, 2.79,282.556732177734
0.140665781666667, 228.623900851604, -0.00138169285103364, 2.80375,292.255310058594
0.141332981666667, 228.63284379156, -0.00126464173040959, 2.8175,288.175018310547
0.141998886666667, 228.641415116027, -0.00106765062503811, 2.83125,284.350189208984
0.142665736666667, 228.651420942401, -0.00100168093862685, 2.84375,283.856506347656
0.14333233, 228.661176558305, -0.00060787721895164, 2.8575,283.856506347656
0.143998938333333, 228.671473016117, -0.000619147652851842, 2.87125,294.656982421875
0.144665675, 228.682057557617, -0.00083644473823779, 2.88375,285.291290283203
0.145332183333333, 228.693378141168, -0.00085472282018275, 2.8975,285.235076904297
0.145998853333333, 228.703987490246, -0.000776176265503504, 2.9125,277.806396484375
0.1466655, 228.715542541886, -0.00112000399539991, 2.92375,277.806396484375
0.147332988333333, 228.726503052519, -0.00129734308783925, 2.9375,282.93896484375
0.147998948333333, 228.73740779836, -0.000965700745877812, 2.95125,344.773773193359
0.148665541666667, 228.747745338068, -0.000718772648825776, 2.965,278.958984375
0.149332276666667, 228.758988503527, -0.000957637150904381, 2.9775,286.617736816406
0.149998928333333, 228.769317467611, -0.00058325445580321, 2.99,286.617736816406
0.15066593, 228.780382223774, -0.000614847368928825, 3.00375,285.240081787109
0.151332288333333, 228.791432267298, -0.000814611834989518, 3.0175,289.278778076172
0.151998911666667, 228.802885239574, -0.00121786957977252, 3.03125,288.733795166016
0.152665596666667, 228.813847153359, -0.00100162994123965, 3.045,285.588806152344
0.15333238, 228.825370146307, -0.00134659611392816, 3.0575,285.588806152344
0.153999388333333, 228.836267541604, -0.00132983145598239, 3.07125,292.145111083984
0.154665715, 228.847104064382, -0.00124194187060119, 3.08375,293.084747314453
0.155332316666667, 228.857909471539, -0.00115738961756985, 3.0975,294.100311279297
0.155998848333333, 228.868750904138, -0.0014324877996854, 3.11125,291.275756835938
0.156665528333333, 228.879662596991, -0.00133074191030771, 3.12375,291.275756835938
0.157332235, 228.890740696189, -0.00144571863512073, 3.1375,292.026153564453
0.157998998333333, 228.901678100793, -0.00153308024702696, 3.15,286.698699951172
0.15866553, 228.913205310958, -0.00138560765438502, 3.16375,285.74609375
0.159332361666667, 228.924120511359, -0.0014671825569658, 3.1775,290.05859375
0.15999884, 228.934992714242, -0.0014434657482207, 3.19,290.05859375
0.160665511666667, 228.946038100421, -0.0014326677906138, 3.20375,289.944213867188
