Time (min), Depth (µm), Load (N), Position (µm), Acoustic (aJ)
7.63833333333333E-06, 227.398279587538, -0.000955186596365593, 0,254.209777832031
0.000667061666666667, 227.398681225996, -0.000979672866435834, 0.0049999999999998,252.710922241211
0.00133294, 227.399470281867, -0.00079015288585599, 0.0162499999999998,252.710922241211
0.001999665, 227.399839220047, -0.000875077120203102, 0.0300000000000005,253.045654296875
0.00266630333333333, 227.400209912501, -0.000880874329020636, 0.0449999999999999,267.988037109375
0.00333289666666667, 227.401174972081, -0.000778604965919931, 0.0600000000000002,286.223480224609
0.00399974833333333, 227.402558422662, -0.0010239146442858, 0.07375,294.509643554688
0.00466635166666667, 227.405108891633, -0.00161649737949748, 0.0899999999999998,294.509643554688
0.00533306333333333, 227.408257125565, -0.00149209962791353, 0.103750000000001,308.572570800781
0.00599983, 227.412332310669, -0.0013510482127259, 0.11625,305.169067382813
0.006666355, 227.416193708548, -0.00121030728201726, 0.13,304.902069091797
0.007333, 227.41982808023, -0.00140421304231738, 0.1425,308.370483398438
0.00799954833333333, 227.423074556176, -0.00128392058446278, 0.15625,308.370483398438
0.008666445, 227.425893054887, -0.00137744838663226, 0.168750000000001,313.935943603516
0.00933308, 227.429919833017, -0.00151988123238658, 0.1825,313.408447265625
0.00999957166666667, 227.434965432737, -0.00167453696418595, 0.195,323.963470458984
0.0106665983333333, 227.441723510964, -0.00158207110860025, 0.21,376.237731933594
0.0113329666666667, 227.449879230818, -0.00167821477941785, 0.22375,376.237731933594
0.0119996383333333, 227.460045208216, -0.00215678674125973, 0.23625,320.574951171875
0.0126667516666667, 227.469706954908, -0.00243943854394533, 0.25,318.110046386719
0.0133328716666667, 227.480177753343, -0.00257300683494611, 0.26375,316.023040771484
0.0139995483333333, 227.490032699905, -0.00252233788000798, 0.27625,310.308715820313
0.014666415, 227.500732165125, -0.00227579676351575, 0.29,310.308715820313
0.0153328583333333, 227.510907757666, -0.00196840220362318, 0.30375,321.153656005859
0.0160002766666667, 227.521575770531, -0.00160699535668126, 0.3175,315.043487548828
0.0166664616666667, 227.532189452702, -0.00141894530227166, 0.33,315.700775146484
0.01733295, 227.542986940689, -0.00106042281044604, 0.34375,318.707672119141
0.0179995216666667, 227.553224461417, -0.00132239515185575, 0.35625,318.707672119141
0.0186665166666667, 227.563411876269, -0.0008007723524164, 0.370000000000001,314.985504150391
0.0193329216666667, 227.573967716563, -0.000908685932066761, 0.385,321.70068359375
0.0199998183333333, 227.584585706627, -0.000814010687473742, 0.39625,317.380706787109
0.02066652, 227.595445483687, -0.00113311365927728, 0.41,317.197296142578
0.02133286, 227.605777178979, -0.000817390017706888, 0.423750000000001,317.197296142578
0.0219997383333333, 227.616551044953, -0.00100346767118614, 0.4375,319.446563720703
0.0226664733333333, 227.627073596927, -0.000883955174127501, 0.45,320.093536376953
0.0233333083333333, 227.637457400419, -0.000828333467959655, 0.46375,319.406829833984
0.024000475, 227.647817465145, -0.000650679391353123, 0.47625,315.385650634766
0.02466625, 227.658532663072, -0.00093208625659274, 0.49,315.385650634766
0.0253333733333333, 227.669456446485, -0.000907614985766531, 0.50375,312.286041259766
0.025999895, 227.680146743629, -0.00136334309499353, 0.5175,315.164428710938
0.0266664233333333, 227.691298599144, -0.00156921375432008, 0.52875,312.210388183594
0.02733318, 227.702119441157, -0.00148402553323549, 0.5425,368.302947998047
0.028000005, 227.713307175073, -0.00135102121389535, 0.55625,368.302947998047
0.0286663316666667, 227.724029605315, -0.00124990379294889, 0.57,308.825805664063
0.0293334166666667, 227.735344816732, -0.0013031721173242, 0.58375,308.698303222656
0.02999965, 227.745871814577, -0.00139514299777181, 0.59625,308.514556884766
0.0306662366666667, 227.75714280128, -0.00166831527663477, 0.60875,307.317718505859
0.0313328633333333, 227.768135577166, -0.00163255857266432, 0.6225,307.317718505859
0.03200003, 227.779838286553, -0.00184867821720243, 0.63625,306.581268310547
0.03266625, 227.791039828291, -0.00123398809247041, 0.65,303.839782714844
0.0333336116666667, 227.802728102579, -0.00109681998228545, 0.6625,302.898529052734
0.034000305, 227.814342697197, -0.000953080702163353, 0.675,306.633819580078
0.034666475, 227.826314893926, -0.00106137526259089, 0.68875,306.633819580078
0.0353333833333333, 227.837385226963, -0.000947353989750264, 0.7025,307.199127197266
0.0359995216666667, 227.849244649918, -0.00128854935183011, 0.715,308.944946289063
0.036667375, 227.860322871687, -0.00130699542528698, 0.7275,304.716186523438
0.0373334583333333, 227.87169595537, -0.00140071221797378, 0.74125,311.395355224609
0.0380009366666667, 227.882521742213, -0.00132350509602043, 0.755,311.395355224609
0.0386677316666667, 227.89406672336, -0.00177025765608804, 0.76875,310.294616699219
0.03933286, 227.904700746878, -0.00196210401984242, 0.78125,313.916412353516
0.0399997583333333, 227.916150122477, -0.00213987059084296, 0.79375,320.43310546875
0.0406668433333333, 227.927139191092, -0.00209534232745322, 0.8075,316.062561035156
0.0413335083333333, 227.93866112111, -0.00195416041890626, 0.82125,316.062561035156
0.042000055, 227.949439213556, -0.00134966078233407, 0.83375,322.059326171875
0.04266665, 227.961138615789, -0.00125072575173442, 0.84625,316.046569824219
0.0433330683333333, 227.972275310649, -0.000934978111394828, 0.86,319.779022216797
0.04400022, 227.983366763419, -0.000841666298381927, 0.87375,382.542572021484
0.0446661933333333, 227.994629393012, -0.000711282347420623, 0.88625,382.542572021484
0.0453332183333333, 228.00649092391, -0.00106429411598973, 0.9,310.106475830078
0.0459998966666667, 228.017914241338, -0.000739051952562202, 0.91375,311.01513671875
0.046666255, 228.029799273365, -0.000587465066623249, 0.92625,311.102233886719
0.0473335066666667, 228.041899710479, -0.000451945373612517, 0.94,312.834289550781
0.048000315, 228.053914143362, -0.000414145772243517, 0.9525,312.834289550781
0.0486668133333333, 228.066070643792, -0.000144039339413421, 0.97,308.351470947266
0.0493331383333333, 228.079510563317, -0.00013372735735568, 0.98125,309.730255126953
0.0500005866666667, 228.092775225089, -0.000636487104226531, 0.9925,312.734741210938
0.0506663133333333, 228.10514285496, -0.000899084914218671, 1.0075,308.694061279297
0.051332875, 228.117601252032, -0.00107352165244886, 1.02,308.694061279297
0.0519997683333333, 228.129692062529, -0.00143709589049356, 1.03375,311.917633056641
0.0526664416666667, 228.14014369587, -0.00181483691694999, 1.0475,302.374481201172
0.05333295, 228.150762285904, -0.00176533790325895, 1.06,310.81884765625
0.0540002616666667, 228.162170733222, -0.00196287648112264, 1.075,306.726776123047
0.054666205, 228.172873576574, -0.00194480838865789, 1.0875,306.726776123047
0.0553328816666667, 228.183898574232, -0.00164504394552245, 1.10125,308.0625
0.0559995333333333, 228.194872245957, -0.00155747834383361, 1.11375,315.288116455078
0.0566662066666667, 228.206328084283, -0.00140146518025801, 1.1275,306.441864013672
0.0573329716666667, 228.216954693938, -0.00128758340038689, 1.14125,304.944488525391
0.057999585, 228.227868060691, -0.00132247614775227, 1.155,304.944488525391
0.0586661916666667, 228.23867347485, -0.00143462101482436, 1.16875,311.232635498047
0.0593329583333333, 228.249138189427, -0.00115890636373655, 1.18125,314.741760253906
0.0599995633333333, 228.259451927775, -0.000973107696196307, 1.195,309.668243408203
0.0606672533333333, 228.269659449449, -0.000746323587323188, 1.2075,372.459625244141
0.061332945, 228.280412428954, -0.000854225167578323, 1.22125,372.459625244141
0.0619998016666667, 228.290301909383, -0.000762266286589702, 1.235,311.929992675781
0.0626662766666667, 228.30049274997, -0.000637523552265485, 1.24875,307.964721679688
0.0633328733333333, 228.309590442789, -0.000542488325773176, 1.26125,311.236328125
0.0640006933333333, 228.320333850547, -0.000575273678969413, 1.27375,307.713195800781
0.0646667266666667, 228.32931063491, -0.000436514148716292, 1.28875,307.713195800781
0.0653334233333333, 228.339805602448, -0.000517087101604406, 1.3025,313.763977050781
0.0659995316666667, 228.349756868028, -0.00108891987902947, 1.315,314.632537841797
0.066667195, 228.360484528848, -0.00153197962462114, 1.32875,318.861694335938
0.0673330666666667, 228.369108318816, -0.00162039568357415, 1.3425,311.680206298828
0.067999555, 228.379346048173, -0.00158657838217593, 1.355,311.680206298828
0.0686662066666667, 228.387773364002, -0.00151228711375137, 1.36875,311.119140625
0.0693328583333333, 228.396790205935, -0.00142348707408736, 1.38125,312.872161865234
0.069999555, 228.405427626488, -0.0013768169182672, 1.395,320.699676513672
0.0706674533333333, 228.415295210946, -0.00150721586845128, 1.4075,315.149749755859
0.071333805, 228.423596752396, -0.00184888370684567, 1.42125,315.149749755859
0.0720003783333333, 228.432104461145, -0.00148876529524245, 1.435,319.487396240234
0.0726661966666667, 228.440575013444, -0.00121969981013951, 1.4475,318.494476318359
0.0733328566666667, 228.448831228255, -0.00124319912982488, 1.46,317.920043945313
0.0739995316666667, 228.456710111012, -0.00116559152797085, 1.47375,317.920043945313
0.0746665316666667, 228.465468932365, -0.00103092829196441, 1.4875,319.762847900391
0.0753328616666667, 228.474236942648, -0.0016708666485123, 1.5,312.365814208984
0.075999535, 228.48340477765, -0.00217944310323918, 1.51375,311.63134765625
0.0766662383333333, 228.492534256977, -0.00236581324204083, 1.52625,313.981719970703
0.07733287, 228.501551423674, -0.00237394583357932, 1.54,378.038696289063
0.0780005066666667, 228.510620025892, -0.00248484126341095, 1.55375,378.038696289063
0.0786662116666667, 228.519778392074, -0.00241285687912242, 1.56625,316.871154785156
0.0793328933333333, 228.528406439953, -0.00199072558234261, 1.58,314.016571044922
0.0799995383333333, 228.537300117247, -0.00185217904139726, 1.59375,314.830810546875
0.080666215, 228.546041080987, -0.00203588381406673, 1.60625,309.288787841797
0.0813335933333333, 228.554813755128, -0.00179837374395806, 1.62,309.288787841797
0.0820001033333333, 228.563732741299, -0.00183482191322718, 1.6325,312.967620849609
0.0826664483333333, 228.572131988389, -0.00188089059923411, 1.64625,317.322937011719
0.0833336233333333, 228.580650717592, -0.00188351396746175, 1.66,317.954376220703
0.08400084, 228.588973492354, -0.00179720980242984, 1.6725,318.667419433594
0.0846665916666667, 228.597196263785, -0.00193903067894262, 1.685,318.667419433594
0.08533365, 228.605413890321, -0.00187618683549784, 1.69875,319.6962890625
0.08599981, 228.613882773029, -0.00181968167364393, 1.7125,318.571136474609
0.08666652, 228.622339105, -0.00147366105390865, 1.725,299.223358154297
0.087333165, 228.630549046104, -0.00131944030022873, 1.73875,293.68310546875
0.0879997533333333, 228.638840958123, -0.0012284323714818, 1.7525,293.68310546875
0.0886668516666667, 228.646643149124, -0.00147983924358837, 1.765,293.723480224609
0.089333115, 228.654278856089, -0.00163857927026045, 1.77875,290.984680175781
0.0899995383333333, 228.661312259411, -0.00183988265899268, 1.79125,294.679168701172
0.0906662333333333, 228.669183552527, -0.00208908164199508, 1.80625,294.689300537109
0.09133298, 228.676219210869, -0.0020545368771125, 1.81875,294.689300537109
0.09199975, 228.683368643697, -0.00195478588750995, 1.8325,297.315643310547
0.0926663066666667, 228.690663321442, -0.00207007609656576, 1.845,293.485229492188
0.0933328966666667, 228.698019916701, -0.00206779621109023, 1.85875,348.959899902344
0.0939995316666667, 228.704812610064, -0.00187894069710605, 1.8725,296.233215332031
0.0946672883333333, 228.711811481517, -0.00186540837680191, 1.885,296.233215332031
0.0953335116666667, 228.719256180051, -0.0016494912220795, 1.89875,295.168518066406
0.0959997983333333, 228.725798959073, -0.00186747677289407, 1.91375,296.806518554688
0.0966662483333333, 228.732281563783, -0.00166064466187625, 1.925,298.518859863281
0.09733287, 228.738714930957, -0.00166414398610416, 1.94,293.467620849609
0.0979996316666667, 228.745324579359, -0.00173764929401389, 1.9525,293.467620849609
0.09866626, 228.751311669876, -0.00171854625351962, 1.96625,291.483856201172
0.0993332133333333, 228.757566967301, -0.00118186121067226, 1.98,297.262969970703
0.0999996533333333, 228.764121562378, -0.00151139465854014, 1.9925,294.830108642578
0.100666808333333, 228.770851475738, -0.00163383950827474, 2.00625,303.243041992188
0.101333626666667, 228.77675876501, -0.00168129112483652, 2.02,303.243041992188
0.10199958, 228.783070128869, -0.00158440649127869, 2.0325,301.897674560547
0.102666513333333, 228.789487498859, -0.00171423996985648, 2.04625,296.688507080078
0.103333181666667, 228.795326783155, -0.00150571444386857, 2.05875,295.229797363281
0.103999555, 228.801583435136, -0.00152884778191453, 2.0725,292.544036865234
0.104666793333333, 228.808438922801, -0.00180970117492182, 2.08625,292.544036865234
0.105332875, 228.814515519411, -0.00181674632103415, 2.1,292.197540283203
0.10599954, 228.821611508377, -0.00192658880376466, 2.1125,291.131805419922
0.10666648, 228.82922571119, -0.00224600525981099, 2.125,289.786010742188
0.107333433333333, 228.836563719993, -0.00184582386048917, 2.14,286.690826416016
0.107999641666667, 228.844630399294, -0.00148624992150809, 2.1525,286.690826416016
0.108666541666667, 228.852665402123, -0.00128640595945402, 2.16625,288.878234863281
0.109333138333333, 228.861235795856, -0.00125005528531362, 2.18,286.906341552734
0.110000145, 228.869607961664, -0.00106910287439172, 2.1925,341.892333984375
0.110666478333333, 228.877774708297, -0.00116026979516789, 2.205,284.6728515625
0.111333126666667, 228.885874141949, -0.00125321262677759, 2.21875,284.6728515625
0.112000501666667, 228.894543901307, -0.0017574467996344, 2.2325,282.563903808594
0.112666906666667, 228.902422268147, -0.00143579545582339, 2.24625,281.279388427734
0.113333341666667, 228.910562773645, -0.00144521798251872, 2.25875,282.017425537109
0.113999528333333, 228.919037942714, -0.00136628594718282, 2.2725,274.707122802734
0.114666221666667, 228.927014105006, -0.00125188369352251, 2.285,274.707122802734
0.115332953333333, 228.935588471223, -0.00103265770501391, 2.29875,281.337066650391
0.115999551666667, 228.94424675195, -0.00153956774345247, 2.31125,269.625732421875
0.11666631, 228.952960396752, -0.00156635939773434, 2.32375,281.779296875
0.117332915, 228.961105305547, -0.0018145159331277, 2.3375,279.328216552734
0.117999541666667, 228.96927499124, -0.00175837375308565, 2.35,279.328216552734
0.118666343333333, 228.97721465047, -0.00179099561450068, 2.365,277.764678955078
0.119333131666667, 228.984972946337, -0.00111110376473688, 2.37875,278.371337890625
0.119999566666667, 228.992491229411, -0.000661970824237479, 2.39,281.701843261719
0.120666523333333, 229.000976491315, -0.000638577999227246, 2.40375,277.110504150391
0.12133317, 229.008989897251, -0.000369085035584353, 2.4175,277.110504150391
0.121999631666667, 229.017488806052, -0.00037264585675531, 2.43,280.724456787109
0.122666298333333, 229.025319819423, -0.00084750400515835, 2.4425,283.705841064453
0.123333161666667, 229.034038405877, -0.00120629798332221, 2.455,279.328521728516
0.123999528333333, 229.041438994048, -0.00125417407851137, 2.46875,285.953338623047
0.124666353333333, 229.049580067661, -0.0014328706027482, 2.4825,285.953338623047
0.125333013333333, 229.057125102969, -0.00166066716074229, 2.49625,282.165802001953
0.126000156666667, 229.06479974305, -0.00174354399793889, 2.50875,282.29736328125
0.126666748333333, 229.071360845964, -0.00178527790167652, 2.5225,325.593505859375
0.127333011666667, 229.078573769799, -0.00167722632900231, 2.535,270.719573974609
0.127999528333333, 229.085275493454, -0.00153392952666419, 2.54875,270.719573974609
0.128666335, 229.09242117615, -0.00106601302963216, 2.56375,271.396820068359
0.129333226666667, 229.099638818876, -0.00080434967269203, 2.57625,276.638732910156
0.129999546666667, 229.107525538375, -0.00064988893110759, 2.58875,275.342376708984
0.130666451666667, 229.115627702745, -0.000723065755530502, 2.6025,278.312591552734
0.131333115, 229.123764799949, -0.000825870591728186, 2.615,278.312591552734
0.132000435, 229.132070290746, -0.00112397311834852, 2.63,274.758911132813
0.132666461666667, 229.140704282698, -0.00114984531882242, 2.6425,275.342834472656
0.133332901666667, 229.148877127836, -0.00114317665375656, 2.655,275.02001953125
0.134001135, 229.157566083607, -0.00115822989766065, 2.67,270.281585693359
0.134666433333333, 229.166398822049, -0.00136473352519165, 2.6825,270.281585693359
0.1353336, 229.175348021308, -0.00107684998529481, 2.69625,270.671447753906
0.135999593333333, 229.184187932958, -0.000922740226063237, 2.71,270.850372314453
0.13666623, 229.193588791883, -0.00107887038380606, 2.7225,263.903594970703
0.137333038333333, 229.202447837255, -0.000914954117168172, 2.73625,272.411499023438
0.137999763333333, 229.211694818736, -0.000670598390892805, 2.75,272.411499023438
0.138666383333333, 229.220133805971, -0.000773443725070632, 2.76375,266.576110839844
0.139333041666667, 229.229267178398, -0.00071915845175863, 2.77625,271.138122558594
0.139999546666667, 229.23769298272, -0.000654651191874335, 2.78875,271.793090820313
0.140666696666667, 229.24632505922, -0.000858502952592783, 2.80375,270.341094970703
0.141332985, 229.255243561789, -0.00115287216675703, 2.8175,270.341094970703
0.141999666666667, 229.26440952749, -0.0011766639717223, 2.83,272.823120117188
0.142666235, 229.273009481296, -0.00141449502569577, 2.84375,264.954498291016
0.143332976666667, 229.282169344098, -0.00113331914892053, 2.85625,323.112915039063
0.143999756666667, 229.291490400589, -0.000793248730249396, 2.87,266.313110351563
0.144666198333333, 229.300406667332, -0.000612711798472212, 2.88375,266.313110351563
0.145332863333333, 229.308903303353, -0.000603430264649541, 2.89625,269.369506835938
0.145999691666667, 229.317757983867, -0.000483535286868071, 2.91,268.470367431641
0.14666628, 229.326480622152, -0.000616851590547843, 2.92375,271.009643554688
0.147332861666667, 229.335297973944, -0.000804052687617677, 2.93625,264.963409423828
0.147999951666667, 229.344004282148, -0.000804217679344543, 2.95,264.963409423828
0.148666191666667, 229.353643361506, -0.00102458361061216, 2.96375,270.378997802734
0.14933375, 229.36316083141, -0.00144295159638408, 2.9775,270.946685791016
0.150000155, 229.373037745626, -0.00139204115355326, 2.99,264.504547119141
0.150667165, 229.382527030079, -0.0014204917245227, 3.00375,280.700378417969
0.151332868333333, 229.392903934606, -0.00155355604081771, 3.01625,280.700378417969
0.152000011666667, 229.402732083339, -0.00118599650297468, 3.03,278.537536621094
0.152666395, 229.413164721367, -0.00125086224487637, 3.045,273.268096923828
0.153332995, 229.423516955959, -0.00112314665985354, 3.05625,272.891082763672
0.154000026666667, 229.434298936111, -0.0010505473064109, 3.07,268.217681884766
0.154666201666667, 229.444294214849, -0.000836400062824401, 3.08375,268.217681884766
0.155332868333333, 229.454876402932, -0.00121546702268711, 3.09625,272.2333984375
0.155999521666667, 229.464506168041, -0.000928570433196389, 3.11,275.037567138672
0.156666241666667, 229.474552106663, -0.00114211620703342, 3.12375,273.461578369141
0.157332945, 229.484483885896, -0.000842041279503996, 3.13625,277.569549560547
0.157999555, 229.494719925302, -0.000862882732636698, 3.15,277.569549560547
0.158666223333333, 229.504665965688, -0.00031098395395284, 3.1625,273.93310546875
0.159332946666667, 229.514909460128, -0.00029303435553721, 3.17625,283.139282226563
