Time (min), Depth (µm), Load (N), Position (µm), Acoustic (aJ)
7.145E-06, 227.279961493371, 0.00066231968143354, 0,175.906311035156
0.000663158333333333, 227.280491208476, 0.000406336539207488, 0.00375000000000028,178.023910522461
0.00132912333333333, 227.280498100264, 0.000105195165172298, 0.0150000000000003,187.391479492188
0.00199586333333333, 227.281280080076, -0.000544629194839046, 0.0300000000000005,187.391479492188
0.00266278, 227.282052562135, -0.000802257754433029, 0.0449999999999999,195.468612670898
0.00332911833333333, 227.282792012391, -0.0011795383040339, 0.0587499999999998,214.57878112793
0.00399606, 227.284006126082, -0.00124894731773946, 0.0750000000000004,238.48356628418
0.00466278666666667, 227.286611763402, -0.00124373507954547, 0.0899999999999998,243.329696655273
0.00532923333333333, 227.28926411921, -0.000974764089637417, 0.103750000000001,243.329696655273
0.00599598, 227.29208715388, -0.000768042973025438, 0.11625,250.903335571289
0.006662635, 227.29609076689, -0.000656168092367196, 0.12875,240.639221191406
0.00732908833333333, 227.301310950273, -0.000714825646037334, 0.1425,251.179138183594
0.00799603, 227.30755411002, -0.000807511990510314, 0.15625,257.771942138672
0.00866238833333333, 227.314403351255, -0.000893003196388128, 0.17,257.771942138672
0.009329175, 227.322461914807, -0.000761362308585606, 0.1825,250.19499206543
0.00999663166666667, 227.330542175534, -0.000733910687417518, 0.195,257.915405273438
0.01066277, 227.338538060159, -0.000795572590219988, 0.20875,248.298187255859
0.01133053, 227.345912113759, -0.000784548143964428, 0.2225,299.520538330078
0.0119960666666667, 227.353474041533, -0.000631887311961455, 0.23625,299.520538330078
0.0126624916666667, 227.361940650055, -0.000625007157554736, 0.25,251.979507446289
0.01332937, 227.371184539995, -0.000573979720599216, 0.26375,250.510894775391
0.0139963733333333, 227.380701732416, -0.000504900690368644, 0.27625,249.628295898438
0.014662445, 227.391282501892, -0.00033187388131131, 0.29,247.705383300781
0.0153291016666667, 227.402203778666, -0.000438082046553847, 0.30375,247.705383300781
0.0159958466666667, 227.413059356315, -0.000833435188392671, 0.31625,251.082382202148
0.01666249, 227.423772932659, -0.000804581137758758, 0.33,254.510864257813
0.0173292633333333, 227.434998517057, -0.000817637981920797, 0.34375,251.336242675781
0.01799611, 227.445671873974, -0.000839731872185269, 0.35625,250.214736938477
0.018662515, 227.456348781954, -0.000802707731881531, 0.370000000000001,250.214736938477
0.019329085, 227.467222947458, -0.000610924364952089, 0.38375,255.028915405273
0.0199959216666667, 227.477943824271, -0.000511479359970308, 0.39625,256.280883789063
0.0206629283333333, 227.488426989479, -0.000278331070748953, 0.41,253.720428466797
0.0213290816666667, 227.499413527909, -9.82651152981544E-05, 0.423750000000001,253.043762207031
0.021995955, 227.510253410335, 5.46147057102027E-05, 0.4375,253.043762207031
0.0226623983333333, 227.521227307691, 1.83855254464623E-05, 0.45,253.827056884766
0.02332906, 227.532919366109, -0.000129210060975291, 0.46375,253.091613769531
0.0239964783333333, 227.54401638622, -0.000377903569368773, 0.47625,257.212738037109
0.02466268, 227.555040724388, -0.000588316000553538, 0.49,201.548385620117
0.0253290633333333, 227.566052139387, -0.000889442375302187, 0.50375,201.548385620117
0.0259959533333333, 227.576505541014, -0.000616427588544077, 0.51625,253.035614013672
0.026662535, 227.586810089524, -0.000575701634175476, 0.53,252.651519775391
0.0273291633333333, 227.597804852759, -0.000401804868815473, 0.54375,301.462463378906
0.0279957766666667, 227.608611021633, -0.000587159558668593, 0.55625,246.599990844727
0.02866286, 227.619940192268, -0.000469692958878572, 0.57,246.599990844727
0.0293292616666667, 227.630953014039, -0.000723181726418178, 0.58375,244.206420898438
0.0299959533333333, 227.642334001533, -0.000550558397089083, 0.595,243.951324462891
0.030662755, 227.653345754159, -0.000588689481793711, 0.61,244.189544677734
0.031329215, 227.664642024242, -0.000774435651937336, 0.6225,238.397903442383
0.0319959216666667, 227.675395863439, -0.000614273696718425, 0.635,238.397903442383
0.03266242, 227.686031443172, -0.000665022147649922, 0.65,240.427764892578
0.0333290783333333, 227.69666392655, -0.000653241739325087, 0.6625,238.270629882813
0.0339957216666667, 227.70709146706, -0.000465080690445882, 0.67625,248.229705810547
0.0346628766666667, 227.717537548496, -0.000517158074653715, 0.68875,242.806060791016
0.0353290933333333, 227.728473366637, -0.000812659731912458, 0.7025,242.806060791016
0.0359957166666667, 227.739528959136, -0.000841483784143323, 0.715,241.982406616211
0.0366625683333333, 227.75019141988, -0.000904608113494019, 0.72875,243.98291015625
0.037329105, 227.761244468521, -0.00106089276347163, 0.74375,248.611907958984
0.0381627216666667, 227.771946761708, -0.00074405167805078, 0.7575,245.485382080078
0.0388291466666667, 227.782631888081, -0.000485446667542751, 0.77125,250.015823364258
0.039495745, 227.794286313042, -0.000688264980156067, 0.785,250.015823364258
0.0401627183333333, 227.805558766053, -0.001017568939569, 0.7975,252.390640258789
0.0408292833333333, 227.817402008638, -0.00149080266954575, 0.81,247.839736938477
0.04149605, 227.829097222376, -0.0015732715272409, 0.82375,250.325592041016
0.0421625783333333, 227.840710936488, -0.00157612588384789, 0.8375,249.871994018555
0.0428292183333333, 227.851653888687, -0.00137408603208488, 0.85,249.871994018555
0.0434960566666667, 227.863175231978, -0.00108228468898785, 0.86375,256.659393310547
0.0441627783333333, 227.873787906993, -0.000843771169219611, 0.87875,301.666412353516
0.0449959783333333, 227.89004625045, -0.000628447984688416, 0.89375,248.720779418945
0.045662685, 227.901040415638, -0.000807979966987892, 0.90625,247.72297668457
0.04632931, 227.912184933272, -0.000913205681597517, 0.92,246.121215820313
0.0469961033333333, 227.922927511711, -0.00080063333598549, 0.93375,246.121215820313
0.0476630983333333, 227.934492346573, -0.000928183929260196, 0.94625,247.634643554688
0.0483291216666667, 227.945313698219, -0.00111653696850553, 0.95875,251.354141235352
0.0489958583333333, 227.958509769609, -0.00109373361387079, 0.975,242.697036743164
0.04966273, 227.971435153611, -0.00117519902197013, 0.9875,237.76579284668
0.0503290383333333, 227.984841439885, -0.00113532652473576, 1.00125,237.76579284668
0.0509960433333333, 227.996932110836, -0.000981891731570673, 1.01375,238.138031005859
0.051662805, 228.009655518779, -0.00107517054628921, 1.02625,241.426315307617
0.0523293666666667, 228.019951715277, -0.0011527601490504, 1.04,242.310821533203
0.052996485, 228.030417937302, -0.00115076974904847, 1.05375,237.405838012695
0.0536627, 228.040665010668, -0.00106475056965318, 1.0675,237.405838012695
0.0543293266666667, 228.051413878903, -0.000982226214776362, 1.08125,234.581420898438
0.0549962933333333, 228.062446069315, -0.00083010835547113, 1.09375,241.091278076172
0.055663085, 228.07307039711, -0.000599680929627383, 1.10875,233.348114013672
0.0563305983333333, 228.083812501452, -0.000595154156991949, 1.12,240.546340942383
0.0569967116666667, 228.094870507749, -0.00093023732615083, 1.135,240.546340942383
0.0576625216666667, 228.105675408895, -0.000981294761615669, 1.14875,238.125869750977
0.0583292766666667, 228.11599558773, -0.00103624300159893, 1.16125,239.703674316406
0.0589960783333333, 228.127303460578, -0.0014169748778043, 1.175,233.426055908203
0.0596628933333333, 228.1373264608, -0.00133845682170997, 1.18875,241.509307861328
0.0603293433333333, 228.147900850234, -0.000957036480054722, 1.20125,241.509307861328
0.06099668, 228.158277546174, -0.00090388065000966, 1.215,289.479156494141
0.061662705, 228.169503629343, -0.000924677105452772, 1.2275,235.978515625
0.0623290616666667, 228.179951278816, -0.000880973800591098, 1.24125,236.816207885742
0.0629959483333333, 228.191161231428, -0.00100844489785118, 1.255,239.417922973633
0.0636630266666667, 228.201602810228, -0.000840820817429558, 1.26875,239.417922973633
0.0643291633333333, 228.211943216867, -0.000703367721586725, 1.28125,237.04084777832
0.0649967116666667, 228.221689129614, -0.000705091135023625, 1.295,235.301864624023
0.06566265, 228.23165773104, -0.000640979855266807, 1.30875,239.63850402832
0.0663293483333333, 228.241790831054, -0.000636421584218905, 1.3225,243.748413085938
0.0669958233333333, 228.251998195385, -0.00131196665229691, 1.335,243.748413085938
0.0676624533333333, 228.262556187845, -0.0014086922939105, 1.34875,245.209686279297
0.0683294883333333, 228.272589861739, -0.00173491690801345, 1.36125,235.884628295898
0.068995955, 228.283054153991, -0.00190142504448776, 1.375,240.082077026367
0.0696629166666667, 228.293003027537, -0.00185567284255117, 1.38875,247.358489990234
0.0703290583333333, 228.302740321409, -0.00167722080601332, 1.40125,247.358489990234
0.070996465, 228.312589337677, -0.00189124805562631, 1.415,247.704452514648
0.07166281, 228.322910854017, -0.00184563084692852, 1.4275,243.673583984375
0.0723297133333333, 228.332329309017, -0.00200436037410853, 1.44125,249.754013061523
0.072996505, 228.342396230971, -0.00189214501058949, 1.455,253.61701965332
0.073662585, 228.351896679329, -0.00172157507812977, 1.4675,253.61701965332
0.074329345, 228.361309264833, -0.00148416850278368, 1.48125,242.992980957031
0.0749964583333333, 228.370719529004, -0.00147949173770792, 1.49375,240.078674316406
0.07566296, 228.38020331681, -0.001159785796188, 1.50625,245.31477355957
0.0763291283333333, 228.389687489791, -0.00111892784845066, 1.52,243.870941162109
0.0769959433333333, 228.399589247176, -0.00118418957041606, 1.53375,243.870941162109
0.07766281, 228.409542549867, -0.00123832635119089, 1.5475,295.169677734375
0.0783293333333333, 228.419095533162, -0.00109930283417903, 1.56,248.023483276367
0.0789960683333333, 228.428614258061, -0.000989518848542756, 1.5725,247.902954101563
0.0796629116666667, 228.438277241121, -0.00121478053389152, 1.58625,245.052551269531
0.080329685, 228.447960275564, -0.00122651294459294, 1.6,245.052551269531
0.08099623, 228.457487701222, -0.00144237310216677, 1.6125,241.945678710938
0.08166261, 228.467241997439, -0.00127578096990463, 1.625,245.022583007813
0.0823295416666667, 228.476935335742, -0.00140992973175573, 1.64,241.528778076172
0.082995725, 228.486562666523, -0.00159534141869367, 1.6525,247.637268066406
0.083663115, 228.495542573152, -0.0017383232368646, 1.66625,247.637268066406
0.08432938, 228.504706968639, -0.00177134257833151, 1.67875,249.723266601563
0.08499669, 228.513639823239, -0.00194624579311487, 1.6925,242.224044799805
0.0856628683333333, 228.522625460166, -0.00193669277293271, 1.705,252.186248779297
0.08632911, 228.530204732328, -0.00151206410159638, 1.71875,231.586624145508
0.086996485, 228.538666965508, -0.00126912730406155, 1.7325,231.586624145508
0.0876626016666667, 228.546489642854, -0.0014625245899252, 1.74625,222.27783203125
0.0883291916666667, 228.554256671823, -0.00141194413052687, 1.75875,218.688095092773
0.0889962716666667, 228.562082127888, -0.00175322648826461, 1.7725,218.375457763672
0.0896631916666667, 228.570478277994, -0.00204862015094506, 1.78625,214.959197998047
0.0903305716666667, 228.578502624842, -0.00209848064650231, 1.79875,214.959197998047
0.0909958, 228.586081880915, -0.0018352138701413, 1.8125,216.460739135742
0.0916627883333333, 228.594003553096, -0.0019346003780926, 1.825,224.102874755859
0.0923295566666667, 228.601172689122, -0.00168960268406637, 1.83875,219.989700317383
0.09299632, 228.608694192937, -0.00162576439059345, 1.8525,218.276672363281
0.09366263, 228.615795563609, -0.00194450738047645, 1.865,218.276672363281
0.0943293766666667, 228.623373432589, -0.00176096759949134, 1.88,263.956146240234
0.09499671, 228.629854475257, -0.00160772029694042, 1.89125,217.544403076172
0.0956626033333333, 228.637103523889, -0.00167286202493231, 1.905,211.951568603516
0.0963293683333333, 228.643386059071, -0.00181289649114074, 1.91875,218.873977661133
0.0969962283333333, 228.649875579067, -0.00137194263981507, 1.9325,218.873977661133
0.09766266, 228.656186742976, -0.00150304655461746, 1.945,214.959945678711
0.09833057, 228.662980720954, -0.00137584844364129, 1.95875,224.705032348633
0.0989963133333333, 228.669206924469, -0.00119968379220098, 1.9725,221.703918457031
0.09966248, 228.67557843061, -0.000855958057227761, 1.98625,225.12744140625
0.100329168333333, 228.682067679166, -0.00130928478706006, 2,225.12744140625
0.10099687, 228.687822433028, -0.0013328666025451, 2.0125,219.736404418945
0.101662875, 228.693393236866, -0.00121589947770889, 2.02625,220.247756958008
0.102329563333333, 228.699408943956, -0.0011230736402239, 2.04,228.44938659668
0.102996461666667, 228.705309771223, -0.00126584246908706, 2.0525,218.278305053711
0.103663108333333, 228.710870895046, -0.00108711894616846, 2.06625,218.278305053711
0.104329601666667, 228.717265594324, -0.0010708582629072, 2.08,219.722091674805
0.104996525, 228.722939138194, -0.00144788232537136, 2.0925,217.431838989258
0.105662641666667, 228.728939758211, -0.00175137558121092, 2.10625,214.689758300781
0.106329085, 228.734887802661, -0.00174809674589154, 2.12,218.809539794922
0.106996461666667, 228.740789317696, -0.0015972898207698, 2.1325,218.809539794922
0.107663048333333, 228.746276098232, -0.00175738877918503, 2.14625,219.255661010742
0.108329581666667, 228.752780539195, -0.00189261448692771, 2.15875,214.284805297852
0.108996666666667, 228.759095199716, -0.00174336748348292, 2.1725,214.822479248047
0.109662983333333, 228.766298643264, -0.00214063602908226, 2.18625,249.662307739258
0.110329571666667, 228.773605830626, -0.00219179095965457, 2.2,249.662307739258
0.110995931666667, 228.781712197365, -0.0020112645273482, 2.2125,208.643188476563
0.111662705, 228.789702844412, -0.00195449537879932, 2.225,197.154891967773
0.112329071666667, 228.797169167607, -0.00160380699347093, 2.23875,194.589019775391
0.112996633333333, 228.805181661293, -0.00127357758055241, 2.2525,199.198425292969
0.113663101666667, 228.813462160154, -0.00157151961521909, 2.265,199.198425292969
0.114329143333333, 228.821418092487, -0.00147419550370483, 2.27875,207.963333129883
0.114995966666667, 228.829545361113, -0.0012998772595025, 2.29125,197.089935302734
0.115662665, 228.838425598122, -0.00156853176527644, 2.305,202.820663452148
0.11632933, 228.846711344291, -0.00164938070431852, 2.31875,203.762023925781
0.116995931666667, 228.854912263589, -0.00161109812724916, 2.33125,203.762023925781
0.11766304, 228.863161616853, -0.00161188858755846, 2.345,196.38703918457
0.118331005, 228.872086719456, -0.00165066613980842, 2.3575,197.771499633789
0.118996553333333, 228.880322201363, -0.00176091810194352, 2.37,195.223175048828
0.11966282, 228.888700300211, -0.00165206406956479, 2.38375,199.216079711914
0.120329353333333, 228.897071968556, -0.00143559344263131, 2.3975,199.216079711914
0.120995903333333, 228.905934989414, -0.00145709486265022, 2.41,198.628601074219
0.121662685, 228.914083653626, -0.00131721038892463, 2.42375,198.099563598633
0.122329305, 228.922979109021, -0.00136879729778883, 2.43625,198.276885986328
0.122996088333333, 228.931689345379, -0.00151736033559947, 2.45,200.306259155273
0.123663228333333, 228.940066044058, -0.00138338856489171, 2.4625,200.306259155273
0.124329723333333, 228.947840054946, -0.00146530695022459, 2.47625,206.777969360352
0.124996321666667, 228.956609360886, -0.00135486449762651, 2.49,206.858352661133
0.12566298, 228.964174708913, -0.00108183321169997, 2.50125,208.594314575195
0.126329186666667, 228.971521512843, -0.000959586352029105, 2.515,257.313079833984
0.126997688333333, 228.979490802277, -0.00105873287199088, 2.52875,257.313079833984
0.127662933333333, 228.987356590694, -0.00101777442927601, 2.54375,204.716583251953
0.128329396666667, 228.994756308374, -0.00113549751618149, 2.555,209.45703125
0.128996078333333, 229.002784586556, -0.00119936430821807, 2.56875,210.83723449707
0.129662995, 229.011093818376, -0.00111196819802931, 2.5825,209.642303466797
0.130330151666667, 229.019018100367, -0.000976809986906034, 2.59625,209.642303466797
0.13099602, 229.027337939628, -0.00123414456127447, 2.60875,212.612747192383
0.13166316, 229.035010541311, -0.00101762593680259, 2.6225,209.081466674805
0.132329655, 229.043545682843, -0.0010394678396823, 2.635,210.622055053711
0.132996235, 229.051529243537, -0.000748330963202184, 2.65,208.689819335938
0.133663206666667, 229.05993840388, -0.000545356658408421, 2.66375,208.689819335938
0.134329613333333, 229.068759051827, -0.00016556823478022, 2.675,207.727935791016
0.134996565, 229.077782609241, -0.000501113380697812, 2.68875,202.570892333984
0.135664071666667, 229.086423286018, -0.000375451192608127, 2.7025,199.925216674805
0.136331028333333, 229.095034086557, -0.000835208099504912, 2.71625,205.635894775391
0.136996063333333, 229.103262261335, -0.000839799368847178, 2.73,205.635894775391
0.137663376666667, 229.111362069012, -0.00114732592208723, 2.7425,205.326324462891
0.138329363333333, 229.119562772316, -0.00106222469659677, 2.75625,201.678970336914
0.138996266666667, 229.12760121272, -0.00119312612158347, 2.76875,200.596099853516
0.139663141666667, 229.136071215662, -0.00116371559882592, 2.78375,197.743682861328
0.140329315, 229.145044439448, -0.00173479241426672, 2.79625,197.743682861328
0.140995726666667, 229.153413803501, -0.00156944371958993, 2.81,201.301742553711
0.14166402, 229.161558950344, -0.00156579140303037, 2.82375,198.964691162109
0.142329408333333, 229.169930043316, -0.00172532039004484, 2.83625,198.832778930664
0.142996301666667, 229.178001969824, -0.00147670937751479, 2.85,245.536666870117
0.143663056666667, 229.185983689317, -0.00136554846100002, 2.86375,245.536666870117
0.144330671666667, 229.194446506681, -0.00140602842774524, 2.8775,203.865249633789
0.144996553333333, 229.202694951839, -0.00153886025575774, 2.89,203.435562133789
0.145663113333333, 229.210767220171, -0.00128375156960756, 2.90375,208.226913452148
0.146329248333333, 229.219535981128, -0.0014558019277296, 2.91625,205.210998535156
0.146996038333333, 229.227979206115, -0.00137136966865052, 2.93,205.210998535156
0.147663976666667, 229.236325536043, -0.00132959076715954, 2.94375,204.403182983398
0.148329533333333, 229.245136066611, -0.0013792757715191, 2.9575,207.286544799805
0.148996283333333, 229.254397543877, -0.00172961617430092, 2.97125,201.897033691406
0.149662411666667, 229.263088717195, -0.00181186454300252, 2.985,205.800735473633
0.150330475, 229.271572198897, -0.00177141757461543, 2.9975,205.800735473633
0.150996401666667, 229.280105542857, -0.00192675877199462, 3.01,212.566024780273
0.151663505, 229.288583970479, -0.00182989363743278, 3.02375,203.731735229492
0.152330483333333, 229.296590299586, -0.00160946470934022, 3.03625,207.610229492188
0.152996123333333, 229.305022621828, -0.00156404549072742, 3.05,209.189437866211
0.15366273, 229.313600631576, -0.00145219160903208, 3.06375,209.189437866211
0.154329325, 229.321906223782, -0.00128506250374855, 3.07625,208.212554931641
0.154996481666667, 229.330181154694, -0.00133332107976681, 3.09,210.299209594727
0.155662948333333, 229.338337085465, -0.000962142223701101, 3.10375,210.658996582031
0.156329545, 229.347015707603, -0.000724725148862926, 3.11625,216.164428710938
0.15699679, 229.355564345587, -0.000589007465852219, 3.13,216.164428710938
0.157662891666667, 229.364872226316, -0.000471365374885762, 3.14375,209.707977294922
0.158329136666667, 229.374167679258, -0.000233741310522445, 3.155,207.562072753906
0.158996018333333, 229.383740448259, -0.00053097838063457, 3.16875,212.767166137695
0.159663238333333, 229.393003371453, -0.00049726757391149, 3.1825,250.379302978516
0.160329115, 229.402749194334, -0.000500340919545118, 3.195,250.379302978516
