Time (min), Depth (µm), Load (N), Position (µm), Acoustic (aJ)
7.50666666666667E-06, 227.308541905355, 0.00064322335466899, 0,142.110626220703
0.000666335, 227.308282488877, 0.000531492466732207, 0.0049999999999998,142.110626220703
0.00133293833333333, 227.308658719012, 0.000157832735299676, 0.0162499999999998,149.284118652344
0.001999875, 227.309331138385, 0.000159350659050822, 0.03125,145.822647094727
0.00266656, 227.309967860687, -7.75294749659594E-06, 0.0449999999999999,150.063262939453
0.00333305, 227.311178694151, -2.28691882468824E-05, 0.0600000000000002,162.309356689453
0.00399993666666667, 227.313324662151, -0.000506498896005452, 0.0750000000000004,162.309356689453
0.004666275, 227.316460877352, -0.000452713097626005, 0.0899999999999998,170.007446289063
0.005332945, 227.320540933644, -0.000583349035929565, 0.103750000000001,175.632629394531
0.00599958666666667, 227.326892799688, -0.000242023180362875, 0.1175,180.466888427734
0.00666666166666667, 227.334346437524, -0.000704308960228635, 0.13,214.083358764648
0.00733302166666667, 227.342229534511, -0.00057756532643166, 0.14375,214.083358764648
0.007999815, 227.349099337742, -0.000586551375083127, 0.15625,181.306350708008
0.00866625333333333, 227.355600803529, -0.000947994220168221, 0.17,184.284820556641
0.00933295333333333, 227.360949295126, -0.00186302625907971, 0.18375,184.266296386719
0.0100000966666667, 227.365962464073, -0.00185689006728328, 0.19625,184.266296386719
0.0106665033333333, 227.370193408627, -0.00196654805931218, 0.21,178.955169677734
0.0113329183333333, 227.376143041305, -0.00195533762238811, 0.22375,183.549514770508
0.0119998766666667, 227.38272171223, -0.00167123989234397, 0.23625,175.687408447266
0.012666305, 227.390055041878, -0.00125599474966848, 0.25,178.478271484375
0.0133329033333333, 227.398263908942, -0.00112171399446989, 0.26375,177.755889892578
0.0139995966666667, 227.40745704247, -0.00146592870490485, 0.27625,177.755889892578
0.01466638, 227.416497820915, -0.00171054541806889, 0.29,180.753036499023
0.0153330116666667, 227.426103580651, -0.00196780349627151, 0.30375,173.465072631836
0.0159999683333333, 227.435774110518, -0.001885169646892, 0.3175,180.876007080078
0.01666629, 227.446247067667, -0.00230533604236348, 0.33,180.876007080078
0.0173328816666667, 227.456875866959, -0.00217059031053612, 0.34375,177.378967285156
0.017999935, 227.467366255696, -0.00213653902086723, 0.35625,180.661361694336
0.0186664666666667, 227.478159022154, -0.00191624508601347, 0.37125,175.522903442383
0.0193330083333333, 227.489039822029, -0.00212341018033383, 0.38375,180.535659790039
0.0199999333333333, 227.499985394484, -0.00193262576320574, 0.4,178.031799316406
0.0208329516666667, 227.516557067738, -0.0017028598041301, 0.41375,179.787017822266
0.0214998416666667, 227.528093288044, -0.00173342226899939, 0.4275,179.787017822266
0.0221665466666667, 227.539215351834, -0.0017528612926025, 0.44125,180.620483398438
0.0228329116666667, 227.550087008665, -0.00161879052684162, 0.45375,184.740356445313
0.0235000366666667, 227.560959442374, -0.00101279546536308, 0.4675,221.247772216797
0.0241667033333333, 227.572370646313, -0.000895417361134103, 0.48,189.975814819336
0.024832935, 227.584239573427, -0.00104882815546623, 0.49375,189.975814819336
0.0254998966666667, 227.596211644744, -0.000913914432020685, 0.5075,184.745239257813
0.02616644, 227.607864805441, -0.00098474387434867, 0.52,183.565017700195
0.02683291, 227.619935003638, -0.00167091890850042, 0.5375,185.424438476563
0.02766653, 227.631131837432, -0.00202382268251249, 0.55,181.719436645508
0.028332905, 227.642052153324, -0.00208418265069913, 0.56375,184.350952148438
0.0289997366666667, 227.652891163784, -0.00237721543200754, 0.57625,184.350952148438
0.0296662333333333, 227.663913656685, -0.00232251317964767, 0.59,179.865341186523
0.03033293, 227.674452287124, -0.00200227326493392, 0.60375,175.676467895508
0.0310004583333333, 227.685866915607, -0.00194194029542904, 0.61625,184.548004150391
0.0316667016666667, 227.696742799111, -0.00183767153271622, 0.62875,149.035980224609
0.03233295, 227.707630090818, -0.0018470310625441, 0.6425,149.035980224609
0.032999855, 227.719114272422, -0.0019373715248253, 0.65625,178.580505371094
0.0336662533333333, 227.730966518574, -0.0019757590966879, 0.67,175.603561401367
0.0343329533333333, 227.742090096807, -0.00195270375471091, 0.68375,174.134078979492
0.0349995716666667, 227.753752114611, -0.00190326323802909, 0.695,140.18879699707
0.03566668, 227.765068654597, -0.00162061293531039, 0.70875,140.18879699707
0.0363329683333333, 227.775511860519, -0.00133914607309464, 0.72125,178.47721862793
0.0369995916666667, 227.786189161685, -0.0013781951117041, 0.735,177.971572875977
0.0376664816666667, 227.797098185729, -0.00144031899128653, 0.74875,179.604553222656
0.0383329416666667, 227.807641423312, -0.00129307438721765, 0.76125,177.419921875
0.0389997433333333, 227.818689194989, -0.00117167948473537, 0.775,177.419921875
0.039666415, 227.829589715759, -0.00147646567566559, 0.7875,183.248291015625
0.04033297, 227.840281238445, -0.00150528072830752, 0.80125,214.404754638672
0.041000165, 227.850823537884, -0.0015374481125646, 0.815,179.320251464844
0.0416662233333333, 227.861472238573, -0.00185943243961439, 0.8275,181.977813720703
0.0423329266666667, 227.872660801374, -0.00233573501543031, 0.84,181.977813720703
0.04299967, 227.884009908327, -0.00234407159670889, 0.85375,187.586196899414
0.0436663883333333, 227.8949719306, -0.00224245470080862, 0.8675,185.124267578125
0.0443388766666667, 227.906400952182, -0.00221458760055958, 0.88,180.729202270508
0.0449996533333333, 227.917975387631, -0.00215549806859754, 0.89375,177.625289916992
0.0456663733333333, 227.92911839129, -0.00202746749945003, 0.9075,177.625289916992
0.0463330083333333, 227.940314375073, -0.00214111079123476, 0.92,180.436569213867
0.0469995966666667, 227.951940220526, -0.00240486654307875, 0.93375,180.941207885742
0.0476662533333333, 227.963090506291, -0.00230126824672297, 0.9475,181.064743041992
0.0483330433333333, 227.973676438579, -0.00214018083795596, 0.96,177.518585205078
0.0489997066666667, 227.984425531848, -0.00199295573292557, 0.975,177.518585205078
0.049666185, 227.996067439283, -0.00185139284351643, 0.9875,182.178527832031
0.0503328816666667, 228.006952137043, -0.00169545467613973, 1.00125,175.383453369141
0.0509999966666667, 228.018810174122, -0.00185404921008093, 1.01375,182.575820922852
0.0516663316666667, 228.03042747172, -0.00205179627745793, 1.0275,179.901473999023
0.052332935, 228.041697225477, -0.0020989974065806, 1.04125,179.901473999023
0.05299988, 228.052449495958, -0.00198069834859799, 1.05375,177.146911621094
0.05366624, 228.063513556922, -0.0019058056103602, 1.06875,179.244125366211
0.054332945, 228.074068739255, -0.00171552666790478, 1.0825,168.492294311523
0.055000235, 228.085177759425, -0.00182296627129493, 1.095,183.556686401367
0.05566626, 228.096024275767, -0.0018251261628182, 1.1075,183.556686401367
0.0563328983333333, 228.106611893405, -0.00176087539004937, 1.12125,172.879272460938
0.0569996133333333, 228.117800566478, -0.00186829699438919, 1.135,214.027114868164
0.0576662516666667, 228.128638863054, -0.0017921548189322, 1.14875,186.045593261719
0.0583329566666667, 228.139255661007, -0.0015591445228197, 1.16125,182.931243896484
0.0590001933333333, 228.149677082203, -0.00124795365358236, 1.175,182.931243896484
0.05966623, 228.16045706628, -0.0011433909056865, 1.18875,180.718734741211
0.060332975, 228.170699912241, -0.00117290342332473, 1.2025,174.518005371094
0.06099956, 228.18096414279, -0.00111814267389188, 1.215,175.949066162109
0.06166657, 228.191723477736, -0.000965973817199441, 1.22875,182.570648193359
0.06233301, 228.202497479175, -0.00126786965329449, 1.24125,182.570648193359
0.0630003433333333, 228.213156056684, -0.00144995000758018, 1.255,182.705307006836
0.06366627, 228.223688123357, -0.00133108247816372, 1.26875,183.044952392578
0.0643329583333333, 228.234398268375, -0.00132604723102806, 1.2825,181.404495239258
0.0649996916666667, 228.244760013492, -0.00155383628942139, 1.295,173.32958984375
0.0656664283333333, 228.255237952466, -0.00144901255457309, 1.30875,173.32958984375
0.0663340016666667, 228.265529334281, -0.00168326478832528, 1.3225,173.34147644043
0.0669995983333333, 228.275934131936, -0.00177321827004668, 1.335,178.818725585938
0.0676662866666667, 228.286141724664, -0.00228450808852915, 1.34875,180.771392822266
0.0683329066666667, 228.295661160511, -0.00208492811323382, 1.36125,182.076263427734
0.0689996783333333, 228.305329677223, -0.00212924038750949, 1.375,182.076263427734
0.0696664633333333, 228.314463535016, -0.00194824297885549, 1.38875,191.582321166992
0.070332965, 228.323428781358, -0.00184984342133156, 1.4025,183.290878295898
0.070999765, 228.332188272707, -0.00147978500896511, 1.415,183.06169128418
0.0716662683333333, 228.34187559311, -0.00155306232832304, 1.4275,181.913665771484
0.0723330283333333, 228.351391797747, -0.00178728306362025, 1.44125,181.913665771484
0.0729996616666667, 228.361440945167, -0.00182011041469978, 1.455,215.579483032227
0.07366639, 228.37119262249, -0.00159473023534441, 1.46875,186.875198364258
0.0743335133333333, 228.381370683818, -0.00156179188983779, 1.48125,186.363265991211
0.0749996316666667, 228.390914518351, -0.00166042843545994, 1.49375,176.97541809082
0.07566641, 228.401190398163, -0.00147583120757925, 1.5075,176.97541809082
0.07633296, 228.410861535551, -0.00173379275043326, 1.52125,186.050369262695
0.0769996716666667, 228.420833221539, -0.0021124862290558, 1.53375,180.952606201172
0.07766663, 228.430015387868, -0.00227740894511705, 1.54875,176.741317749023
0.078332915, 228.439436154689, -0.00218247121371095, 1.56,179.710922241211
0.0789996783333333, 228.448226816046, -0.00216682699950696, 1.57375,179.710922241211
0.079666325, 228.457323705178, -0.00211799695218478, 1.58625,180.555694580078
0.080332875, 228.466068091863, -0.00238830137507862, 1.6,183.162567138672
0.0809996, 228.475239945355, -0.00239422907734049, 1.6125,180.021179199219
0.0816663833333333, 228.483835505308, -0.00265596743052204, 1.62625,178.204498291016
0.0823330816666667, 228.492725486838, -0.00299385245891254, 1.64,178.204498291016
0.0829996866666667, 228.501096868036, -0.00287977868873906, 1.65375,186.492050170898
0.0836663166666667, 228.509512798274, -0.00272308155946553, 1.66625,184.143920898438
0.084333, 228.517521253008, -0.00256963176705641, 1.68,184.671157836914
0.0849996283333333, 228.525963391907, -0.00242978779126845, 1.6925,180.621917724609
0.0856664266666667, 228.534080829514, -0.00219708497967988, 1.705,180.621917724609
0.08633317, 228.542717479017, -0.00208161927942638, 1.71875,179.874740600586
0.0869999566666667, 228.550779694378, -0.00208680601892677, 1.7325,165.835891723633
0.0876662766666667, 228.558499073018, -0.00209960487604894, 1.74625,164.011749267578
0.08833295, 228.566029656901, -0.00197515612695027, 1.75875,164.011749267578
0.088999995, 228.573354332318, -0.00211863891997816, 1.7725,169.046508789063
0.0896663166666667, 228.580565783057, -0.00249852933848703, 1.78625,205.143905639648
0.0903330283333333, 228.587482218527, -0.00242168219841173, 1.8,169.992874145508
0.0909998816666667, 228.594973190495, -0.00267622691290126, 1.8125,171.642929077148
0.0916664166666667, 228.602161102353, -0.00258109119149519, 1.82625,165.701965332031
0.0923329166666667, 228.608833220394, -0.00255552797549087, 1.84,165.701965332031
0.093000095, 228.615184626365, -0.00214821743424762, 1.8525,173.875350952148
0.0936662866666667, 228.621995448459, -0.00221627951556275, 1.86625,169.950424194336
0.094332875, 228.628327718804, -0.00178158334988893, 1.88,172.539031982422
0.0949999316666667, 228.634313645063, -0.00175945946113639, 1.8925,172.929183959961
0.0956665766666667, 228.640052661097, -0.00139569923242318, 1.90625,172.929183959961
0.0963329433333333, 228.645439053449, -0.0011496335920518, 1.92,173.461334228516
0.0969996216666667, 228.651488676724, -0.00104158201937759, 1.93375,169.106857299805
0.0976662633333333, 228.657165847537, -0.00112639525931886, 1.945,170.553726196289
0.0983329383333333, 228.663612931305, -0.00104643127584474, 1.95875,169.282730102539
0.09899967, 228.670197365927, -0.00147373731270847, 1.9725,169.282730102539
0.0996663916666667, 228.677206503966, -0.00181483967947531, 1.98625,166.585174560547
0.10033303, 228.683443764981, -0.00141008800971036, 2,167.010101318359
0.10099961, 228.689766316115, -0.00116703571795397, 2.01375,165.86067199707
0.101666378333333, 228.696035324974, -0.00150871105599163, 2.02625,168.13557434082
0.102332906666667, 228.702221455291, -0.00143019899957366, 2.04,168.13557434082
0.103000188333333, 228.708402744715, -0.00107136452345092, 2.0525,168.484756469727
0.103666221666667, 228.71487884171, -0.0013926873837326, 2.06625,170.54362487793
0.104333111666667, 228.721493081506, -0.00155947150631836, 2.08,170.737945556641
0.104999946666667, 228.727984989514, -0.00142276087316141, 2.0925,166.631607055664
0.105666215, 228.734610614694, -0.00117243994651409, 2.10625,166.631607055664
0.106333078333333, 228.74140182981, -0.00117206496532826, 2.12,203.799850463867
0.10699985, 228.748659089933, -0.000913554450057633, 2.13375,171.115310668945
0.107666298333333, 228.756283904591, -0.00114334890769693, 2.1475,165.598114013672
0.10833299, 228.764177948413, -0.000926050322365329, 2.16,174.677169799805
0.108999595, 228.772820827757, -0.000947019269093562, 2.1725,174.677169799805
0.109666281666667, 228.781550594596, -0.00112609677421384, 2.18625,165.350646972656
0.110332998333333, 228.790138608279, -0.00138382732866724, 2.2,164.398880004883
0.110999665, 228.798560524491, -0.000968150207721109, 2.2125,165.008972167969
0.111666245, 228.806456419497, -0.000938505696735392, 2.225,161.644012451172
0.112332933333333, 228.814603966131, -0.000867982239070688, 2.23875,161.644012451172
0.112999751666667, 228.822572767042, -0.000788675222591465, 2.2525,157.609008789063
0.113666256666667, 228.830380450443, -0.000338945312073294, 2.26625,168.550476074219
0.114332978333333, 228.838747248804, -0.000667352316544298, 2.27875,156.713348388672
0.11499985, 228.847468136162, -0.000891693048139429, 2.2925,158.78239440918
0.115666498333333, 228.856037035892, -0.00121163297788751, 2.305,158.78239440918
0.116333048333333, 228.864005654541, -0.000818610718975176, 2.31875,160.265243530273
0.11699963, 228.872325269879, -0.000970904069414335, 2.33125,157.598159790039
0.11766628, 228.880332198528, -0.00108107353570726, 2.345,158.670257568359
0.11833291, 228.888656318874, -0.00114261544451496, 2.3575,161.575668334961
0.118999623333333, 228.896345050344, -0.000796821313407074, 2.37125,161.575668334961
0.119666331666667, 228.904585818533, -0.00103188350646454, 2.38375,159.792541503906
0.120332933333333, 228.912612111517, -0.00121379436925016, 2.3975,164.357849121094
0.120999685, 228.920959455702, -0.00102501535145305, 2.41125,159.273498535156
0.12166645, 228.928396522647, -0.000668909238308675, 2.42375,165.402847290039
0.122332898333333, 228.936879690157, -0.000991631528313643, 2.4375,165.402847290039
0.122999591666667, 228.945037183358, -0.00132992603615125, 2.45,197.979522705078
0.123666456666667, 228.953097928302, -0.00106306094048795, 2.46375,163.537200927734
0.124333006666667, 228.960419187642, -0.000956132811383068, 2.47625,164.31120300293
0.124999615, 228.968804477528, -0.00116772568328574, 2.49,167.688735961914
0.125666248333333, 228.97636418573, -0.00109589879108081, 2.5025,167.688735961914
0.126332895, 228.983955706157, -0.000994305894013496, 2.515,161.242004394531
0.126999915, 228.991188931751, -0.00135625421372876, 2.53,157.844604492188
0.127666226666667, 228.999144282145, -0.00152627967352382, 2.54375,155.853897094727
0.12833298, 229.006661479183, -0.00159305781931597, 2.55625,159.151138305664
0.128999656666667, 229.014518003788, -0.00166830003998223, 2.57,159.151138305664
0.129666238333333, 229.022499451803, -0.0015790155246297, 2.58375,158.013534545898
0.130332866666667, 229.031098619546, -0.0016923663311558, 2.59625,157.500244140625
0.130999688333333, 229.039566063985, -0.00150524922983129, 2.61,162.219207763672
0.131666501666667, 229.047848402763, -0.00128767315844258, 2.62375,160.826263427734
0.13233296, 229.056534053148, -0.00108993209080571, 2.63625,160.826263427734
0.13300001, 229.065242111333, -0.00147336683127459, 2.65,157.58674621582
0.133666251666667, 229.073947391885, -0.00148126093474795, 2.66375,160.7744140625
0.134333393333333, 229.082255368103, -0.00159310431697247, 2.67625,159.437698364258
0.134999653333333, 229.091343568449, -0.00201192228019288, 2.69,157.51872253418
0.135666268333333, 229.10013505789, -0.00230407460566404, 2.70375,157.51872253418
0.136332911666667, 229.108621358919, -0.00164256733249909, 2.71625,155.243362426758
0.136999621666667, 229.117490486042, -0.00143087846541336, 2.73,159.180862426758
0.137666538333333, 229.126580056384, -0.0015558866863782, 2.74375,155.497589111328
0.138333061666667, 229.135519028625, -0.00111324391987691, 2.75625,154.597534179688
0.139000231666667, 229.144183307097, -0.00092298447641748, 2.77,154.597534179688
0.139666268333333, 229.153602221877, -0.00150749911688252, 2.78375,178.52799987793
0.140332925, 229.162522633409, -0.00162529270023496, 2.7975,157.882781982422
0.140999875, 229.171724818766, -0.00163152038739873, 2.81125,151.028778076172
0.14166631, 229.18065648616, -0.00180770753772634, 2.82375,160.201705932617
0.14233291, 229.190235114998, -0.00179393072972321, 2.83625,160.201705932617
0.142999655, 229.198882702852, -0.00154194038689625, 2.85,160.454635620117
0.143666373333333, 229.208387526468, -0.00153500623516851, 2.86375,158.385192871094
0.14433313, 229.217030276418, -0.00137291087709624, 2.8775,151.686645507813
0.144999605, 229.225863334398, -0.00125814714152722, 2.89,152.562850952148
0.1456662, 229.234122926869, -0.00123676871533063, 2.90375,152.562850952148
0.146333046666667, 229.243469363146, -0.00116215796294441, 2.9175,156.221145629883
0.146999838333333, 229.251556156798, -0.0010502455842186, 2.93125,153.49462890625
0.147666288333333, 229.260575095805, -0.000916383307971021, 2.94375,158.740692138672
0.148332951666667, 229.26908303883, -0.000908504203699191, 2.9575,151.367141723633
0.148999568333333, 229.278005242022, -0.00080910119664321, 2.97,151.367141723633
0.149666255, 229.286748870329, -0.000943950423296907, 2.985,152.539138793945
0.150332948333333, 229.296274959242, -0.00112808567439764, 2.99875,161.497360229492
0.150999608333333, 229.305298019304, -0.00131381534539408, 3.01125,164.587371826172
0.151666481666667, 229.314329941494, -0.00142438379168454, 3.02375,160.051040649414
0.152332936666667, 229.323559009643, -0.00153463875368971, 3.03625,160.051040649414
0.152999746666667, 229.332664239693, -0.00155368329708975, 3.05,154.131164550781
0.153666253333333, 229.341725753306, -0.00135712866980464, 3.065,155.092742919922
0.154332916666667, 229.350763835614, -0.00140090097114635, 3.0775,156.339218139648
0.154999743333333, 229.359973433444, -0.00137774213438553, 3.09,189.892791748047
0.155666305, 229.369063722513, -0.00128677770346756, 3.10375,189.892791748047
0.15633293, 229.378296655838, -0.000940928075114244, 3.11625,159.19059753418
0.156999606666667, 229.387486399744, -0.000818039247713773, 3.13,163.01823425293
0.157666658333333, 229.397647206233, -0.000870266624361931, 3.14375,159.935272216797
0.158332928333333, 229.407490253543, -0.000682518054757384, 3.15625,160.596008300781
0.159000111666667, 229.416901799977, -0.000573238043763114, 3.17,160.596008300781
0.159666371666667, 229.427064098012, -0.000794784415727385, 3.1825,163.322860717773
0.160333038333333, 229.436615464847, -0.000765574882903629, 3.19625,159.340087890625
0.160999778333333, 229.445821198984, -0.000412323126387496, 3.21,163.380218505859
