Time (min), Depth (µm), Load (N), Position (µm), Acoustic (aJ)
7.41166666666667E-06, 227.383429663301, 0.000464858763016094, 0,246.239517211914
0.000665353333333333, 227.383624186175, 4.17270164680173E-05, 0.00375000000000028,249.375274658203
0.00133199333333333, 227.383700064646, 0.000101368520780488, 0.0162499999999998,249.375274658203
0.00199833666666667, 227.383615164719, -3.38646866267132E-05, 0.0300000000000005,254.602401733398
0.00266504, 227.383927717292, 0.000344066830250189, 0.0449999999999999,250.835083007813
0.003331725, 227.384909340019, -4.95134006251726E-05, 0.0600000000000002,265.7392578125
0.00399826333333333, 227.386736806649, 0.00010154851166637, 0.07375,332.702301025391
0.00466594666666667, 227.389474624584, 0.000116676751790629, 0.0899999999999998,332.702301025391
0.00533180833333333, 227.39354660358, 0.000347246670516448, 0.103750000000001,283.327117919922
0.00599837833333333, 227.399132653943, -0.000339595830079766, 0.11625,286.230224609375
0.00666513833333333, 227.405603044901, -0.000680527205464636, 0.12875,280.322662353516
0.00733238833333333, 227.411744205528, -0.00077507495644087, 0.1425,286.737365722656
0.00799853666666667, 227.417653145667, -0.00103628533610495, 0.155,286.737365722656
0.00866514833333333, 227.422705152066, -0.00129805818754777, 0.168750000000001,290.702880859375
0.009331965, 227.4270711154, -0.000720567694295932, 0.1825,282.879302978516
0.00999837, 227.431946950172, -0.000353954608857628, 0.195,291.0380859375
0.01066503, 227.438341566816, -0.000256486504579407, 0.20875,284.578460693359
0.0113320566666667, 227.445754193768, -0.000296433998055192, 0.22375,284.578460693359
0.0119983783333333, 227.454974715809, -0.000458368864216312, 0.23625,285.938232421875
0.0126650416666667, 227.465359534223, -0.00062377305615979, 0.25,290.698486328125
0.013331765, 227.476224894951, -0.000853919996140128, 0.26375,291.670166015625
0.0139983633333333, 227.487380395272, -0.00122863117481314, 0.27625,294.465759277344
0.0146650366666667, 227.498035772389, -0.00124990010648578, 0.2925,294.465759277344
0.0154986016666667, 227.508818108789, -0.00140567178227497, 0.30625,291.539001464844
0.0161650583333333, 227.520107251392, -0.00175852905858803, 0.32,296.95068359375
0.0168318883333333, 227.530466071527, -0.00173863405788131, 0.33375,290.757781982422
0.017498365, 227.540618550807, -0.00150584575055925, 0.34625,300.861389160156
0.01816571, 227.551711512366, -0.00136512881859855, 0.36,300.861389160156
0.0188317933333333, 227.562248057336, -0.00113660029734689, 0.37375,294.988494873047
0.0194983416666667, 227.57220006577, -0.00100626284408459, 0.3875,292.226928710938
0.0201650383333333, 227.58277674323, -0.00115863569051713, 0.4,290.610992431641
0.0208319683333333, 227.593186173525, -0.00105866721183359, 0.41375,355.364868164063
0.0214984766666667, 227.60373144801, -0.00138518131138887, 0.42625,296.522247314453
0.0221652516666667, 227.614830600077, -0.00157873758928178, 0.44,292.653533935547
0.022831735, 227.626115753108, -0.0017001489909325, 0.45375,292.653533935547
0.0234986083333333, 227.637062073655, -0.00150960006202073, 0.466250000000001,294.907745361328
0.0241650533333333, 227.6484569575, -0.00157169844286706, 0.48,294.237335205078
0.024831935, 227.65999060791, -0.00139849764255769, 0.495,286.320129394531
0.02566511, 227.676997073263, -0.000788950759497122, 0.51,285.763977050781
0.0263317033333333, 227.688799938616, -0.000751272652004785, 0.52375,285.763977050781
0.02699859, 227.70064305123, -0.000854887447550262, 0.53625,289.660095214844
0.027665015, 227.712102142199, -0.000359849312782628, 0.55,292.144439697266
0.0283318633333333, 227.72351868988, -0.000539438292209428, 0.5625,294.10302734375
0.0289983566666667, 227.734763656685, -0.000663198575858225, 0.57625,286.350677490234
0.02966504, 227.745978940375, -0.000603270585963478, 0.58875,286.350677490234
0.03033196, 227.757111946505, -0.000246066527943376, 0.6025,287.651153564453
0.0309986116666667, 227.768701873427, -0.000491709189569279, 0.615,285.534820556641
0.031665125, 227.780513411824, -0.000564818517330282, 0.62875,289.210083007813
0.0323318466666667, 227.792022898569, -0.000344223097607709, 0.6425,281.328521728516
0.0329983883333333, 227.803679097463, -0.000498062870425438, 0.655,281.328521728516
0.03366515, 227.815233936494, -0.000765010461909666, 0.66875,287.00927734375
0.03433175, 227.826398893753, -0.00101051363052356, 0.68125,283.177917480469
0.0349983716666667, 227.837077598702, -0.00117501936757945, 0.695,297.013977050781
0.0356651983333333, 227.84792119008, -0.001443381388031, 0.70875,291.592926025391
0.0363321366666667, 227.8587325948, -0.00153684319350548, 0.72125,291.592926025391
0.0369983283333333, 227.869588624403, -0.00160354634307746, 0.735,295.010925292969
0.0376650416666667, 227.880750889578, -0.0017487750484083, 0.74875,345.6474609375
0.0383318, 227.892038989536, -0.00178975149021601, 0.76125,293.587097167969
0.0389984083333333, 227.903146823363, -0.00191678310956217, 0.775,290.870849609375
0.0396651066666667, 227.914481947093, -0.00225014736503611, 0.7875,290.870849609375
0.0403318883333333, 227.925295436049, -0.00220154830611455, 0.80125,299.106109619141
0.0409983416666667, 227.936241102965, -0.00197178834669401, 0.81375,295.095855712891
0.0416651366666667, 227.947342077679, -0.0017671386260655, 0.82625,290.729431152344
0.042332345, 227.958803570243, -0.00150292539721475, 0.84,290.971618652344
0.0429984133333333, 227.969970332664, -0.00122134004094989, 0.85375,290.971618652344
0.0436651683333333, 227.981160634841, -0.00106735027571309, 0.8675,291.531005859375
0.0443319733333333, 227.992795468857, -0.00127001709596168, 0.88125,290.750274658203
0.04499844, 228.004481948933, -0.00118271548101032, 0.8925,296.950286865234
0.0456651033333333, 228.01593995081, -0.000916811837102048, 0.90625,296.508056640625
0.04633169, 228.027254483447, -0.000658497811928251, 0.92,296.508056640625
0.0469983733333333, 228.038917349892, -0.000513696585137357, 0.9325,291.874328613281
0.047665525, 228.050065633334, -1.48861398791608E-05, 0.94625,294.228912353516
0.0483318866666667, 228.061340257517, -0.000125409588373764, 0.96,294.323852539063
0.04899851, 228.073864770716, -0.000426958941825386, 0.975,291.577880859375
0.0496650583333333, 228.087021864713, -0.000522777128983721, 0.98625,291.577880859375
0.0503317966666667, 228.100152504149, -0.00118717025723189, 1,298.670135498047
0.0509985016666667, 228.112763331347, -0.00180523971223956, 1.01375,292.243896484375
0.0516651833333333, 228.125574054164, -0.00206773702727543, 1.0275,293.089538574219
0.0523324066666667, 228.1369167767, -0.0021727347533545, 1.04,293.110565185547
0.0529983683333333, 228.148066698741, -0.00274394806191601, 1.05375,293.110565185547
0.053665175, 228.158957239972, -0.00241505058210137, 1.06875,289.430450439453
0.0543318933333333, 228.17035487865, -0.00226792447210286, 1.08125,355.124084472656
0.0549983233333333, 228.181211850008, -0.00214071436173145, 1.095,291.513916015625
0.0556650983333333, 228.192366672437, -0.0020455651409845, 1.1075,287.344970703125
0.056331695, 228.202787167168, -0.00136891462843, 1.12125,287.344970703125
0.0569984583333333, 228.214000362641, -0.00136016556787676, 1.135,291.730285644531
0.057665225, 228.224455925053, -0.00126241547772571, 1.14875,301.025451660156
0.05833182, 228.235482030795, -0.00111458290320573, 1.16,298.326049804688
0.0589985616666667, 228.246760086247, -0.00144396185886008, 1.175,291.815032958984
0.0596650616666667, 228.257702607761, -0.00171882005300735, 1.18875,291.815032958984
0.06033183, 228.267889293034, -0.0017852562160143, 1.20125,299.200225830078
0.0609985466666667, 228.27850225749, -0.00187209735408884, 1.215,293.119659423828
0.06166505, 228.288447954101, -0.00204075188278804, 1.2275,292.178649902344
0.062331835, 228.297705205976, -0.00194073240667479, 1.24125,289.385864257813
0.0629983416666667, 228.307667095742, -0.00205791552073135, 1.255,289.385864257813
0.0636650416666667, 228.317605395072, -0.00208350723525682, 1.26875,292.668090820313
0.06433212, 228.327448972386, -0.00181767408775299, 1.28125,291.345947265625
0.0649983583333333, 228.337078931061, -0.00193634062723565, 1.295,303.301574707031
0.0656652616666667, 228.347001015423, -0.00186969447479099, 1.3075,294.335113525391
0.0663317933333333, 228.356538587009, -0.00179996597714503, 1.3225,294.335113525391
0.0669983333333333, 228.36653242354, -0.0019906498992956, 1.335,299.033416748047
0.067665605, 228.376097759512, -0.0025665099744448, 1.3475,299.419494628906
0.0683318266666667, 228.385642601315, -0.00243436511193651, 1.36125,296.522552490234
0.0689984316666667, 228.395015239172, -0.00244090778330999, 1.375,296.522552490234
0.0696656033333333, 228.404942891174, -0.00259627897919849, 1.3875,295.845764160156
0.0703317716666667, 228.413495279901, -0.00251203721060364, 1.40125,299.882781982422
0.070998335, 228.422783518377, -0.00229336619423051, 1.41375,366.090209960938
0.0716651533333333, 228.431985047224, -0.00219710252946065, 1.4275,304.585784912109
0.0723319683333333, 228.440764263144, -0.00203516916318142, 1.44,303.371673583984
0.07299857, 228.448990733793, -0.00182686862589651, 1.455,303.371673583984
0.0736653616666667, 228.458187300722, -0.00152398583939535, 1.4675,298.873107910156
0.07433171, 228.466564441718, -0.00139983257546788, 1.48,295.563629150391
0.0749983566666667, 228.475136639402, -0.00125795470182778, 1.49375,307.225128173828
0.075665155, 228.484003207427, -0.00117437589990418, 1.5075,304.576324462891
0.07633186, 228.493389434673, -0.00127646527203399, 1.52,304.576324462891
0.0769985083333333, 228.502306883349, -0.00141756018496556, 1.53375,297.047210693359
0.0776651883333333, 228.511521126119, -0.00147538228061556, 1.54625,298.607757568359
0.0783321666666667, 228.52096184583, -0.00173838957003355, 1.55875,293.248077392578
0.078998535, 228.530319343402, -0.00187386726511848, 1.5725,298.938018798828
0.0796656166666667, 228.539066154893, -0.00186563867846069, 1.58625,298.938018798828
0.08033195, 228.548294569925, -0.00192489020232204, 1.6,293.548889160156
0.0809984033333333, 228.55723084295, -0.00221054785406439, 1.6125,297.531982421875
0.0816650383333333, 228.566285152733, -0.00206171482977615, 1.625,296.477630615234
0.08233185, 228.574671898021, -0.00194781055108149, 1.64,300.985412597656
0.08299842, 228.583269857749, -0.00176534321621474, 1.6525,300.985412597656
0.0836652083333333, 228.591443188667, -0.00158585923149617, 1.66625,300.014251708984
0.0843318416666667, 228.600274428376, -0.00133987908679451, 1.67875,294.954620361328
0.0849983583333333, 228.608641200879, -0.00166381931564872, 1.69125,299.538848876953
0.085665145, 228.61806643248, -0.00180143290344521, 1.705,300.163757324219
0.0863325483333333, 228.627149754573, -0.00204085837737816, 1.71875,300.163757324219
0.086998365, 228.636097810223, -0.00200547515464789, 1.7325,346.500579833984
0.087665065, 228.644508247837, -0.0015133588731279, 1.745,282.13330078125
0.088331835, 228.652423604676, -0.00087392599114642, 1.75875,284.195617675781
0.08899836, 228.65988019187, -0.000755727428120084, 1.7725,279.096588134766
0.0896650216666667, 228.667170766696, -0.000506946924089959, 1.785,279.096588134766
0.0903321266666667, 228.674499556657, -0.000351383737877838, 1.79875,284.194458007813
0.0909983916666667, 228.681668340088, -0.000363419133351226, 1.8125,283.842193603516
0.0916650316666667, 228.689290423308, -0.000749151758430988, 1.825,287.926116943359
0.09233182, 228.69624904397, -0.000626723407928588, 1.83875,284.734466552734
0.092998365, 228.703437682653, -0.000578994305330947, 1.8525,284.734466552734
0.093665375, 228.710323400632, -0.000873189528200658, 1.86625,274.917358398438
0.0943323533333333, 228.716998514811, -0.00142619675127357, 1.88,294.412780761719
0.0949984766666667, 228.723396293662, -0.00117217851031335, 1.8925,288.185302734375
0.0956651333333333, 228.730057236341, -0.00136709821965884, 1.90625,288.418426513672
0.09633174, 228.736779743333, -0.00157232991108334, 1.91875,288.418426513672
0.0969985083333333, 228.743026146532, -0.00139834765003235, 1.9325,281.378326416016
0.0976652583333333, 228.749586622936, -0.00120286396896245, 1.945,285.3173828125
0.0983320066666667, 228.755310287641, -0.00144976956719094, 1.95875,283.549835205078
0.0989985716666667, 228.761502258299, -0.00128012208843052, 1.9725,283.999114990234
0.0996651483333333, 228.76653209451, -0.00104788725334078, 1.98625,283.999114990234
0.100332278333333, 228.772347114598, -0.00140337389760034, 2,287.986297607422
0.100998396666667, 228.777459684675, -0.00140213495983071, 2.0125,286.841156005859
0.101665166666667, 228.783357107227, -0.001275875801701, 2.025,284.770599365234
0.102332255, 228.788590048879, -0.00154915457517534, 2.04,285.81005859375
0.102998461666667, 228.794941714305, -0.00164873607332032, 2.0525,285.81005859375
0.10366521, 228.800601388371, -0.00172542122149632, 2.06625,342.145904541016
0.104331716666667, 228.806616172143, -0.00185456623468799, 2.07875,283.826416015625
0.104998393333333, 228.812225895704, -0.00200690908267496, 2.0925,287.969329833984
0.105665338333333, 228.81787418504, -0.00174928802272425, 2.105,280.247711181641
0.106331818333333, 228.823801876823, -0.00199947545605717, 2.11875,280.247711181641
0.106998411666667, 228.830365061871, -0.00193567616059749, 2.13375,276.850494384766
0.10766519, 228.837046897818, -0.00187845703462136, 2.14625,282.451446533203
0.108331986666667, 228.844878055099, -0.00199927596600527, 2.15875,284.330322265625
0.10899837, 228.852853429421, -0.00216614708424893, 2.1725,274.269592285156
0.109665105, 228.86096863773, -0.00203906596741871, 2.185,274.269592285156
0.110331976666667, 228.869520215983, -0.0021253161351721, 2.19875,282.022827148438
0.11099863, 228.877841500649, -0.00236020883675075, 2.2125,283.409973144531
0.111665071666667, 228.885751298079, -0.00226788247421957, 2.225,270.393280029297
0.112331891666667, 228.893982329585, -0.0023307293174919, 2.23875,272.353607177734
0.112998303333333, 228.902055347324, -0.00213975890975905, 2.2525,272.353607177734
0.113665215, 228.909804222363, -0.00173453476374331, 2.265,274.679718017578
0.114331908333333, 228.918633066739, -0.00180289383015405, 2.27875,271.763488769531
0.114998355, 228.927362748011, -0.00176218437495389, 2.29125,265.874755859375
0.115665471666667, 228.936132428675, -0.00165197591062648, 2.305,269.436920166016
0.11633175, 228.945138596448, -0.00192681910552972, 2.3175,269.436920166016
0.116998328333333, 228.954073641255, -0.00239430962396745, 2.33125,273.204132080078
0.117665065, 228.962449783992, -0.00195369325567503, 2.34375,268.961883544922
0.118331823333333, 228.970758954315, -0.0018975630750282, 2.3575,272.157989501953
0.118998355, 228.97913635555, -0.00192413724020785, 2.37,276.075775146484
0.119665183333333, 228.987243038276, -0.00194158586380903, 2.38375,276.075775146484
0.120332095, 228.99565242936, -0.00159296287478775, 2.3975,327.013458251953
0.120998493333333, 229.003555225263, -0.0018446547325947, 2.41,277.259521484375
0.121665165, 229.01206908375, -0.00233917539331568, 2.42375,272.797668457031
0.12233199, 229.020414686089, -0.00233209724884522, 2.43625,275.011810302734
0.122998365, 229.028452246949, -0.0025227646718061, 2.45,275.011810302734
0.123665196666667, 229.036596296262, -0.0026627361411896, 2.46375,275.924957275391
0.124332301666667, 229.044919513803, -0.00235247522527356, 2.47625,273.587890625
0.124998428333333, 229.052856481464, -0.00205010991275528, 2.48875,279.6640625
0.125665031666667, 229.060976844831, -0.00238492459536096, 2.50125,282.417114257813
0.12633184, 229.067813437705, -0.00230747298566612, 2.515,282.417114257813
0.12699845, 229.074495440932, -0.0023645121206501, 2.52875,271.762756347656
0.127666248333333, 229.080854701624, -0.0022613638017003, 2.54375,262.652648925781
0.128331903333333, 229.087083722246, -0.00222775198998784, 2.55625,267.576385498047
0.1289985, 229.09401214723, -0.00227864143383449, 2.56875,265.276275634766
0.129665283333333, 229.102193689994, -0.00227123330593156, 2.5825,265.276275634766
0.13033177, 229.109983072365, -0.00202042490374691, 2.595,266.137969970703
0.130998646666667, 229.118898643125, -0.00244614402033694, 2.60875,261.611663818359
0.131665713333333, 229.12730586225, -0.00221552310418141, 2.6225,266.503723144531
0.132331901666667, 229.135624688515, -0.00184801906352005, 2.635,266.164581298828
0.132998365, 229.144436123351, -0.00169126193729165, 2.64875,266.164581298828
0.133665106666667, 229.153556272914, -0.00168112994622606, 2.6625,270.414245605469
0.134332091666667, 229.161918636339, -0.00121370542446206, 2.675,266.863006591797
0.13499834, 229.170935948051, -0.0012346083744953, 2.68875,260.786804199219
0.135665073333333, 229.17942964434, -0.00112137456211517, 2.7025,257.741790771484
0.136332283333333, 229.187832670724, -0.000925647893270681, 2.71625,257.741790771484
0.136998385, 229.195976497346, -0.000950612639353086, 2.73,309.983978271484
0.13766565, 229.204595262118, -0.000981917566908259, 2.7425,264.337677001953
0.138331951666667, 229.213244945996, -0.000929429203371425, 2.75625,271.740753173828
0.138998358333333, 229.222246806131, -0.000945529394657773, 2.76875,261.236419677734
0.139665195, 229.231000342188, -0.00129550681564899, 2.7825,261.236419677734
0.140331823333333, 229.239607078827, -0.00120042659142458, 2.79625,262.246826171875
0.140999015, 229.24781172755, -0.0010489402004419, 2.81,258.895233154297
0.141665218333333, 229.256120423805, -0.00104200454881101, 2.8225,261.586700439453
0.142331776666667, 229.263748600522, -0.00077816030144847, 2.83625,260.102081298828
0.14299831, 229.27195730762, -0.000440353269105684, 2.85,260.102081298828
0.143665121666667, 229.280568554124, -0.000646469916076879, 2.86375,261.242370605469
0.144331946666667, 229.289504737462, -0.000988578732309594, 2.8775,263.701477050781
0.144998465, 229.298241439304, -0.000851770604023923, 2.89,259.188751220703
0.14566519, 229.307221757979, -0.00112853970220101, 2.90375,262.335845947266
0.146331743333333, 229.315708795034, -0.00107562835987619, 2.91625,262.335845947266
0.146998403333333, 229.324827425297, -0.00121930314322769, 2.93,263.281341552734
0.147665033333333, 229.33380415989, -0.00124489335787127, 2.9425,268.087432861328
0.14833194, 229.342957659205, -0.00186949198493279, 2.95625,257.075134277344
0.148998345, 229.352430473915, -0.00223783898325757, 2.97125,262.875366210938
0.14966531, 229.362176542739, -0.00221136231316414, 2.98375,262.875366210938
0.150331781666667, 229.37095302716, -0.0018458621718881, 2.9975,265.617492675781
0.150998363333333, 229.380269262362, -0.0018302629554162, 3.01,264.029479980469
0.15166517, 229.389648107506, -0.00149813463788434, 3.0225,264.929962158203
0.152332148333333, 229.399231803091, -0.00123575131710312, 3.03625,267.479461669922
0.152998403333333, 229.409148056049, -0.0017759341842965, 3.05,319.739685058594
0.153665206666667, 229.419480274015, -0.00193363326324144, 3.06375,319.739685058594
0.15433191, 229.429576757088, -0.00179506272346313, 3.07625,271.107666015625
0.154998763333333, 229.439573424343, -0.00202884398088893, 3.08875,268.408599853516
0.155665186666667, 229.44978389303, -0.00233591005725217, 3.10375,269.546264648438
0.156331825, 229.459401619371, -0.00210954292742692, 3.11625,269.546264648438
0.15699841, 229.469678098044, -0.00256109824628392, 3.13,272.826324462891
0.15766505, 229.479319713747, -0.00266741290620159, 3.14375,267.867523193359
0.158331728333333, 229.488837895568, -0.00237550056861371, 3.155,266.241851806641
0.158998408333333, 229.497934408454, -0.00197581114462368, 3.16875,264.234252929688
0.159665146666667, 229.507305712609, -0.00182243784842289, 3.1825,264.234252929688
0.160332021666667, 229.516142719093, -0.00129984909751906, 3.195,270.584350585938
0.160998383333333, 229.525883851541, -0.00137889662703401, 3.20875,272.088165283203
