Time (min), Depth (µm), Load (N), Position (µm), Acoustic (aJ)
8.36333333333333E-06, 227.246809444065, -0.000146329211540396, 0,159.533126831055
0.000666355, 227.246462681982, -0.000238139600013095, 0.0049999999999998,161.362655639648
0.00133110666666667, 227.245768743075, -0.000232028906952772, 0.0162499999999998,165.565673828125
0.00199817333333333, 227.245361258723, -0.000261973402904157, 0.0300000000000005,172.314926147461
0.00266492, 227.245086020369, -0.000709724912815619, 0.0449999999999999,182.180313110352
0.00333125, 227.245254056886, -0.00107380462546923, 0.0600000000000002,182.180313110352
0.00399787, 227.245719332142, -0.00162814528150667, 0.0750000000000004,184.306594848633
0.004665195, 227.247877694625, -0.00221757367514569, 0.0899999999999998,195.793441772461
0.005331185, 227.250106615358, -0.00217425285109186, 0.103750000000001,199.39338684082
0.005998005, 227.253969480994, -0.00216905711210882, 0.11625,206.762786865234
0.00666452666666667, 227.259488940716, -0.00191115256636087, 0.12875,206.762786865234
0.00733111, 227.266416513304, -0.00149184712766689, 0.1425,202.55793762207
0.00799778, 227.273605676156, -0.00097405063601787, 0.155,199.163711547852
0.008664695, 227.281919216411, -0.00084328120444242, 0.168750000000001,243.198455810547
0.00933173333333333, 227.290501641317, -0.000612600291332014, 0.1825,203.164260864258
0.00999777666666667, 227.299340678677, -0.000743948693812138, 0.195,203.164260864258
0.0106645833333333, 227.30780461864, -0.000829175912931216, 0.20875,204.955505371094
0.01133141, 227.317394740235, -0.00101076429194888, 0.22375,203.397811889648
0.0119980816666667, 227.327507216964, -0.00119370110321761, 0.23625,206.171569824219
0.0126649466666667, 227.337529264127, -0.00135814234350291, 0.25,200.786819458008
0.01333115, 227.348123535468, -0.00124898832617977, 0.2625,200.786819458008
0.01399839, 227.359392817465, -0.00139437002384225, 0.27625,200.960266113281
0.014664485, 227.369724362138, -0.0014368688891318, 0.29,200.711685180664
0.015331145, 227.380519696296, -0.00133329159171766, 0.30375,206.944152832031
0.0159979833333333, 227.39131860852, -0.001607516817703, 0.3175,203.668228149414
0.0166649766666667, 227.401774213894, -0.00154544693539908, 0.32875,203.668228149414
0.0173312533333333, 227.411831400843, -0.00133862082407887, 0.34375,202.227493286133
0.01799794, 227.422478400016, -0.00105584302774339, 0.35625,209.12841796875
0.0186645266666667, 227.432885700217, -0.000970980290296811, 0.370000000000001,202.329132080078
0.01933162, 227.444064089179, -0.000795106624233249, 0.38375,211.536972045898
0.0199979866666667, 227.455422834537, -0.00107293616915473, 0.39625,211.536972045898
0.020664685, 227.467096147583, -0.00120108673227575, 0.41,210.664932250977
0.0213310533333333, 227.478290693325, -0.00141391404215359, 0.423750000000001,203.211181640625
0.0219978683333333, 227.489681126878, -0.00139488899777079, 0.43625,213.116027832031
0.0226646016666667, 227.500285684262, -0.00120382109493048, 0.45,209.569732666016
0.0233312383333333, 227.510773296719, -0.000824857629872852, 0.46375,209.569732666016
0.02399852, 227.521512637535, -0.000702652768085283, 0.47625,207.989456176758
0.0246654066666667, 227.532447268975, -0.000677386537197823, 0.49,201.781784057617
0.0253312666666667, 227.543589277966, -0.000567238069825288, 0.50375,245.562301635742
0.025997925, 227.554876418417, -0.000781670299154677, 0.51625,206.240386962891
0.02666457, 227.56621811342, -0.000874676127589313, 0.53,206.240386962891
0.0273314666666667, 227.577500859999, -0.00102615351902557, 0.54375,206.836502075195
0.0279979233333333, 227.588842562152, -0.00115815288880298, 0.55625,204.816848754883
0.028664525, 227.599361642847, -0.00127975478087417, 0.57,202.984634399414
0.0293310683333333, 227.610353964157, -0.001254736037492, 0.58375,206.297012329102
0.0299980383333333, 227.620587658894, -0.001304445040642, 0.59625,206.297012329102
0.030666035, 227.631332141798, -0.00138783785187583, 0.60875,200.503524780273
0.0313310833333333, 227.641739377815, -0.00102063829593209, 0.6225,201.57145690918
0.0319983133333333, 227.652736197489, -0.00104708346761305, 0.635,198.040878295898
0.032664595, 227.663437469603, -0.00112214269748086, 0.65,211.206649780273
0.0333311866666667, 227.674595688222, -0.00116559101510897, 0.6625,211.206649780273
0.0339991783333333, 227.685315587399, -0.00109252668508006, 0.675,203.712203979492
0.0346645433333333, 227.696394662133, -0.00133828034111181, 0.68875,199.024795532227
0.0353311033333333, 227.707357066656, -0.00134364107186423, 0.70125,198.662857055664
0.03599786, 227.718322828601, -0.00117813188523378, 0.715,195.333099365234
0.0366645083333333, 227.729278954716, -0.00117537202386419, 0.7275,195.333099365234
0.0373326416666667, 227.740176147936, -0.00110658097916156, 0.74125,195.111114501953
0.0379977933333333, 227.751396589204, -0.00118418108137231, 0.755,206.006256103516
0.038664415, 227.762454140134, -0.00130135669576434, 0.7675,207.079574584961
0.039331185, 227.773446723843, -0.00106438959835342, 0.78,209.026138305664
0.0399977633333333, 227.784215416664, -0.000910273839445487, 0.79375,209.026138305664
0.0406645716666667, 227.794681477518, -0.000887476484529617, 0.80625,209.263931274414
0.0413314383333333, 227.805819978689, -0.00094706399156357, 0.82,211.812088012695
0.0419978466666667, 227.816866649866, -0.00103238270607125, 0.83375,260.220947265625
0.0426645283333333, 227.828113057895, -0.0012559854747537, 0.84625,204.008163452148
0.04333112, 227.839710492368, -0.00157207209807219, 0.86,204.008163452148
0.0439978233333333, 227.851088855266, -0.0016040009943279, 0.87375,204.407287597656
0.0446644383333333, 227.861854216504, -0.00161604388940205, 0.88625,208.114608764648
0.0453315433333333, 227.872885911841, -0.00150542144587558, 0.9,209.091003417969
0.0459977216666667, 227.884003266301, -0.00156626288988069, 0.91375,214.536422729492
0.0466650983333333, 227.894794759051, -0.00124760089593672, 0.92625,214.536422729492
0.0473317533333333, 227.906215920208, -0.00124646395304777, 0.94,206.306411743164
0.0479979183333333, 227.917236110698, -0.00108126825070261, 0.95375,208.275009155273
0.04866444, 227.928341547899, -0.00109686296738005, 0.97,214.596389770508
0.0493316633333333, 227.941688166395, -0.000983212175930789, 0.98125,205.34049987793
0.0499977666666667, 227.9556310586, -0.00117039977370225, 0.9925,205.34049987793
0.05066484, 227.968530263378, -0.00129685542195003, 1.0075,203.678756713867
0.051331135, 227.981713997614, -0.00132345208603823, 1.02,195.003402709961
0.051998515, 227.994601048211, -0.00158372201295269, 1.03375,199.275527954102
0.0526644766666667, 228.004749458836, -0.00163895223876627, 1.0475,202.548233032227
0.053331275, 228.014712615454, -0.0017476292800229, 1.06,202.548233032227
0.0539985, 228.025665286049, -0.00157354202428494, 1.07375,199.794189453125
0.0546646516666667, 228.036337837615, -0.00155218009727804, 1.0875,197.141830444336
0.0553311583333333, 228.046938024894, -0.00105688697531934, 1.10125,203.644943237305
0.0559979483333333, 228.057632710614, -0.000913182193458518, 1.11375,201.925247192383
0.0566644433333333, 228.068875150276, -0.00113847537726226, 1.1275,201.925247192383
0.0573317966666667, 228.079301595804, -0.0011522176869616, 1.14125,197.927062988281
0.0579981916666667, 228.089971820985, -0.00110567202488817, 1.15375,201.236541748047
0.058664455, 228.100602596791, -0.00124010427251525, 1.16875,241.439605712891
0.0593310733333333, 228.111460626293, -0.00109180972121531, 1.18125,198.324737548828
0.0599978466666667, 228.122017546713, -0.000868875918922972, 1.195,198.324737548828
0.0606649416666667, 228.132892188861, -0.000489327483241801, 1.20875,201.6982421875
0.061331685, 228.143378324747, -0.000390923426008422, 1.22125,198.019180297852
0.0619979233333333, 228.154010897888, -0.00015819511572625, 1.235,193.01594543457
0.0626645433333333, 228.164491199943, -0.000152910881139646, 1.24875,202.681945800781
0.0633311433333333, 228.175263059967, -6.2492422746966E-05, 1.2625,202.681945800781
0.0639981133333333, 228.185528733345, -0.000340990934058568, 1.275,202.384140014648
0.064664615, 228.196206702636, -0.00051857151436934, 1.28875,188.200164794922
0.0653311133333333, 228.20641012922, -0.000600125418029725, 1.3025,206.661315917969
0.065997965, 228.217019174458, -0.000638817474567443, 1.315,197.531616210938
0.066664455, 228.226303989293, -0.00067142133693214, 1.3275,197.531616210938
0.0673312633333333, 228.23711560414, -0.000846726531519343, 1.34125,201.855377197266
0.0679977983333333, 228.246841228893, -0.000900549828030125, 1.35375,201.276962280273
0.0686645533333333, 228.257529314381, -0.0012989448170476, 1.36875,203.65478515625
0.0693311066666667, 228.266690209329, -0.00136223263815825, 1.3825,202.687225341797
0.069997925, 228.277094519031, -0.00143905277955179, 1.39375,202.687225341797
0.0706645116666667, 228.286158359732, -0.00130182917214266, 1.4075,204.546890258789
0.071331325, 228.295963983638, -0.00146437900741538, 1.42125,208.080322265625
0.0719988216666667, 228.30463590394, -0.00136325408680439, 1.435,207.575180053711
0.0726645783333333, 228.314316239258, -0.00169657634439504, 1.4475,202.957916259766
0.0733311066666667, 228.323056083902, -0.00156572591688056, 1.46125,202.957916259766
0.0739977733333333, 228.331927673853, -0.00185454540977507, 1.47375,200.426406860352
0.074665155, 228.340701107865, -0.00159115413964608, 1.4875,246.772338867188
0.075331745, 228.349275760871, -0.00171277253086445, 1.50125,196.525741577148
0.075997935, 228.358286131497, -0.00164152460958545, 1.51375,197.635620117188
0.0766649416666667, 228.367153673267, -0.00188223101917132, 1.52625,197.635620117188
0.0773311216666667, 228.376420549019, -0.00196249948734181, 1.54,199.476684570313
0.0779985583333333, 228.385567657635, -0.00220999605584895, 1.55375,206.768280029297
0.0786650633333333, 228.395319096612, -0.00249151691536447, 1.56625,203.138107299805
0.079331105, 228.404170153947, -0.00232757515001172, 1.57875,197.677719116211
0.0799984183333333, 228.413622171818, -0.00223026153796829, 1.5925,197.677719116211
0.080664435, 228.422461591909, -0.00196075507498452, 1.60625,197.830093383789
0.0813316366666667, 228.431387643865, -0.00171505241633997, 1.62,201.553741455078
0.0819978133333333, 228.440373394849, -0.00148674588392125, 1.6325,206.923736572266
0.082664465, 228.449715904135, -0.00179029013721177, 1.64625,194.776290893555
0.0833311066666667, 228.458605968798, -0.00208612177792425, 1.65875,194.776290893555
0.0839978116666667, 228.467559000642, -0.00214666923668256, 1.6725,205.490997314453
0.08466444, 228.476396642007, -0.00231493228502749, 1.685,203.689910888672
0.0853327333333333, 228.484855587899, -0.0020767067508722, 1.69875,202.2744140625
0.0859978883333333, 228.493378688931, -0.00194585932318527, 1.71125,203.250900268555
0.0866644583333333, 228.502330770827, -0.00173134009824049, 1.725,203.250900268555
0.087331685, 228.511058525139, -0.00181477340747572, 1.73875,192.055862426758
0.087998745, 228.519987324538, -0.00187224002099964, 1.7525,189.711837768555
0.08866463, 228.528887955471, -0.00186672179816362, 1.76625,187.457077026367
0.0893311166666667, 228.537252602142, -0.00181380145631363, 1.77875,190.24284362793
0.0899978766666667, 228.544870478387, -0.00150508246293919, 1.79125,190.24284362793
0.0906644483333333, 228.553042278766, -0.0015873518306462, 1.80625,198.640838623047
0.0913310616666667, 228.560400646552, -0.00144753485347624, 1.81875,232.007339477539
0.0919988033333333, 228.568050239954, -0.00173202856364786, 1.8325,192.55598449707
0.0926645633333333, 228.575577820881, -0.00170817076200885, 1.845,186.324356079102
0.09333135, 228.583566469125, -0.00206673825154531, 1.85875,186.324356079102
0.0939979816666667, 228.591299603347, -0.00202821118671321, 1.8725,194.637573242188
0.0946648983333333, 228.599113532748, -0.00186095158800659, 1.885,193.261672973633
0.0953311466666667, 228.606945934701, -0.00149401451889719, 1.89875,189.668228149414
0.095998, 228.614668587853, -0.00141671590153399, 1.9125,195.90087890625
0.096665515, 228.622141965272, -0.00123134321260929, 1.925,195.90087890625
0.0973311366666667, 228.62929138991, -0.00100616252319955, 1.93875,198.492599487305
0.0979977666666667, 228.636571920668, -0.00104456809413374, 1.9525,187.751159667969
0.098664655, 228.643723609069, -0.00142000223645414, 1.96625,190.698165893555
0.09933265, 228.650858079438, -0.00122255965377351, 1.98,194.519027709961
0.09999783, 228.657758924847, -0.00126716891310228, 1.9925,194.519027709961
0.100664558333333, 228.664302438793, -0.00121789038829852, 2.00625,193.974624633789
0.101331143333333, 228.670520657892, -0.00138764136186402, 2.02,191.221923828125
0.101997873333333, 228.677182071822, -0.00146577693721427, 2.03375,202.191665649414
0.102665095, 228.683727661308, -0.00153426949691815, 2.04625,191.571914672852
0.10333123, 228.690019398878, -0.00145092618318963, 2.05875,191.571914672852
0.103997786666667, 228.696603342279, -0.00131765337736006, 2.0725,195.727432250977
0.104665703333333, 228.703375545085, -0.00102728746212949, 2.08625,189.032073974609
0.105331198333333, 228.709322986739, -0.000828245959737434, 2.09875,187.661529541016
0.105998318333333, 228.715820061247, -0.000878158952670047, 2.1125,194.518585205078
0.106664623333333, 228.722346740307, -0.000923170191781394, 2.12625,194.518585205078
0.107331708333333, 228.728866352849, -0.000853801676077231, 2.14,192.768936157227
0.107997785, 228.735682064436, -0.000850968318390633, 2.15375,237.627548217773
0.108664441666667, 228.742559036912, -0.00035442725913714, 2.16625,189.132995605469
0.109332023333333, 228.749335978862, -0.000356356162238541, 2.18,182.415512084961
0.10999814, 228.756588253203, -0.000651629830966735, 2.1925,182.415512084961
0.11066453, 228.763548170393, -0.000666621577949043, 2.205,186.761199951172
0.111331113333333, 228.770587285448, -0.000626951570509115, 2.21875,180.636596679688
0.11199841, 228.777762221687, -0.000766167077865842, 2.2325,180.904342651367
0.112665641666667, 228.784937442606, -0.000559945436186419, 2.245,177.348770141602
0.11333111, 228.792516233013, -0.000388421551657452, 2.25875,177.348770141602
0.113999885, 228.800783908627, -0.000413837775049, 2.27125,180.644683837891
0.114664473333333, 228.809198525529, -0.000559595953757951, 2.285,180.038940429688
0.115331173333333, 228.817602688114, -0.000627611537416581, 2.29875,173.728881835938
0.115997913333333, 228.826404914239, -0.000711163340658409, 2.31125,188.211471557617
0.116664558333333, 228.835003831273, -0.000634902671131046, 2.325,188.211471557617
0.117331113333333, 228.842938134971, -0.000530807899712765, 2.3375,181.548629760742
0.11799783, 228.851354254785, -0.00059421571479693, 2.35125,177.122543334961
0.118664443333333, 228.859846054388, -0.000800099873485621, 2.36375,180.131301879883
0.119331111666667, 228.867693445009, -0.000638763477267672, 2.37875,179.702896118164
0.119997976666667, 228.876417827541, -0.00050286280339475, 2.39,179.702896118164
0.120664625, 228.884970400353, -0.000461160398048342, 2.40375,181.709686279297
0.1213311, 228.892840429703, -0.000167532146709333, 2.41625,181.641571044922
0.121998091666667, 228.901476932055, -0.000166518197600189, 2.43,181.511001586914
0.122664493333333, 228.909813437895, -0.000175679737406837, 2.44375,182.440521240234
0.123331183333333, 228.918227990899, -0.000158432103739456, 2.45625,182.440521240234
0.123998348333333, 228.926645886885, -0.000335684200563407, 2.47,180.217956542969
0.124664715, 228.935714043723, -0.000552879291089933, 2.4825,221.512115478516
0.125331211666667, 228.944016634419, -0.00044512470349008, 2.49625,189.454010009766
0.125997921666667, 228.952872000781, -0.000744278677287125, 2.50875,188.387359619141
0.126664713333333, 228.960363917678, -0.000933966649463896, 2.5225,188.387359619141
0.12733149, 228.968617631263, -0.000878211449981652, 2.535,188.521865844727
0.127998038333333, 228.976342502539, -0.000926795509637929, 2.54875,188.617141723633
0.12866481, 228.984992037936, -0.00103341315437008, 2.5625,189.18034362793
0.129331125, 228.993165296429, -0.000780518357021688, 2.575,190.743957519531
0.12999841, 229.001916860816, -0.000694509677160988, 2.58875,190.743957519531
0.130664473333333, 229.010348446378, -0.00087248473765358, 2.6025,185.33349609375
0.131331115, 229.019469741723, -0.00115816788808952, 2.61625,189.064910888672
0.131998348333333, 229.027814993043, -0.00105044629880529, 2.63,187.975372314453
0.132664588333333, 229.037262913222, -0.00135370706636235, 2.6425,191.422821044922
0.13333115, 229.046223699177, -0.0012947975253287, 2.655,191.422821044922
0.133998363333333, 229.056615534435, -0.00151171812962567, 2.66875,191.701965332031
0.134664561666667, 229.066040377832, -0.00146056469897777, 2.6825,188.398834228516
0.135331228333333, 229.075607492058, -0.00127222665901898, 2.69625,185.720062255859
0.135997771666667, 229.084505123167, -0.000997897938249815, 2.71,185.869003295898
0.136664608333333, 229.093501327135, -0.000974014637853446, 2.7225,185.869003295898
0.137331211666667, 229.101945689112, -0.000828526445579589, 2.73625,184.812438964844
0.137997985, 229.110870385699, -0.000645019662910094, 2.75,185.328369140625
0.138664478333333, 229.12011392972, -0.00105816641100536, 2.76375,184.067352294922
0.139331148333333, 229.129701893224, -0.00118653896298057, 2.77625,188.759353637695
0.139997876666667, 229.139132053994, -0.00142520397507104, 2.78875,188.759353637695
0.140665205, 229.148365898963, -0.00135304259966042, 2.8025,180.595153808594
0.141331173333333, 229.157325236164, -0.00139249361807371, 2.81625,226.959213256836
0.141997791666667, 229.166258719429, -0.00155580841494087, 2.83,193.403335571289
0.142664473333333, 229.174667973559, -0.00149975323053547, 2.8425,179.532119750977
0.143331405, 229.183902316999, -0.00156110914869591, 2.85625,179.532119750977
0.143997961666667, 229.192738642471, -0.00142492348920763, 2.87,178.738662719727
0.144664513333333, 229.201816365294, -0.00131322859956279, 2.88375,184.348937988281
0.145331133333333, 229.210494708475, -0.00102763994438551, 2.8975,186.366485595703
0.14599777, 229.219843032242, -0.000959583862746735, 2.91,185.520706176758
0.146664498333333, 229.22904868405, -0.00127173468372969, 2.92375,185.520706176758
0.147331815, 229.23764451649, -0.00117967680768795, 2.93625,181.059509277344
0.147997786666667, 229.246578176543, -0.00178023914204271, 2.95,180.380447387695
0.148664478333333, 229.255537759345, -0.00191348344932987, 2.96375,182.317611694336
0.149331115, 229.264405073655, -0.00204728422867691, 2.9775,181.386474609375
0.149997811666667, 229.273055070123, -0.0017446549294424, 2.99,181.386474609375
0.150665063333333, 229.281797828315, -0.00194375942863814, 3.00375,178.418151855469
0.15133172, 229.290417243764, -0.00159920423525737, 3.01625,189.960403442383
0.151997915, 229.298870088331, -0.00141148866401095, 3.03,191.008285522461
0.152664708333333, 229.307666492514, -0.00138743137236255, 3.04375,190.734527587891
0.153331291666667, 229.316232712419, -0.00173322400358854, 3.05625,190.734527587891
0.153998171666667, 229.325768505321, -0.00160622838242806, 3.07,188.414749145508
0.154664825, 229.335047916044, -0.00172740729571126, 3.08375,190.03450012207
0.155331756666667, 229.344862980001, -0.00175859972897869, 3.09625,197.543869018555
0.155997951666667, 229.354300266024, -0.0017932734873387, 3.10875,188.507095336914
0.156664473333333, 229.36450360804, -0.00131636044220564, 3.1225,188.507095336914
0.157331398333333, 229.373928525493, -0.00159086765400004, 3.13625,223.129898071289
0.157998518333333, 229.383974720444, -0.00123268714504464, 3.14875,193.688766479492
0.158664475, 229.393522091322, -0.00133248013250923, 3.1625,188.792922973633
0.159331516666667, 229.402962365456, -0.00120035176916938, 3.175,195.930267333984
