Time (min), Depth (µm), Load (N), Position (µm), Acoustic (aJ)
8.21666666666667E-06, 227.405399919694, 2.3779306183266E-06, 0,134.792083740234
0.000666285, 227.406166459741, -0.000192414285174149, 0.00375000000000028,133.910766601563
0.00133314, 227.406736783482, -0.000490243825531831, 0.0150000000000003,133.910766601563
0.00200064, 227.407479691844, -0.000751673194222547, 0.0300000000000005,132.442840576172
0.00266627333333333, 227.408504526191, -0.00091035472377914, 0.0449999999999999,140.834442138672
0.00333331666666667, 227.409942082037, -0.00118142110841861, 0.0587499999999998,152.592361450195
0.003999545, 227.411750521407, -0.00102826680120195, 0.07375,150.057632446289
0.00466621666666667, 227.413784592777, -0.00127218154961774, 0.0887500000000003,150.057632446289
0.00533324, 227.41693860755, -0.00139970664415633, 0.1025,157.964202880859
0.00599972333333333, 227.420046514116, -0.00137935566636726, 0.115000000000001,161.058609008789
0.00666623833333333, 227.423416752029, -0.00110168511347504, 0.12875,167.455978393555
0.00733301, 227.42801162371, -0.00139619232070564, 0.1425,198.918502807617
0.00799992, 227.433907170325, -0.0013727274993028, 0.155,198.918502807617
0.00866639666666667, 227.440356928799, -0.0013153583809076, 0.168750000000001,168.623336791992
0.00933321166666667, 227.447815436795, -0.00124202706427115, 0.18125,170.729934692383
0.01000011, 227.456324339363, -0.00109641737805687, 0.195,172.213333129883
0.0106662066666667, 227.465698714257, -0.000987240861846423, 0.20875,168.199584960938
0.0113328833333333, 227.475080097224, -0.00119275153929494, 0.2225,168.199584960938
0.011999545, 227.485831030542, -0.00132912018960293, 0.23625,169.947494506836
0.0126662083333333, 227.496942539758, -0.00141916216688538, 0.24875,166.506698608398
0.013333685, 227.50836467203, -0.00175684620536333, 0.26125,164.123046875
0.0139995183333333, 227.519258256926, -0.00177439982367274, 0.275,164.091690063477
0.0146662, 227.530326001218, -0.00138250250823289, 0.28875,164.091690063477
0.0153328333333333, 227.54073468799, -0.00121715531345924, 0.3025,169.704635620117
0.0159995066666667, 227.551074007073, -0.00114848726260018, 0.315,164.949325561523
0.0166662466666667, 227.561872878358, -0.00104358403175851, 0.32875,167.753356933594
0.0173328433333333, 227.573216768759, -0.00117039216232608, 0.34375,161.778823852539
0.017999805, 227.584131604486, -0.00122373848277035, 0.35625,161.778823852539
0.0186661983333333, 227.594946042342, -0.00126774627230714, 0.370000000000001,165.542297363281
0.019332895, 227.606099693189, -0.00131674131131367, 0.38375,166.779693603516
0.0199997333333333, 227.617278901196, -0.00127550088281099, 0.39625,164.880798339844
0.02066621, 227.628698589689, -0.00152417189231717, 0.41,168.769866943359
0.0213328466666667, 227.639996168238, -0.00167027805357269, 0.4225,168.769866943359
0.0219996866666667, 227.651211632263, -0.00175417033973908, 0.43625,163.749740600586
0.0226662083333333, 227.662838676994, -0.00157475235173676, 0.44875,163.611877441406
0.0233329166666667, 227.674084569911, -0.00147753323495199, 0.4625,168.871109008789
0.0239995283333333, 227.685087673947, -0.00132078510824875, 0.47625,194.940216064453
0.0246662216666667, 227.696363410987, -0.00139371744493017, 0.49,194.940216064453
0.025332985, 227.707544451795, -0.00148942463766141, 0.50375,161.672698974609
0.0259998833333333, 227.718801192061, -0.00188659418825013, 0.51625,163.429824829102
0.0266665766666667, 227.729180844519, -0.00206638715743828, 0.52875,170.365997314453
0.0273329066666667, 227.739552777429, -0.00156503583981589, 0.5425,162.083480834961
0.02799954, 227.750242369449, -0.00117031716610591, 0.555,162.083480834961
0.0286661883333333, 227.761168457902, -0.000829253797373555, 0.57,163.701446533203
0.0293331233333333, 227.771355328465, -0.000337170514211691, 0.5825,164.865356445313
0.0299997783333333, 227.782731987998, -0.000206309587205135, 0.595,159.611068725586
0.0306662083333333, 227.793939681146, -0.000571628237607124, 0.60875,162.221862792969
0.0313329183333333, 227.805427511694, -0.000845536979479609, 0.6225,162.221862792969
0.0319997166666667, 227.816477974869, -0.000977546848749094, 0.635,156.45100402832
0.0326661983333333, 227.828170519207, -0.00120620286361754, 0.64875,159.346450805664
0.0333328566666667, 227.838992429103, -0.000909165283514815, 0.66125,157.999465942383
0.033999535, 227.850122050671, -0.000852792115072159, 0.67375,162.212921142578
0.0346662316666667, 227.860214250282, -0.000694524564672119, 0.68875,162.212921142578
0.0353330033333333, 227.871380613084, -0.000945301468401791, 0.70125,157.981430053711
0.0359998666666667, 227.88165273545, -0.000763594595313763, 0.715,155.514495849609
0.0366662483333333, 227.893245890445, -0.000985365956002285, 0.7275,163.476043701172
0.0373329116666667, 227.903644858628, -0.000818020861583434, 0.74125,168.386047363281
0.0379996616666667, 227.915389921899, -0.00129897920357597, 0.75375,168.386047363281
0.0386661933333333, 227.926357045783, -0.00114952821032732, 0.7675,163.351959228516
0.03933313, 227.938126874452, -0.0012993751836822, 0.78,165.595321655273
0.0399996983333333, 227.948666963723, -0.0013015320753354, 0.79375,162.897766113281
0.0406661266666667, 227.960649983115, -0.00165380288114302, 0.80625,203.051513671875
0.041333315, 227.971395238276, -0.00133569435936762, 0.82,203.051513671875
0.04199969, 227.982866907011, -0.00112174510582361, 0.83375,167.125015258789
0.0426663733333333, 227.993474397218, -0.00106234958921954, 0.84625,164.385360717773
0.0433330866666667, 228.004832444937, -0.00101961823556247, 0.86,162.764556884766
0.0439995533333333, 228.015630774925, -0.00103268407927093, 0.87375,173.986633300781
0.0446662866666667, 228.027054707605, -0.000890954698189256, 0.88625,173.986633300781
0.045332885, 228.03788684549, -0.00103097566507806, 0.9,164.143692016602
0.0459996483333333, 228.049171033377, -0.00100392902360512, 0.9125,163.686096191406
0.0466663166666667, 228.059987420812, -0.000901461670398167, 0.92625,167.346923828125
0.047333075, 228.071375701737, -0.000775165014158379, 0.93875,158.489700317383
0.0479998183333333, 228.082763598801, -0.000865289487304259, 0.9525,158.489700317383
0.0486662683333333, 228.094184339851, -0.00105904975493726, 0.97,159.760513305664
0.0493328683333333, 228.107748802752, -0.00137092908953946, 0.98,166.514617919922
0.04999978, 228.120956102618, -0.00192139694015133, 0.9925,159.145950317383
0.050666295, 228.133649414528, -0.0018072361743412, 1.00625,167.293670654297
0.0513328666666667, 228.146091990304, -0.00171051503254332, 1.02,167.293670654297
0.0519995416666667, 228.158327251467, -0.00144814371119984, 1.03375,162.713104248047
0.052666235, 228.16824317615, -0.00108905274796163, 1.04625,166.210433959961
0.0533329866666667, 228.178931164146, -0.000649063348176032, 1.06,167.204193115234
0.0539995466666667, 228.189418653411, -0.000610455287426151, 1.07375,169.593078613281
0.0546662516666667, 228.200032594507, -0.00070754391078784, 1.0875,169.593078613281
0.0553330033333333, 228.210656161299, -0.000673693611031494, 1.10125,167.249145507813
0.0559995333333333, 228.221923559997, -0.00055320766292887, 1.11375,167.33821105957
0.0566664616666667, 228.232712932459, -0.000804887521319336, 1.1275,164.654602050781
0.057332975, 228.244119590691, -0.00130686730737297, 1.14,198.90934753418
0.0579997066666667, 228.254976039728, -0.00121933170419345, 1.15375,198.90934753418
0.0586667016666667, 228.265891040037, -0.00150083456459487, 1.1675,168.725387573242
0.0593328583333333, 228.276461203151, -0.00145023610608245, 1.18,172.34635925293
0.060000135, 228.287007093652, -0.00138213202690528, 1.19375,163.913436889648
0.06066633, 228.297230895122, -0.00106077616828673, 1.2075,166.007339477539
0.0613328833333333, 228.307690555138, -0.000947450860475488, 1.22125,166.007339477539
0.06199958, 228.318146475107, -0.00117816027214956, 1.23375,167.013488769531
0.06266626, 228.328690178664, -0.00161388838600411, 1.2475,168.899963378906
0.063333315, 228.339239506797, -0.00134483040048067, 1.26,162.632186889648
0.0639995183333333, 228.349307102579, -0.00138959415204423, 1.275,159.603057861328
0.064666275, 228.359364614047, -0.00152951312405235, 1.2875,159.603057861328
0.0653328116666667, 228.369368992285, -0.00097597642762258, 1.30125,170.036315917969
0.06600039, 228.379138940638, -0.000840321741415555, 1.31375,164.627059936523
0.066666285, 228.388860365077, -0.00080007426301661, 1.3275,168.207778930664
0.067333005, 228.398795105755, -0.000992243110581452, 1.34,167.477981567383
0.0680000983333333, 228.408749827213, -0.00114258355915001, 1.355,167.477981567383
0.0686662233333333, 228.418527939569, -0.00127585486509769, 1.36875,166.507705688477
0.06933287, 228.428042383545, -0.00104397251230647, 1.38125,159.99397277832
0.069999865, 228.437642011887, -0.00167219795719144, 1.395,165.56413269043
0.0706661766666667, 228.446901904345, -0.00146966313026908, 1.4075,165.894897460938
0.0713330283333333, 228.456379552034, -0.00153755572010539, 1.42,165.894897460938
0.0719997433333333, 228.465871968357, -0.00192615470118737, 1.435,164.412567138672
0.0726661833333333, 228.474925354956, -0.00222903898763419, 1.44625,175.531936645508
0.0733333766666667, 228.483425608876, -0.00178188444776275, 1.46,203.331451416016
0.07399954, 228.491848596377, -0.00182925956811621, 1.47375,168.151733398438
0.0746662433333333, 228.499651064139, -0.00181452880804383, 1.48625,168.151733398438
0.0753328883333333, 228.507141060162, -0.00166642624706751, 1.5,164.481384277344
0.0759995616666667, 228.514424427857, -0.00171308590337434, 1.5125,165.91667175293
0.0766665283333333, 228.522223861941, -0.00159408488066473, 1.52625,166.149703979492
0.0773330483333333, 228.530422376254, -0.00175648622346404, 1.54,168.332656860352
0.0779998033333333, 228.537989293186, -0.00164579478337251, 1.5525,168.332656860352
0.0786662083333333, 228.545766074081, -0.00175085850612533, 1.56625,160.073913574219
0.079333645, 228.553616356577, -0.00161854115228942, 1.57875,167.339752197266
0.0799999183333333, 228.561514949378, -0.00193295685950387, 1.5925,165.050079345703
0.0806661466666667, 228.568781274702, -0.00154857866643655, 1.605,158.160217285156
0.0813328916666667, 228.576513219683, -0.00122702781760306, 1.61875,158.160217285156
0.0819997716666667, 228.58407333737, -0.000772795133261166, 1.6325,166.647338867188
0.0826661783333333, 228.591886184743, -0.000673375627015495, 1.645,161.953521728516
0.08333288, 228.599351017678, -0.00070314613167234, 1.65875,160.847961425781
0.08399961, 228.606655641115, -0.000791083714655696, 1.67125,162.020843505859
0.08466622, 228.61421172167, -0.000909768253231196, 1.685,162.020843505859
0.085332885, 228.621994478273, -0.00119193858009834, 1.69875,165.003845214844
0.0859996883333333, 228.63040802206, -0.00124376847671587, 1.71125,166.235763549805
0.086666195, 228.638197986368, -0.00122742379768803, 1.72375,156.396194458008
0.0873329783333333, 228.646111178803, -0.00124990916824301, 1.73875,162.539825439453
0.087999555, 228.653500237554, -0.00130263152007177, 1.75125,162.539825439453
0.08866619, 228.661027163384, -0.00114083914672896, 1.765,164.862823486328
0.08933299, 228.667526583329, -0.000968802287990314, 1.7775,159.832763671875
0.0899999966666667, 228.674156960182, -0.000664664064551079, 1.79125,188.359436035156
0.09066624, 228.680805797465, -0.000581964218476572, 1.805,159.308883666992
0.09133311, 228.687968150095, -0.000453897651100874, 1.81875,159.308883666992
0.0919997333333333, 228.694207321402, -0.000700780750420812, 1.83125,157.250915527344
0.0926662683333333, 228.701117783722, -0.000773390603291768, 1.84375,170.353057861328
0.0933328583333333, 228.707587228358, -0.000721986685226014, 1.85875,160.212509155273
0.09400002, 228.714551337836, -0.000790146261627356, 1.87125,158.468048095703
0.0946661983333333, 228.720439161061, -0.000875316483619111, 1.885,158.468048095703
0.0953328533333333, 228.726801759413, -0.000702339172088338, 1.89875,158.859313964844
0.09599988, 228.732477393834, -0.000419034902202297, 1.91125,160.343780517578
0.0966662216666667, 228.738706781603, -0.000476717504861539, 1.925,155.458480834961
0.0973332483333333, 228.744530465296, -0.000359481893493381, 1.93875,158.367004394531
0.0980007633333333, 228.750524434939, -0.000421572774738945, 1.9525,158.367004394531
0.09866629, 228.756359567745, -0.000358473944124359, 1.965,154.116546630859
0.099332855, 228.7619842966, -0.00058814990771455, 1.97875,163.277252197266
0.0999995133333333, 228.768113811407, -0.000594323597621064, 1.9925,157.593978881836
0.100666215, 228.774431528276, -0.00123344149539285, 2.005,153.415634155273
0.101332951666667, 228.781531667825, -0.00126782576834302, 2.02,153.415634155273
0.10199951, 228.788323434127, -0.00163769219034334, 2.0325,160.329299926758
0.10266626, 228.796285123394, -0.00171502830585913, 2.045,157.8271484375
0.103332871666667, 228.803855039528, -0.00177776415466186, 2.05875,156.219345092773
0.103999585, 228.812051127595, -0.00150768022069781, 2.0725,151.582946777344
0.104666358333333, 228.819404480387, -0.00110189510282773, 2.085,151.582946777344
0.105332841666667, 228.82813893958, -0.000844608526061451, 2.09875,153.996383666992
0.10599971, 228.835689006898, -0.000824301046101325, 2.11125,153.423721313477
0.106666246666667, 228.843998584532, -0.00111996919503259, 2.125,177.280349731445
0.10733287, 228.851480206524, -0.00107953722591079, 2.13875,154.614852905273
0.108000061666667, 228.859801092893, -0.00152227448771325, 2.1525,154.614852905273
0.108666231666667, 228.867665934351, -0.00173617724357952, 2.165,148.282104492188
0.109333155, 228.875479980793, -0.00183714617201006, 2.17875,156.761932373047
0.109999725, 228.882875016083, -0.00124858773465245, 2.1925,153.576324462891
0.110666185, 228.89069513955, -0.000986592894355437, 2.205,149.774719238281
0.11133329, 228.89861930756, -0.000619561329966116, 2.21875,149.774719238281
0.111999628333333, 228.905908622452, -0.000231907301385714, 2.2325,150.497512817383
0.112666325, 228.91424115266, -0.000333984674184057, 2.245,144.08561706543
0.113332933333333, 228.923292487904, -0.000484563610796497, 2.25875,142.896774291992
0.113999511666667, 228.931517032806, -0.000595498038705118, 2.27125,150.636138916016
0.114666551666667, 228.939426801437, -0.000627915910380049, 2.285,150.636138916016
0.115332876666667, 228.94780460565, -0.000543203165416304, 2.2975,145.700531005859
0.115999638333333, 228.955848721908, -0.000337492998043408, 2.31,141.266342163086
0.116666235, 228.963447656731, -0.000323330709383627, 2.32375,145.552520751953
0.11733287, 228.972044337191, -0.000322316760316991, 2.3375,146.948989868164
0.117999886666667, 228.980008920601, -0.000677879900763626, 2.35,146.948989868164
0.118666201666667, 228.988089483494, -0.000775976473473083, 2.36375,141.77522277832
0.119332883333333, 228.996255550865, -0.00077292112691104, 2.37625,143.157379150391
0.119999585, 229.004042336408, -0.00072345361165372, 2.39,142.192001342773
0.120666435, 229.011851991589, -0.00046030832914812, 2.40375,144.339721679688
0.121333123333333, 229.019859696844, -3.18233514696354E-05, 2.41625,144.339721679688
0.121999595, 229.028378328485, -0.000169736924231794, 2.43,148.127990722656
0.122666255, 229.036336279048, -0.00012184732970175, 2.4425,147.222045898438
0.123332855, 229.04448086762, -0.000380171854325116, 2.455,178.052505493164
0.12399952, 229.052080193002, -0.000721037232993736, 2.46875,150.045532226563
0.124666255, 229.059947853546, -0.000882636116046017, 2.4825,150.045532226563
0.125333131666667, 229.067475985521, -0.00111169561064271, 2.495,145.343276977539
0.125999771666667, 229.074338739798, -0.0012307641299292, 2.5075,149.076187133789
0.126666268333333, 229.080566719508, -0.00128956717630897, 2.52125,142.576629638672
0.12733286, 229.086694155984, -0.00101726785363999, 2.535,151.404388427734
0.12799956, 229.093308765521, -0.000877192889493923, 2.54875,151.404388427734
0.128666411666667, 229.099482954584, -0.000632699170130948, 2.5625,149.105804443359
0.129333121666667, 229.106789436478, -0.000542037723963686, 2.575,148.035934448242
0.129999623333333, 229.114861461578, -0.000536969478512406, 2.58875,147.224685668945
0.130666183333333, 229.123014832768, -0.00066952382042529, 2.60125,152.356307983398
0.131332873333333, 229.131038424523, -0.000877581369893112, 2.615,152.356307983398
0.131999558333333, 229.139048462069, -0.000814188554031725, 2.62875,149.570190429688
0.132666201666667, 229.14749916015, -0.000740536253509218, 2.64125,152.089584350586
0.133332873333333, 229.156238202178, -0.000615924012671847, 2.655,145.909484863281
0.134000026666667, 229.165552571656, -0.000831545682244307, 2.66875,146.788070678711
0.13466624, 229.174640081533, -0.000901737656573383, 2.6825,146.788070678711
0.13533387, 229.183958312477, -0.000920338222307552, 2.695,144.90885925293
0.135999728333333, 229.192543451319, -0.00086997075221699, 2.70875,151.026031494141
0.136666256666667, 229.201275287776, -0.000931125680486143, 2.7225,145.628829956055
0.13733288, 229.209460915255, -0.000942843091901024, 2.735,148.858917236328
0.137999675, 229.218108886033, -0.000678040392717283, 2.74875,148.858917236328
0.138666381666667, 229.226752349537, -0.000579514841585986, 2.7625,148.455383300781
0.139333068333333, 229.23595024464, -0.000778148364412828, 2.775,145.662979125977
0.139999543333333, 229.244457392758, -0.000985640442274352, 2.78875,177.16259765625
0.140666175, 229.253048040673, -0.00112882175043342, 2.8025,147.58935546875
0.141333051666667, 229.261153449133, -0.00128307550240771, 2.815,147.58935546875
0.1420004, 229.270167582064, -0.00165541080037962, 2.82875,141.688354492188
0.142666415, 229.278509770649, -0.00170071752468342, 2.8425,148.958587646484
0.14333287, 229.286818343036, -0.00139059010206053, 2.85625,139.530410766602
0.14399955, 229.295870882479, -0.000978031324458871, 2.87,150.687759399414
0.144666171666667, 229.3048247636, -0.000948860789648345, 2.88375,150.687759399414
0.1453332, 229.313397592866, -0.000963399559375853, 2.89625,144.119415283203
0.145999693333333, 229.321896741925, -0.000656484975377343, 2.90875,147.338531494141
0.14666634, 229.331119107301, -0.000251145335140047, 2.9225,144.449493408203
0.147332856666667, 229.340028695888, -0.000265708103679261, 2.93625,141.469390869141
0.14799954, 229.349273463591, -0.00035373568216932, 2.95,141.469390869141
0.148666203333333, 229.358578315686, -0.000168740974257998, 2.96375,142.84114074707
0.149333096666667, 229.368475602683, -0.000542286711435881, 2.97625,146.421585083008
0.149999665, 229.378309258063, -0.00104637539160432, 2.98875,144.487640380859
0.150666225, 229.388054687082, -0.00123695431902541, 3.00375,149.333236694336
0.151333053333333, 229.397151051741, -0.00117889523525593, 3.01625,149.333236694336
0.151999526666667, 229.406903117188, -0.00126817525083525, 3.03,154.337020874023
0.152666228333333, 229.416979691915, -0.000902264130187705, 3.0425,144.569213867188
0.153333053333333, 229.426566536775, -0.00068833437570344, 3.055,151.147430419922
0.153999553333333, 229.436107972517, -0.000505030082870893, 3.07,149.835754394531
0.154666268333333, 229.446757069577, -0.000731062729469201, 3.0825,149.835754394531
0.155333013333333, 229.456872438892, -0.000577165959545402, 3.09625,151.417938232422
0.155999503333333, 229.467092899155, -0.00102582642377276, 3.10875,180.257110595703
0.156666275, 229.476983441507, -0.00146146304217496, 3.1225,148.539535522461
0.157332848333333, 229.487006671055, -0.00177744767063402, 3.135,147.228729248047
0.157999586666667, 229.497315827045, -0.00161990308394513, 3.14875,147.228729248047
0.158666255, 229.50734315404, -0.00157089004580325, 3.1625,145.570617675781
0.159332935, 229.517431875748, -0.00130042213110696, 3.175,146.983444213867
0.159999778333333, 229.5274748362, -0.000904340025923133, 3.18875,144.767074584961
