Time (min), Depth (µm), Load (N), Position (µm), Acoustic (aJ)
8.42833333333333E-06, 226.704459420689, 0.000229286609051611, 0,199.723037719727
0.000667151666666667, 226.704169986532, 7.52353468717689E-05, 0.00500000000000001,197.619995117188
0.00133380166666667, 226.704324695357, -0.000136831501206093, 0.0174999999999999,194.337875366211
0.002000315, 226.70458521343, -0.000461671684829781, 0.0325,198.755233764648
0.00266690333333333, 226.705148510627, -0.000422529650928578, 0.0475,211.149826049805
0.00333364166666667, 226.706110020913, -0.000703111557597624, 0.0599999999999999,211.149826049805
0.004000365, 226.707900080325, -0.000783981495581345, 0.075,210.455337524414
0.00466855, 226.710270771169, -0.000641031175844137, 0.0887499999999999,212.535934448242
0.00533373333333333, 226.713497925311, -0.000432339158204958, 0.10375,207.869583129883
0.00600086, 226.717580652428, -0.000382315170823996, 0.11625,210.117233276367
0.00666694333333333, 226.722893888603, -0.000420660744782053, 0.12875,210.117233276367
0.00733371333333333, 226.727975016594, -0.00033554452009007, 0.1425,208.10595703125
0.008001, 226.73422933185, -0.000646499901153595, 0.15625,209.200958251953
0.00866694833333333, 226.740578380366, -0.000679171260137693, 0.16875,205.739547729492
0.00933369833333333, 226.74745469788, -0.000822096081202554, 0.1825,215.460403442383
0.01000022, 226.755262907921, -0.000759097745544241, 0.19625,215.460403442383
0.0106672166666667, 226.764109235715, -0.000887423799841702, 0.20875,209.832305908203
0.0113341683333333, 226.77380703173, -0.000518424334252733, 0.22375,204.473556518555
0.0120003666666667, 226.784171327062, -0.000446469948452271, 0.23625,209.675079345703
0.0126673583333333, 226.794713736849, -0.000229942324370211, 0.25,204.635345458984
0.013333935, 226.805581486775, -8.65435271514119E-05, 0.26375,204.635345458984
0.0140003833333333, 226.816867986346, 4.27334794090014E-05, 0.27625,206.063446044922
0.014668495, 226.827764044366, -5.37326751978109E-05, 0.29,203.038131713867
0.0153336533333333, 226.839434777097, -0.000101940253786362, 0.30375,251.158660888672
0.0160006883333333, 226.851081715504, -0.000390621753614517, 0.3175,207.958206176758
0.0166671183333333, 226.862478976657, -0.00042369209253239, 0.33,207.958206176758
0.0173336316666667, 226.873584027593, -0.000608119828913009, 0.34375,209.581985473633
0.01800038, 226.884459976829, -0.000899912172484874, 0.3575,211.524002075195
0.018666955, 226.895404873656, -0.000733107050914958, 0.37,209.174667358398
0.0193336933333333, 226.906325084761, -0.0004660784634917, 0.38375,216.730285644531
0.0200003683333333, 226.917200151108, -0.000650371206676027, 0.39625,216.730285644531
0.020666935, 226.928172618526, -0.000654953476493127, 0.41,206.049057006836
0.0213339883333333, 226.939152330826, -0.000433699589872508, 0.42375,215.747375488281
0.0220018866666667, 226.950205126584, -0.000502001659113413, 0.4375,216.767791748047
0.0226670433333333, 226.961054218691, -0.000536348433889745, 0.45125,219.178207397461
0.0233335733333333, 226.971846729582, -4.08888202797797E-05, 0.46375,219.178207397461
0.0240002766666667, 226.98310654135, 0.000166322771675827, 0.4775,214.201919555664
0.0246672366666667, 226.994158770846, 0.00010708774698291, 0.49,214.091079711914
0.0253335933333333, 227.004981276938, 0.00015876615121446, 0.50375,213.459655761719
0.0260002766666667, 227.01589843141, 0.000121418027133348, 0.51625,211.132781982422
0.0266669433333333, 227.027033379738, -0.000257870921562298, 0.53,211.132781982422
0.0273336283333333, 227.037919053772, -3.67160299097853E-05, 0.54375,210.414749145508
0.0280003816666667, 227.0488146281, 0.000122338980929489, 0.55625,212.481872558594
0.0286672, 227.059737790045, 0.000203321413285963, 0.57,207.348281860352
0.0293356266666667, 227.071086887753, 0.000176216274761297, 0.58375,205.224197387695
0.030000245, 227.081857185615, 0.00052964202257197, 0.59625,205.224197387695
0.0306670083333333, 227.09284155598, 0.000406297218067892, 0.60875,204.291351318359
0.0313338816666667, 227.103788367675, 0.000251506493072227, 0.6225,200.040481567383
0.0320004516666667, 227.115076459276, 0.000207698193481071, 0.63625,247.751815795898
0.0326671383333333, 227.12589303337, 0.000319828061266613, 0.65,197.703659057617
0.0333336333333333, 227.137179726033, -6.13957902705551E-05, 0.6625,197.703659057617
0.03400028, 227.148239195603, -0.00038780039530189, 0.67625,197.548110961914
0.0346670383333333, 227.159384947445, -0.000434497549761311, 0.69125,200.641479492188
0.0353337766666667, 227.170155941952, -0.00105636181412559, 0.7025,202.667449951172
0.036000315, 227.181194654335, -0.00139061102510372, 0.71625,198.959823608398
0.03666701, 227.191670301933, -0.00153961954054714, 0.72875,198.959823608398
0.037333585, 227.202095387282, -0.00148467280046703, 0.7425,201.301330566406
0.038000375, 227.212581639538, -0.00139599875451666, 0.755,201.174530029297
0.03866718, 227.22256577512, -0.000947417786261413, 0.76875,201.174530029297
0.0393337283333333, 227.232655013698, -0.000746826861748254, 0.78125,202.507385253906
0.0400003316666667, 227.243142739658, -0.000723491033886598, 0.79375,202.507385253906
0.0406672166666667, 227.253096980436, -0.000628101825150104, 0.8075,201.523910522461
0.04133362, 227.263171371787, -0.000836903337249466, 0.82125,198.647338867188
0.0420003266666667, 227.273414530589, -0.00103329897250533, 0.8375,200.503723144531
0.0428338433333333, 227.283591422413, -0.000922196553084796, 0.85125,205.620895385742
0.043500535, 227.293684636767, -0.000922616531981471, 0.86375,209.793472290039
0.0441671633333333, 227.303576641548, -0.000982420028129493, 0.8775,209.793472290039
0.04483382, 227.314193262916, -0.00106209452617253, 0.89,220.460266113281
0.0455005133333333, 227.324354253382, -0.000976343833330445, 0.90375,229.354690551758
0.0461674416666667, 227.334487093257, -0.00120760371738803, 0.9175,233.0751953125
0.046833895, 227.345029878843, -0.000981262086341399, 0.93125,236.701461791992
0.0475004733333333, 227.355681430752, -0.00121625678282198, 0.94375,236.701461791992
0.0481672383333333, 227.365651105272, -0.000758241288454931, 0.9575,233.063659667969
0.0488338233333333, 227.376161480855, -0.000711616130451883, 0.97125,288.837677001953
0.0495013316666667, 227.386740412319, -0.000379592807585747, 0.98375,246.636291503906
0.0501686016666667, 227.396843228383, -0.000286125002371146, 0.9975,233.735992431641
0.0508339683333333, 227.407534013679, -0.000113348680752918, 1.01,233.735992431641
0.05150077, 227.417492144546, 3.27259820688832E-05, 1.02375,239.481689453125
0.052167185, 227.428209741642, 4.43353989904922E-05, 1.0375,232.994079589844
0.0528338966666667, 227.438295277092, -8.5763566291685E-05, 1.05125,229.782440185547
0.0535006116666667, 227.448926770445, -0.000295039054587494, 1.06375,233.555969238281
0.054167425, 227.459071657616, -0.000360252778971993, 1.0775,233.555969238281
0.054834075, 227.470111802556, -0.000798458768323303, 1.09125,228.673126220703
0.055500715, 227.480249333923, -0.000777702810881587, 1.10375,232.756652832031
0.0561674033333333, 227.490771936583, -0.000723999508344319, 1.1175,226.63786315918
0.0568337116666667, 227.501065278004, -0.000725868414490844, 1.13125,239.055938720703
0.0575005216666667, 227.511414188563, -0.000494707525465125, 1.14375,239.055938720703
0.05816714, 227.521809523949, -0.000645436454560399, 1.1575,233.967086791992
0.05883404, 227.532154515781, -0.000493287096842698, 1.17125,235.67414855957
0.0595011483333333, 227.542213468299, -0.000582894095963183, 1.185,238.161895751953
0.06016714, 227.552090504108, -0.000492838619361108, 1.19875,235.924285888672
0.06083396, 227.562704544161, -0.000690356198283148, 1.21125,235.924285888672
0.0615004533333333, 227.572643710154, -0.000713564532506764, 1.225,233.525207519531
0.062167565, 227.582541300173, -0.000781260632224991, 1.23875,234.330047607422
0.0628339333333333, 227.592537888532, -0.000617347365414655, 1.25125,236.179672241211
0.0635009616666667, 227.602915565207, -0.000811100133383132, 1.265,236.81916809082
0.0641670316666667, 227.612648937187, -0.000396838941243709, 1.2775,236.81916809082
0.0648340433333333, 227.622566781035, -0.00014833892316201, 1.29125,237.153427124023
0.0655011866666667, 227.632938814573, -0.000288230896530877, 1.305,278.799957275391
0.0661672133333333, 227.643137626512, -0.000412378160718222, 1.31875,229.293380737305
0.0668338633333333, 227.653064839339, -0.000402288167557179, 1.3325,230.028961181641
0.0675003716666667, 227.663099209981, -0.00051735638780131, 1.34375,230.028961181641
0.0681686966666667, 227.672964355985, -0.000526808913005952, 1.3575,232.745132446289
0.0688336633333333, 227.682745605227, -0.000468947819300214, 1.3725,232.615234375
0.0695018866666667, 227.692601015959, -0.000293900611731626, 1.385,224.121704101563
0.070167255, 227.702666087315, -0.000618712296749144, 1.3975,228.395111083984
0.0708337583333333, 227.712630470027, -0.000939615178134149, 1.41125,228.395111083984
0.0715007733333333, 227.722872027456, -0.000799252228417643, 1.42375,217.718795776367
0.0721671316666667, 227.732875243478, -0.000755235439355688, 1.4375,212.254531860352
0.0728336733333333, 227.743127282106, -0.00104744326209352, 1.45,213.962875366211
0.0735004933333333, 227.752700663213, -0.000727974308693083, 1.46375,215.076385498047
0.0741675316666667, 227.762730595783, -0.000508770819050529, 1.4775,215.076385498047
0.07483387, 227.772702042132, -0.000612012133334578, 1.49,214.062652587891
0.0755007733333333, 227.782254977753, -0.000284761570812281, 1.50375,210.50016784668
0.076167145, 227.792038347953, -0.000274529084747912, 1.51625,207.977066040039
0.0768339166666667, 227.801784045068, -0.000248925370763448, 1.53,205.630599975586
0.07750059, 227.81085546992, -0.00022687797821924, 1.5425,205.630599975586
0.078167185, 227.819760246708, -0.000231226259829432, 1.55625,209.570098876953
0.0788339133333333, 227.82860706396, -0.000568896798945252, 1.56875,207.50700378418
0.0795006883333333, 227.837375497137, -0.000648697290659417, 1.5825,208.425415039063
0.080167265, 227.845832831543, -0.000741487129937476, 1.59625,207.274490356445
0.08083386, 227.854284641002, -0.00055226113454067, 1.60875,207.274490356445
0.081500455, 227.862787367499, -0.000641635645336142, 1.6225,257.599548339844
0.0821672983333333, 227.87119534702, -0.000362732154393152, 1.63625,219.170822143555
0.08283417, 227.879555676071, -0.000324698564795989, 1.64875,214.1552734375
0.0835005466666667, 227.887995942002, 0.00018364840147594, 1.6625,221.808334350586
0.084167095, 227.896241199668, 4.55968356899354E-05, 1.675,221.808334350586
0.0848337233333333, 227.90468489202, 6.88846659494328E-05, 1.6875,221.42268371582
0.0855007616666667, 227.912314366361, 7.59587809365624E-07, 1.7,223.594970703125
0.08616721, 227.91819861934, -8.46791206930804E-05, 1.715,236.893676757813
0.0868349933333333, 227.924288201466, -0.000287686423866224, 1.7275,253.494476318359
0.08750057, 227.931087108104, -0.000669960222676959, 1.74125,253.494476318359
0.0881673466666667, 227.937150853138, -0.000171446762471862, 1.755,245.196044921875
0.0888342, 227.944262827065, -0.000211236763864051, 1.76875,248.984924316406
0.0895005833333333, 227.95253274216, 8.70037558438857E-05, 1.78125,252.228469848633
0.0901673683333333, 227.960959652663, 0.000252454445443865, 1.795,258.182586669922
0.090833825, 227.968817655972, 0.000422388409850329, 1.80875,258.182586669922
0.0915004316666667, 227.976871279341, 0.000105997301835471, 1.82125,248.240036010742
0.0921672283333333, 227.984681637229, -3.90124144687303E-05, 1.835,250.318725585938
0.0928341216666667, 227.99229601683, -0.000295310540883229, 1.84875,259.142242431641
0.0935006, 227.999751727673, -0.000441217212129357, 1.8625,246.596374511719
0.094167155, 228.007759000186, -0.000712432089284747, 1.875,246.596374511719
0.0948338583333333, 228.015550646037, -0.000724329491691781, 1.8875,250.238662719727
0.0955006, 228.023602500244, -0.00064009972251341, 1.9025,251.10270690918
0.0961671433333333, 228.032033706601, -0.000718010309139405, 1.915,247.677536010742
0.096834245, 228.040672062292, -0.000926052859405703, 1.92875,243.072555541992
0.0975019516666667, 228.048299829586, -0.000413519603401642, 1.94125,243.072555541992
0.0981671, 228.056125557396, -0.000476369446480271, 1.955,294.831024169922
0.09883374, 228.063626236256, -0.000332531171326302, 1.96875,242.760131835938
0.0995007983333333, 228.071135572814, -0.000168347918059617, 1.9825,242.686828613281
0.100167211666667, 228.077845640073, 0.000165731801482197, 1.99625,239.103240966797
0.100834281666667, 228.085018606529, 9.38329128846563E-05, 2.00875,239.103240966797
0.101500636666667, 228.091997692806, 0.000254320351741583, 2.0225,240.717529296875
0.10216716, 228.09942609477, 8.10100569295248E-05, 2.035,247.433547973633
0.102834263333333, 228.106175400264, 0.000371567962504967, 2.04875,246.219818115234
0.103500375, 228.11340197601, 0.000214555849042995, 2.0625,254.36051940918
0.104167213333333, 228.120853658496, 0.000437795635934847, 2.075,254.36051940918
0.10483373, 228.128771947881, 0.000270183554950962, 2.08875,250.976333618164
0.105500418333333, 228.136701575389, 0.000331324983900486, 2.1025,249.727096557617
0.106167195, 228.145207589114, 5.12755505008663E-05, 2.11625,248.122207641602
0.106834081666667, 228.153438172358, -0.000209958827953664, 2.12875,252.570114135742
0.107500475, 228.161563986216, -0.00038270215123502, 2.1425,252.570114135742
0.108167311666667, 228.16968445027, -0.0002620377120859, 2.155,249.405349731445
0.108833883333333, 228.177672442023, -0.000179399362911927, 2.16875,252.423446655273
0.109500476666667, 228.185635846343, 3.22175077811953E-05, 2.1825,251.542907714844
0.110167505, 228.193620819659, 0.000500116005741635, 2.19625,256.339324951172
0.110833791666667, 228.2017825268, 0.000568653563177614, 2.20875,256.339324951172
0.111500551666667, 228.20935798028, 0.000693604786993884, 2.2225,250.350082397461
0.112167158333333, 228.216998985622, 0.000730820917663747, 2.235,248.901214599609
0.112833861666667, 228.225219495786, 0.000581296428140592, 2.24875,257.299957275391
0.113500608333333, 228.233423270263, 0.000459364552658178, 2.2625,245.317565917969
0.114167496666667, 228.241215783015, 0.000434767288139588, 2.275,245.317565917969
0.114834146666667, 228.249392341945, 0.000370841999030028, 2.28875,291.605682373047
0.115500613333333, 228.256834058577, 0.000368431620067656, 2.30125,251.171340942383
0.116167141666667, 228.264255695869, 0.000426825187042821, 2.315,239.35920715332
0.116833806666667, 228.271252167994, 0.000552736362668463, 2.32875,239.718063354492
0.117500523333333, 228.27886780176, 0.000359885049415123, 2.34125,239.718063354492
0.118168495, 228.286434713867, 0.00021980108568013, 2.35375,240.162384033203
0.118833846666667, 228.29429691715, 3.4321902122794E-05, 2.3675,249.058242797852
0.119501001666667, 228.301544946153, -3.36111856724021E-05, 2.38,249.071563720703
0.12016747, 228.309939605014, -0.00023656449152452, 2.39375,245.139831542969
0.120833843333333, 228.317016076937, 5.00051143612742E-05, 2.40625,245.139831542969
0.121500403333333, 228.325210810276, 0.000141752505987782, 2.42,244.317520141602
0.122167678333333, 228.33297500217, 0.000312121448534953, 2.43375,247.255065917969
0.122833861666667, 228.340946863512, 0.000418287615915453, 2.4475,249.530776977539
0.123500831666667, 228.348539514211, 0.000442619393750905, 2.45875,249.020004272461
0.124167198333333, 228.357041761105, 0.000406366214717967, 2.4725,249.020004272461
0.124834028333333, 228.364531314416, 0.000494531786253125, 2.48625,251.666748046875
0.125500556666667, 228.372496425133, 0.000452494897722282, 2.49875,253.005508422852
0.126167485, 228.380090995033, 0.000469957020621838, 2.5125,248.192932128906
0.126834071666667, 228.387604461812, 0.000647474604107673, 2.52625,250.236968994141
0.12750038, 228.395818013699, 0.000658997025371385, 2.5375,250.236968994141
0.128167176666667, 228.40572710429, 0.000900384400721352, 2.5525,250.046493530273
0.128833888333333, 228.415909684778, 0.00100261926560329, 2.56625,236.017181396484
0.129500505, 228.425717443043, 0.00105606458110069, 2.58,235.308456420898
0.130167245, 228.435674363087, 0.000992316283113223, 2.59375,240.229644775391
0.130833895, 228.444643031092, 0.000803583762930105, 2.60625,240.229644775391
0.131500666666667, 228.451430906312, 0.000714560234487504, 2.61875,287.088012695313
0.132167508333333, 228.458657255372, 0.000680933423509752, 2.6325,239.415603637695
0.13283428, 228.465911806796, 0.000625797692912324, 2.64625,235.328125
0.133500506666667, 228.473678565274, 0.000761099896799567, 2.66,234.962005615234
0.134167126666667, 228.481352135243, 0.000773462275835373, 2.6725,234.962005615234
0.134833831666667, 228.489444817603, 0.000680316954452489, 2.68625,231.169815063477
0.13550043, 228.497383080357, 0.000591734403848208, 2.7,236.634872436523
0.136167475, 228.505933518921, 0.000393739848880916, 2.71375,233.556228637695
0.136834148333333, 228.513748913798, 9.32404426603531E-05, 2.72625,233.597015380859
0.137500426666667, 228.521961020989, 8.72542433255003E-05, 2.73875,233.597015380859
0.138167293333333, 228.530006560613, -0.000308925357008297, 2.7525,236.33723449707
0.13883431, 228.537888697229, -0.000343119139474243, 2.76625,235.60319519043
0.139501845, 228.545755142522, -0.000475773976322145, 2.78125,231.635314941406
0.140167186666667, 228.553915188067, -0.000578656808631308, 2.79375,231.177917480469
0.140833886666667, 228.561916673702, -0.00044229115810836, 2.80625,231.177917480469
0.14150051, 228.569776217952, -7.30247059756112E-05, 2.82,233.723861694336
0.142167048333333, 228.577792201226, 9.05915757178637E-05, 2.83375,235.702392578125
0.142833921666667, 228.585944181084, 0.00026945159177841, 2.8475,237.157775878906
0.143500401666667, 228.593684658921, 0.000331210989688346, 2.86125,234.056915283203
0.144167215, 228.602070742858, 0.000120722062337761, 2.87375,234.056915283203
0.144833801666667, 228.610502395783, 0.00014269445868306, 2.8875,237.225189208984
0.145500448333333, 228.619358133968, -9.29197066610788E-05, 2.9,232.994247436523
0.146167155, 228.628216445008, -0.000137713456733954, 2.91375,227.960998535156
0.146833816666667, 228.637566086867, -0.000251259253453729, 2.9275,237.467651367188
0.147500398333333, 228.646693964763, -0.00014233622455245, 2.94125,237.467651367188
0.148167251666667, 228.656551602812, -0.000841572602618193, 2.95375,282.047119140625
0.148833863333333, 228.665937336362, -0.00103896118799904, 2.9675,231.705596923828
0.149500925, 228.675669841974, -0.000878146765537191, 2.98125,233.0517578125
0.150167023333333, 228.685303349615, -0.00107893118034088, 2.99375,235.575271606445
0.150834181666667, 228.695528279686, -0.0015475931399501, 3.0075,235.575271606445
0.151500476666667, 228.705025882873, -0.00104838071486681, 3.02125,236.666870117188
0.152167326666667, 228.71545543634, -0.000870203164537275, 3.03375,239.224853515625
0.152834681666667, 228.725138492557, -0.000920920117120067, 3.0475,240.969451904297
0.153500723333333, 228.735640772981, -0.000622850588857863, 3.06,251.454864501953
0.154167156666667, 228.745359132238, -0.000494532034139911, 3.07375,251.454864501953
0.154833821666667, 228.756674256262, -0.000898346250940282, 3.08625,239.457763671875
0.155500538333333, 228.766608524407, -0.00105849170701201, 3.1,247.085739135742
0.156167598333333, 228.777809761646, -0.00100798174408189, 3.11375,244.324981689453
0.156833753333333, 228.787942169832, -0.00116361542674096, 3.12625,232.270111083984
0.157500371666667, 228.798636049297, -0.00102760675833226, 3.14,232.270111083984
0.15816719, 228.808432102287, -0.000857333810989405, 3.1525,242.637054443359
0.158834, 228.819136781126, -0.0010828174851711, 3.16625,241.837768554688
0.159500485, 228.829263566294, -0.00135635724555537, 3.18,239.872375488281
