Time (min), Depth (µm), Load (N), Position (µm), Acoustic (aJ)
8.88666666666667E-06, 226.590923486623, 3.66698795668363E-05, 0,234.929428100586
0.000664366666666667, 226.590673353342, 0.000205588395003516, 0.00500000000000001,281.305572509766
0.00133126666666667, 226.591109480938, -0.000198900787905846, 0.0174999999999999,237.612838745117
0.00199787166666667, 226.591045552736, 1.22226075735878E-05, 0.0325,236.823577880859
0.00266417, 226.59112536592, -0.000165396970792924, 0.0462499999999998,239.097015380859
0.00333139666666667, 226.591594464684, -0.000446730339673018, 0.0599999999999999,239.097015380859
0.00399801333333333, 226.592908939372, -0.00108456880173753, 0.075,243.276580810547
0.00466421333333333, 226.594364308271, -0.00109435131037466, 0.0899999999999999,242.157211303711
0.005330985, 226.596856587716, -0.00110525426266854, 0.10375,244.841506958008
0.00599764, 226.600128042154, -0.000987682668170286, 0.1175,251.783828735352
0.00666441, 226.604431457777, -0.00123722213407598, 0.13,251.783828735352
0.00733091333333333, 226.608800171332, -0.000743373439572674, 0.1425,246.007522583008
0.00799777833333333, 226.614051745329, -0.00063005713135036, 0.15625,245.914306640625
0.00866432166666667, 226.621576222509, -0.000732777971823971, 0.17,240.100845336914
0.009331055, 226.630148636301, -0.000922944419970398, 0.18375,244.791229248047
0.009998075, 226.639369622737, -0.000633958435445873, 0.19625,244.791229248047
0.0106642883333333, 226.65028135389, -0.000976536728101824, 0.20875,249.368179321289
0.01133086, 226.661877168317, -0.0010261167377319, 0.22375,240.158081054688
0.011997765, 226.672519604418, -0.00099406784752393, 0.2375,241.391494750977
0.0126644166666667, 226.683833905381, -0.000906484246720997, 0.25,243.609985351563
0.0133311583333333, 226.69488581975, -0.00109244640606371, 0.2625,243.609985351563
0.0139976083333333, 226.706097147092, -0.000806044791711078, 0.27625,238.048904418945
0.0146641566666667, 226.716863591783, -0.000422407561383986, 0.29,245.063369750977
0.0153309233333333, 226.728812750991, -0.00047491692388372, 0.30375,247.361785888672
0.01599752, 226.740008644809, -0.000624598905490471, 0.3175,242.709701538086
0.0166642416666667, 226.751205797444, -0.000292535084729209, 0.33,242.709701538086
0.0173308816666667, 226.761973341838, -0.000306352390712479, 0.34375,285.3017578125
0.0179977766666667, 226.77305907431, -0.000732251498252157, 0.3575,249.273300170898
0.0186642366666667, 226.783218701432, -0.000606541312539059, 0.37125,246.640747070313
0.0193308433333333, 226.794004836941, -0.000343750012298898, 0.38375,244.092742919922
0.0199978916666667, 226.804820269787, -0.000384037988635477, 0.3975,244.092742919922
0.0206644, 226.815801503825, -0.000444525450417656, 0.41,242.404144287109
0.021330875, 226.826877294756, -0.000270768178069664, 0.42375,244.95573425293
0.0219976216666667, 226.838019956784, -0.000254042518179633, 0.4375,249.356948852539
0.02266436, 226.848957936125, -0.000599574162474443, 0.45,244.482223510742
0.0233310266666667, 226.859639535924, -0.000781639517537358, 0.46375,244.482223510742
0.02399785, 226.87596224238, -0.00106266840169983, 0.48,246.291473388672
0.0248309633333333, 226.88713538026, -0.00136293831946544, 0.49375,254.482650756836
0.02549792, 226.898418428817, -0.00114818360634684, 0.5075,247.196258544922
0.026164275, 226.908967823242, -0.00101685470284145, 0.52125,243.997909545898
0.0268309183333333, 226.920282284387, -0.0010754927575156, 0.53375,250.228881835938
0.0274979883333333, 226.931345434401, -0.00104187644602993, 0.5475,250.228881835938
0.0281642616666667, 226.942476497454, -0.000666661292672407, 0.56,242.478271484375
0.0288312766666667, 226.953013756351, -0.000726268298702348, 0.57375,244.190093994141
0.0294975366666667, 226.964339264141, -0.000964591328028869, 0.5875,239.644393920898
0.0301650916666667, 226.975120472398, -0.000893197914040243, 0.6,246.197250366211
0.0308311116666667, 226.986020275372, -0.000825299324506321, 0.61375,246.197250366211
0.0314977533333333, 226.996344854815, -0.00102829912803619, 0.6275,241.795852661133
0.0321641716666667, 227.007361080003, -0.00115398831480765, 0.64,240.883560180664
0.0328308316666667, 227.017831125562, -0.00112363883922487, 0.65375,236.686416625977
0.0334976433333333, 227.02830856462, -0.000925066813298565, 0.6675,292.796722412109
0.0341642816666667, 227.039057893238, -0.00120640168214557, 0.67875,292.796722412109
0.03483085, 227.049724596175, -0.00110919756462609, 0.6925,237.851089477539
0.035498045, 227.059812849232, -0.00114651269030656, 0.70625,244.863265991211
0.03616437, 227.069770039696, -0.00100205944606224, 0.71875,237.495880126953
0.0368308733333333, 227.079208266488, -0.000814313876327755, 0.7325,238.840972900391
0.03749793, 227.088587714754, -0.000450373656643646, 0.745,238.840972900391
0.0381643533333333, 227.098083530651, -0.000388275275776066, 0.75875,235.604583740234
0.0388308633333333, 227.107818015355, -0.000345041447380136, 0.7725,234.997894287109
0.0394975366666667, 227.117405183399, -0.000406223374267293, 0.785,233.401657104492
0.0401645566666667, 227.126721042358, -0.00043784028618336, 0.79875,235.603561401367
0.0408310466666667, 227.136377673855, -0.000296985361198823, 0.81125,235.603561401367
0.0414979733333333, 227.145760767672, -0.000562596519869715, 0.825,241.507202148438
0.0421641783333333, 227.15515701809, -0.000665158368271564, 0.8375,244.824890136719
0.04283093, 227.164256537958, -0.00086905812659217, 0.85125,239.940948486328
0.0434978833333333, 227.173799967925, -0.00102892759650994, 0.86375,242.357604980469
0.044164265, 227.182403095299, -0.00125419678145946, 0.8775,242.357604980469
0.04483111, 227.190928091549, -0.001214558272432, 0.89125,257.743988037109
0.0454976633333333, 227.199183282534, -0.000915351801280844, 0.90375,262.397735595703
0.046164185, 227.207659343749, -0.000641438559656404, 0.9175,262.549530029297
0.046831245, 227.215942232433, -0.000704163909009562, 0.93125,259.075897216797
0.0474976183333333, 227.224789634762, -0.000785789809041304, 0.94375,259.075897216797
0.0481648833333333, 227.233991921351, -0.000885443303557646, 0.9575,264.789642333984
0.0488308283333333, 227.242742954095, -0.00115892606681459, 0.97125,269.871551513672
0.04949752, 227.251990503733, -0.00122717263883132, 0.98375,263.815002441406
0.0501643733333333, 227.260588626271, -0.00106010353056643, 0.9975,325.4501953125
0.0508312033333333, 227.269605990639, -0.000802857451780294, 1.01125,325.4501953125
0.0514976183333333, 227.277931005073, -0.000440283663503857, 1.0275,261.845916748047
0.0523312383333333, 227.28710288087, -0.000152058140758055, 1.04125,263.520172119141
0.0529976216666667, 227.29627524358, -6.50805095840713E-05, 1.055,263.927978515625
0.0536642666666667, 227.305907128935, -0.000262112112871931, 1.06875,266.443817138672
0.0543334033333333, 227.315370337291, -0.000597409771241731, 1.0825,264.743865966797
0.05499781, 227.325341176783, -0.000738213698817812, 1.09375,264.743865966797
0.05566433, 227.334866085552, -0.000916259255757356, 1.10875,262.944030761719
0.05633117, 227.344527160679, -0.00111598472376231, 1.12125,266.902557373047
0.0569977483333333, 227.354578546545, -0.000908084666356831, 1.135,267.792449951172
0.05766417, 227.364268698606, -0.000566563820575209, 1.14875,265.713989257813
0.0583309166666667, 227.374414930405, -0.000823028438619724, 1.16125,265.713989257813
0.0589994183333333, 227.384515687566, -0.00076628028901249, 1.175,260.012908935547
0.0596643233333333, 227.3943818291, -0.000717291249661063, 1.18875,260.784393310547
0.0603309816666667, 227.404154720655, -0.000781026048328901, 1.20125,263.778411865234
0.06099758, 227.414238533596, -0.000840051083584108, 1.215,260.479583740234
0.0616642466666667, 227.424503430802, -0.000691441548074465, 1.2275,260.479583740234
0.06233096, 227.435004204684, -0.000613254975294509, 1.24125,265.919403076172
0.0629975883333333, 227.445659124719, -0.000380970642699463, 1.255,265.078186035156
0.0636642433333333, 227.456605885427, -0.000453388505268055, 1.26875,260.455718994141
0.0643310966666667, 227.467536432061, -0.000310999157321428, 1.28125,261.312805175781
0.0649976733333333, 227.478071824786, 0.000100949150920582, 1.295,261.312805175781
0.0656642983333333, 227.489079745963, 4.58704174717313E-05, 1.30875,261.490051269531
0.0663310683333333, 227.49973363761, 8.89062557826687E-05, 1.3225,312.222473144531
0.0669976, 227.510023926312, 0.000503884411871865, 1.335,256.184234619141
0.0676643366666667, 227.52024330691, 0.00051738523376354, 1.34875,260.267639160156
0.0683308583333333, 227.530701120831, 0.000517488728589873, 1.3625,260.267639160156
0.0689978133333333, 227.541230504072, 0.000771634463103123, 1.375,250.661590576172
0.069664255, 227.551814016916, 0.000585739800422322, 1.38875,255.229537963867
0.070330975, 227.562911677806, 0.000441645038174141, 1.40125,257.398468017578
0.0709976933333333, 227.57363527673, 0.000345367874084647, 1.415,257.398468017578
0.071664195, 227.584928918518, -1.01697676471318E-05, 1.42875,249.766174316406
0.0723311833333333, 227.595475908617, -0.000408947237493708, 1.44125,251.996887207031
0.0729975966666667, 227.606350430216, -0.000484055964866827, 1.45375,250.350082397461
0.0736643066666667, 227.616334199974, -0.00058420893429447, 1.4675,250.500091552734
0.0743311533333333, 227.626714950411, -0.000477790779571714, 1.48125,250.559158325195
0.0749976083333333, 227.636069038248, -0.000500340646897284, 1.49375,250.559158325195
0.0756644016666667, 227.645720800303, -0.000209829238978343, 1.5075,244.968353271484
0.07633091, 227.654514566562, 5.53079434535951E-05, 1.52,241.67839050293
0.076997675, 227.663928824339, 9.2276586554412E-05, 1.53375,249.61003112793
0.0776642516666667, 227.673042440655, -0.000114573523598755, 1.5475,242.092697143555
0.0783309566666667, 227.681791136185, 0.00025659483301739, 1.55875,242.092697143555
0.0789978133333333, 227.69061848923, 0.000544173888217864, 1.5725,245.97331237793
0.0796643066666667, 227.699659747249, 0.000548504170735217, 1.5875,242.959884643555
0.0803309116666667, 227.708346414068, 0.000379668151183224, 1.59875,247.041076660156
0.08099758, 227.716976533462, 0.00034308348877215, 1.6125,242.498779296875
0.08166427, 227.725408274425, 0.000141070635669653, 1.62625,242.498779296875
0.0823309383333333, 227.733743204443, -0.000482811027399582, 1.63875,251.450622558594
0.0829984883333333, 227.741608399503, -0.000684363403625262, 1.6525,300.619262695313
0.083664285, 227.749102205562, -0.000645056377997193, 1.66625,250.950927734375
0.08433092, 227.756664410829, -0.000709157158283188, 1.67875,258.445709228516
0.0849975866666667, 227.764625981234, -0.000987754664647913, 1.69125,258.445709228516
0.0856643533333333, 227.770744689325, -0.000833632906042371, 1.70375,255.192367553711
0.0863310833333333, 227.776889662671, -0.000955398289873515, 1.71875,264.043182373047
0.0869976066666667, 227.783052451711, -0.00101076050909834, 1.7325,275.485473632813
0.087664225, 227.789618685798, -0.00114135894927057, 1.74625,274.072448730469
0.088330885, 227.795249465405, -0.000916050766265304, 1.75875,274.072448730469
0.088997795, 227.802960203112, -0.00093535629655402, 1.7725,282.040130615234
0.0896642566666667, 227.810677482938, -0.000638134225728436, 1.785,285.530059814453
0.0903310816666667, 227.818677734337, -0.000672226013313707, 1.79875,282.756530761719
0.0909977133333333, 227.826250495157, -0.000746337290767372, 1.8125,284.263702392578
0.0916642816666667, 227.834688340111, -0.000794057393839848, 1.825,284.263702392578
0.092330815, 227.842162356051, -0.000599398671340516, 1.83875,282.450347900391
0.0929975733333333, 227.850803854879, -0.000461822581632853, 1.8525,280.737579345703
0.093664425, 227.859230958308, -0.000306901363150342, 1.865,286.259765625
0.0943311016666667, 227.867234427734, 3.31720553058325E-05, 1.87875,283.585327148438
0.0949976, 227.875305842889, 0.000134997440719411, 1.8925,283.585327148438
0.0956643316666667, 227.883781049222, 9.19886010052242E-05, 1.905,282.573547363281
0.0963309916666667, 227.891901878384, -0.000196989883918538, 1.91875,277.217193603516
0.0969977716666667, 227.900165548442, -0.000367577815492347, 1.9325,284.218139648438
0.0976643233333333, 227.908993080934, -0.000377754804311288, 1.945,276.492065429688
0.0983309533333333, 227.917625193189, -0.000395390918462875, 1.95875,276.492065429688
0.0989976116666667, 227.925971492249, -0.000429979181131894, 1.9725,275.17138671875
0.0996641733333333, 227.934664998464, -0.00045013216885723, 1.985,329.494812011719
0.100331026666667, 227.94343286105, -0.000454408454074812, 1.99875,277.726409912109
0.10099759, 227.951485145693, -0.000235251462067504, 2.0125,276.385925292969
0.101664273333333, 227.959951098178, -0.000174862995274687, 2.02625,276.385925292969
0.102331288333333, 227.968473875894, -0.000101285690993597, 2.03875,281.169891357422
0.102997576666667, 227.976565325336, 0.000149258724474824, 2.0525,283.789031982422
0.10366426, 227.984687909313, 0.000424047922078292, 2.06625,277.480041503906
0.104330976666667, 227.993114853376, 0.000398580701257033, 2.08,283.182250976563
0.104997748333333, 228.001213074721, 0.000216743334745922, 2.0925,283.182250976563
0.105664401666667, 228.009378524493, -2.10277222301676E-05, 2.10625,280.654235839844
0.10633089, 228.017228687028, -0.000180105231956745, 2.11875,277.548278808594
0.10699774, 228.025316112494, -0.000416772344423258, 2.1325,281.037567138672
0.10766437, 228.033309378867, -0.000665101371101732, 2.14625,282.301055908203
0.108330963333333, 228.04159828676, -0.000686130314869857, 2.15875,282.301055908203
0.108997591666667, 228.049686520024, -0.000442568048731339, 2.1725,284.786315917969
0.109664215, 228.057738815818, -0.000294912465354709, 2.18625,279.906982421875
0.110330925, 228.065704131963, -0.000311609626659824, 2.19875,282.151702880859
0.110997663333333, 228.073704786948, -0.000209644748255488, 2.2125,279.937713623047
0.111664323333333, 228.081030913714, -6.50595106211716E-05, 2.225,279.937713623047
0.112331091666667, 228.088855297863, -0.0001731170830355, 2.23875,282.1220703125
0.112997608333333, 228.096737060387, -0.000450114169721883, 2.2525,283.252075195313
0.113664321666667, 228.104248085752, -0.00041691933707854, 2.26625,275.284118652344
0.114330983333333, 228.111931154595, -0.000412298069184447, 2.27875,280.321838378906
0.114997763333333, 228.120039430073, -0.000657736741070252, 2.29125,280.321838378906
0.115664336666667, 228.128011817863, -0.000543022503027799, 2.305,272.912536621094
0.116330968333333, 228.136045600571, -0.000723733426142031, 2.31875,335.030212402344
0.116997561666667, 228.144059414758, -0.000794954348803029, 2.3325,276.319763183594
0.117664261666667, 228.151886040956, -0.000911231508307472, 2.345,277.739898681641
0.118331606666667, 228.159757984469, -0.000907946673269223, 2.3575,277.739898681641
0.118997778333333, 228.167224258515, -0.00103556926295779, 2.37,279.015777587891
0.119664306666667, 228.174664272197, -0.000680955574785946, 2.38375,278.983032226563
0.120330986666667, 228.182126731888, -0.000417165324701928, 2.3975,273.495056152344
0.120997881666667, 228.189575141529, -0.000511683077190097, 2.41125,279.671325683594
0.121664386666667, 228.197049752546, -0.000584471421107548, 2.42375,279.671325683594
0.122331028333333, 228.204549468121, -0.000558537723733114, 2.4375,278.975677490234
0.12299824, 228.21236526698, -0.000937907668431552, 2.45,275.876220703125
0.123664995, 228.220053034463, -0.00101218393759083, 2.46375,284.065979003906
0.12433132, 228.227792041065, -0.000987232690891817, 2.4775,293.831176757813
0.124997651666667, 228.234641670955, -0.000750747069299352, 2.49,293.831176757813
0.12566422, 228.242359654368, -0.000974087351168731, 2.5025,286.480865478516
0.126331235, 228.249759602574, -0.000912755431777485, 2.51625,281.016754150391
0.1269976, 228.257136394427, -0.00121259937092755, 2.53,283.698120117188
0.127664391666667, 228.265156185583, -0.00119669116994357, 2.5425,282.288909912109
0.12833094, 228.274170260818, -0.00142907449757048, 2.55625,282.288909912109
0.128997675, 228.282743991497, -0.00149043341553723, 2.57,282.326080322266
0.129664265, 228.291357719885, -0.00143363726834909, 2.5825,281.955200195313
0.130330961666667, 228.299968443997, -0.00123547922164309, 2.59625,275.022705078125
0.130997495, 228.30807078902, -0.00107145796025447, 2.61,275.022705078125
0.131664415, 228.315674119978, -0.00084206848226781, 2.62375,275.537658691406
0.132330895, 228.322738296322, -0.000495093910442016, 2.63625,281.943298339844
0.132997601666667, 228.330122090776, -0.000238215313177186, 2.65,327.703216552734
0.133664348333333, 228.337301125444, -8.12537034542583E-06, 2.66375,282.943450927734
0.134330991666667, 228.344724832379, 6.00942030320465E-05, 2.67625,282.943450927734
0.134997611666667, 228.352245276007, 0.000100548671062404, 2.69,276.725158691406
0.135664336666667, 228.360160413614, 0.000122156585692695, 2.70375,278.861480712891
0.136331106666667, 228.367861850249, -8.53804899434349E-05, 2.71625,278.193359375
0.136997586666667, 228.375747340135, -1.79273780635518E-05, 2.73125,275.426025390625
0.137664333333333, 228.383799887447, -0.000169839747640521, 2.74375,281.330718994141
0.13833098, 228.391878053088, 5.66188775733293E-05, 2.75625,281.330718994141
0.138997745, 228.399817657475, -1.41550675304814E-05, 2.77,277.251312255859
0.139664148333333, 228.408090455337, -0.000175840946219406, 2.78375,272.909545898438
0.14033103, 228.416268930031, -0.000349529222044848, 2.7975,275.216400146484
0.14099756, 228.424513682339, -0.000507249299952682, 2.81125,275.389617919922
0.141664356666667, 228.432869081, -0.000652203519075216, 2.82375,275.389617919922
0.142330891666667, 228.44112308183, -0.00060894119209437, 2.8375,271.230407714844
0.142997658333333, 228.449874507016, -0.000631443061817782, 2.85,280.049896240234
0.143664268333333, 228.458701131737, -0.000843319419453922, 2.86375,276.653961181641
0.144330908333333, 228.467356023731, -0.00100953057083262, 2.87875,272.453857421875
0.1449977, 228.476176495471, -0.00119835908617755, 2.89125,272.453857421875
0.145664343333333, 228.485112680127, -0.00130521371898667, 2.90375,270.24365234375
0.146330936666667, 228.493278569187, -0.00122599219821969, 2.9175,277.78955078125
0.146997543333333, 228.501488046002, -0.000947109706197088, 2.93125,268.063690185547
0.147664328333333, 228.509953947905, -0.000532907011173154, 2.94375,275.770629882813
0.148331118333333, 228.518615726659, -0.000367445822081098, 2.95625,275.770629882813
0.148997601666667, 228.52793198724, -0.000353648015157579, 2.97,337.080474853516
0.149664181666667, 228.53766637605, -0.000663232465040223, 2.98375,277.789978027344
0.150331105, 228.548093203237, -0.0008222424781474, 2.9975,285.810089111328
0.15099757, 228.558201449101, -0.001246269679713, 3.01,278.234497070313
0.15166446, 228.568858282394, -0.00142158537377103, 3.02375,278.234497070313
0.152330998333333, 228.579156440221, -0.00153356524915875, 3.0375,278.230743408203
0.152997618333333, 228.589306952788, -0.00141312729867954, 3.05125,284.915222167969
0.153664168333333, 228.599252321434, -0.00154540565445972, 3.06375,281.006011962891
0.154330908333333, 228.609248311196, -0.0013573061025023, 3.0775,282.645874023438
0.154998008333333, 228.618734038284, -0.00103817013236189, 3.09,282.645874023438
0.155664413333333, 228.628729660006, -0.000802213984168789, 3.10375,280.669525146484
0.15633094, 228.638733766246, -0.000751345539221268, 3.1175,285.536987304688
0.156997568333333, 228.649045584725, -0.000420808641736318, 3.13,284.352386474609
0.157664305, 228.659445365375, -0.00064663279882132, 3.14375,280.043670654297
0.158330941666667, 228.670274194788, -0.000991535974706149, 3.15625,280.043670654297
0.158997621666667, 228.681132014508, -0.00139560217893379, 3.17,282.208465576172
