Time (min), Depth (µm), Load (N), Position (µm), Acoustic (aJ)
8.62E-06, 226.824340806742, 0.00070415090265796, 0,198.394195556641
0.00066733, 226.824550108924, 0.000748419679083424, 0.00500000000000001,163.143478393555
0.00133338833333333, 226.82431818469, 0.000765721310050577, 0.0174999999999999,166.653427124023
0.00200011166666667, 226.824374423474, 0.00084301242781301, 0.0325,163.747680664063
0.002666755, 226.82447567135, 0.00055822773226465, 0.0475,163.747680664063
0.00333343333333333, 226.825056256086, 0.000538874204373775, 0.0599999999999999,167.823211669922
0.00400028333333333, 226.826600121216, 0.000452058565014089, 0.075,179.129318237305
0.00466705666666667, 226.82933837141, 8.38990572822313E-05, 0.0887499999999999,177.962631225586
0.00533345333333333, 226.832875529867, 6.43160409364037E-05, 0.10375,176.204544067383
0.00600011833333333, 226.838298940584, -0.00012503894800159, 0.11625,176.204544067383
0.00666680833333333, 226.84429610533, -0.0001309171527369, 0.12875,177.060974121094
0.00733343833333333, 226.850453764016, -0.000136447374968146, 0.14375,187.739395141602
0.00800036166666667, 226.856613617613, -7.70908563560573E-05, 0.15625,180.922790527344
0.008666835, 226.86256449003, -0.000137168838712384, 0.17,176.07145690918
0.00933345, 226.867986231526, -0.000282100558947616, 0.18375,176.07145690918
0.01000019, 226.874118160757, -0.00038786474652428, 0.19625,172.720321655273
0.0106669583333333, 226.881515137045, -0.000472439498421671, 0.21,178.618057250977
0.011333455, 226.89031664374, -0.000155424421770041, 0.2225,176.452529907227
0.0120001116666667, 226.900085058996, -0.000150378675206064, 0.23625,176.867340087891
0.01266681, 226.910988248074, 0.00034299154332759, 0.25,176.867340087891
0.0133333533333333, 226.921993287973, 0.000382756045983669, 0.2625,167.75407409668
0.0140001166666667, 226.93330127699, 0.000469123207819256, 0.28,177.670974731445
0.0148335183333333, 226.95007544362, 0.000347704306546519, 0.29375,170.88410949707
0.01550005, 226.962189904243, 0.000398103275070803, 0.3075,169.761978149414
0.0161670766666667, 226.97393699995, 0.000144902493101638, 0.32,168.778701782227
0.01683347, 226.986051986748, -9.61294001222482E-05, 0.33375,178.129150390625
0.0175002383333333, 226.998294206321, -0.000581128539094787, 0.34625,178.129150390625
0.0181669616666667, 227.010116088112, -0.000854435811154041, 0.36,171.955612182617
0.01883346, 227.021572673172, -0.00105789759152764, 0.37375,174.785308837891
0.0195002033333333, 227.032932838275, -0.00088575873788707, 0.3875,177.965835571289
0.020166825, 227.044030867089, -0.000944957764373055, 0.4,177.965835571289
0.0208336033333333, 227.05502490106, -0.00050668427838109, 0.41375,176.483291625977
0.0215002833333333, 227.066359811628, -0.000477711733655557, 0.4275,174.762802124023
0.02216686, 227.077879428782, -0.000524024907361473, 0.44125,178.230895996094
0.0228334716666667, 227.089571686898, -0.000657735691223064, 0.45375,181.300659179688
0.0235001766666667, 227.100964683493, -0.000434995379242513, 0.4675,181.300659179688
0.0241668566666667, 227.112941078235, -0.00053916214707466, 0.48,187.023727416992
0.0248336083333333, 227.124127968243, -0.000585559316610921, 0.49375,177.847396850586
0.0255001466666667, 227.136015737325, -0.000313324490691283, 0.5075,179.491394042969
0.0261668616666667, 227.147809970708, -0.000552260989119991, 0.52125,180.095565795898
0.0268334516666667, 227.159962230705, -0.000398536710523821, 0.53375,180.095565795898
0.027500175, 227.171499870036, -0.000131224637324585, 0.5475,185.02912902832
0.0281669883333333, 227.183748813812, -3.91277632483559E-05, 0.56,174.8828125
0.0288334683333333, 227.195317183517, -0.000307936761257092, 0.5725,181.666122436523
0.0295001866666667, 227.207221379771, -5.06846827520885E-05, 0.58625,176.053039550781
0.0301667966666667, 227.218974031552, -9.51919472001793E-05, 0.6,176.053039550781
0.030833455, 227.231123896611, -0.000127183840302077, 0.6125,173.305221557617
0.03150029, 227.243089823895, -0.000133651515455392, 0.62625,174.089050292969
0.0321668483333333, 227.255061053814, 0.00014430402311596, 0.63875,202.941040039063
0.0328334816666667, 227.266531968309, 0.000320717662007203, 0.6525,173.803039550781
0.0335002616666667, 227.277803582357, 9.69828999560049E-05, 0.6675,167.577651977539
0.0341668, 227.289626077355, -1.13491586241194E-05, 0.67875,167.577651977539
0.0348336183333333, 227.300571885416, 0.000346162383941159, 0.6925,173.454010009766
0.035500115, 227.311641020323, 0.000583840445604246, 0.70625,168.173156738281
0.03616682, 227.322576549946, 0.000729009153980209, 0.71875,168.842926025391
0.036833425, 227.333547174811, 0.000861209513691416, 0.7325,168.842926025391
0.0375001016666667, 227.344097905561, 0.00108407581932184, 0.745,167.898147583008
0.03816725, 227.354994684734, 0.000891082013207682, 0.7575,166.032440185547
0.038833485, 227.365494609786, 0.000730218093240521, 0.7725,165.847442626953
0.0395003766666667, 227.376356099244, 0.000523420480462722, 0.785,167.645385742188
0.0401667383333333, 227.387120706802, 0.000595622353853484, 0.79875,167.645385742188
0.0408334316666667, 227.39742286143, 0.000465515888970544, 0.81125,172.150955200195
0.0415003716666667, 227.407850709081, 0.000386058879987233, 0.825,172.614074707031
0.042166755, 227.417778862224, 0.000376585355840945, 0.8375,172.32861328125
0.0428335033333333, 227.428130685391, 5.53659903430903E-05, 0.85125,177.3515625
0.0435001583333333, 227.437319919491, 0.000196637894418004, 0.86375,177.3515625
0.0441668366666667, 227.446636094132, 9.41075444073695E-05, 0.8775,174.361755371094
0.044833575, 227.455612195116, -9.46375333041283E-06, 0.89125,202.135269165039
0.0455002633333333, 227.46524060409, -0.000170369671159611, 0.90375,206.237640380859
0.0461669083333333, 227.474657966253, 0.000147245375380847, 0.9175,208.271667480469
0.0468335716666667, 227.484577478861, -1.63564648829381E-06, 0.93125,208.271667480469
0.0475002066666667, 227.494623480989, 0.000138791800020061, 0.94375,207.598007202148
0.048166985, 227.505255200839, 0.000158464811872592, 0.9575,207.58708190918
0.04883363, 227.514962596647, 0.000288463282134735, 0.97,261.749908447266
0.0495001866666667, 227.524616811848, 0.000136165431879858, 0.98375,204.969573974609
0.0501668433333333, 227.53491262903, -0.000241787083959944, 0.9975,211.539398193359
0.0508334533333333, 227.545167257784, -0.000716096259903866, 1.01,211.539398193359
0.0515002, 227.554777094312, -0.000607599209575621, 1.02375,214.071685791016
0.0521670066666667, 227.565013292673, -0.00110067694280813, 1.0375,216.519409179688
0.0528336083333333, 227.575057538381, -0.00109373379155522, 1.05125,208.497863769531
0.0535001033333333, 227.584832627942, -0.00103969000613591, 1.06375,208.497863769531
0.0541667733333333, 227.594156882161, -0.000604741853141079, 1.0775,220.420745849609
0.05483362, 227.603954818676, -0.000881396957063519, 1.09125,215.64958190918
0.0555002766666667, 227.613567547688, -0.000774254338705211, 1.10375,208.378311157227
0.0561669916666667, 227.622686171701, -0.000649733593256438, 1.11875,203.045440673828
0.0568336066666667, 227.63224803622, -0.000741398489040766, 1.13125,203.045440673828
0.0575003416666667, 227.641475142066, -0.000839910540873688, 1.14375,212.195724487305
0.05816675, 227.65044129709, -0.000520026108349782, 1.1575,207.610473632813
0.0588335483333333, 227.659042213667, -0.000242090068774418, 1.17125,209.770355224609
0.0595001816666667, 227.668453524206, -0.000421943034917446, 1.185,210.188247680664
0.0601670116666667, 227.677521874898, -0.00022506292401557, 1.19875,210.188247680664
0.06083354, 227.686639449586, -0.000165359922781312, 1.21125,211.265884399414
0.0615001066666667, 227.695884154198, -0.000407336768549283, 1.225,214.546295166016
0.062166825, 227.705612212371, -0.00055918614132257, 1.2375,211.908126831055
0.0628335316666667, 227.71449400252, -0.000727101207120929, 1.2525,215.956390380859
0.06350027, 227.723585606798, -0.000784854306248378, 1.265,214.812835693359
0.0641667833333333, 227.732394894086, -0.00101325533392577, 1.2775,214.812835693359
0.0648334316666667, 227.741432265353, -0.000929643533644046, 1.29125,215.089965820313
0.06550028, 227.750544755479, -0.000893952826347346, 1.305,260.632629394531
0.066166785, 227.759689755117, -0.000786985699207981, 1.3175,201.87532043457
0.0668335216666667, 227.769326790642, -0.000990738464915815, 1.3325,210.341781616211
0.06750029, 227.779504380111, -0.00108777459088088, 1.345,210.341781616211
0.06816687, 227.789286043613, -0.00123579615591818, 1.3575,202.464065551758
0.0688334166666667, 227.799408168943, -0.00130131886479351, 1.37125,206.086151123047
0.0695002833333333, 227.80982438536, -0.00176571803850478, 1.385,203.036544799805
0.0701671583333333, 227.819660617803, -0.00148385369625841, 1.3975,203.036544799805
0.07083353, 227.829871968443, -0.00131842700549139, 1.41125,200.864639282227
0.0715002116666667, 227.840014912477, -0.00134967493594049, 1.425,199.914245605469
0.0721669066666667, 227.849862354184, -0.00127582164552669, 1.4375,197.647262573242
0.0728335166666667, 227.859489443602, -0.000497773226077311, 1.45125,194.524429321289
0.073500135, 227.869014797797, -0.000468215710685728, 1.46375,194.524429321289
0.0741668433333333, 227.878289916214, -0.000479630137392406, 1.4775,189.282241821289
0.0748337233333333, 227.887453057491, -0.000460269109879514, 1.49,183.719757080078
0.075500115, 227.896924317909, -0.000531640025002092, 1.50375,186.325302124023
0.0761675583333333, 227.905646048374, -0.000694855826858643, 1.5175,192.993927001953
0.0768335266666667, 227.914415381886, -0.00085468329889312, 1.53,192.993927001953
0.07750014, 227.922932628782, -0.000501301048911396, 1.54375,191.132080078125
0.0781667933333333, 227.931216435351, -4.82353059040113E-05, 1.55625,188.314575195313
0.0788336133333333, 227.939345364425, 8.29076069116121E-05, 1.56875,188.117965698242
0.0795003533333333, 227.9479203821, -0.000164887446573031, 1.58375,190.899291992188
0.08016683, 227.955865781579, -0.000274588936388379, 1.59625,190.899291992188
0.0808334183333333, 227.963570358966, -0.000664567848112642, 1.60875,184.752700805664
0.081500365, 227.971242175496, -0.000729360093633555, 1.6225,190.851623535156
0.08216691, 227.978334576774, -0.000632443961642003, 1.635,187.490509033203
0.082833545, 227.985507148796, -0.000597213731243373, 1.64875,194.740646362305
0.0835002133333333, 227.991970254301, -0.000270687632292866, 1.6625,197.450012207031
0.0841669083333333, 227.999034365095, -0.000271301101522577, 1.675,197.450012207031
0.0848334933333333, 228.005832390046, -0.000600750553623878, 1.68875,195.394744873047
0.0855002716666667, 228.010865295475, -0.00067005607248185, 1.70125,201.996429443359
0.0861671216666667, 228.015264564813, -0.000309049705461867, 1.715,218.402709960938
0.0868335766666667, 228.020106178459, -0.000400981587853737, 1.72875,218.402709960938
0.08750013, 228.025234691241, -0.000389919643488096, 1.74125,229.380752563477
0.0881668366666667, 228.030081051618, -0.000337611270879653, 1.755,233.549560546875
0.0888334733333333, 228.036634582126, -0.000550219591794616, 1.76875,233.296249389648
0.089500265, 228.043586988444, -0.000808097138860794, 1.7825,237.015823364258
0.090166825, 228.05046165712, -0.000702626936509676, 1.79375,237.015823364258
0.0908334983333333, 228.056232615927, -0.000666960228024682, 1.8075,237.787796020508
0.0915002633333333, 228.06251268039, -0.000549855110122116, 1.82125,233.650695800781
0.0921668116666667, 228.068501058696, -0.000717123708375147, 1.835,229.771224975586
0.0928336266666667, 228.074500031472, -0.000555932804803059, 1.84875,232.085525512695
0.0935002133333333, 228.080712092575, -0.000473210459862503, 1.8625,224.382888793945
0.0941668066666667, 228.087238319752, -0.0003089057126979, 1.875,224.382888793945
0.09483348, 228.093609778002, -0.000400728100565825, 1.88875,236.182479858398
0.09550013, 228.100217839278, -0.000567186739492317, 1.9025,231.019989013672
0.0961670366666667, 228.106461472597, -0.000712227954251495, 1.915,227.967758178711
0.09683348, 228.1132418836, -0.00114352679053557, 1.92875,227.967758178711
0.0975001183333333, 228.119667994515, -0.00156469363575406, 1.94125,227.257659912109
0.0981667683333333, 228.126066757878, -0.00148237327061734, 1.955,226.461318969727
0.0988335466666667, 228.132093831459, -0.00105705313402485, 1.96875,221.3505859375
0.099500155, 228.138587606265, -0.00104288784551626, 1.9825,221.703491210938
0.100167031666667, 228.14460535981, -0.000660696542611464, 1.99625,216.930755615234
0.10083343, 228.15062516654, -0.000393657455696129, 2.00875,216.930755615234
0.101500121666667, 228.156573209704, -0.000474623388841659, 2.0225,228.182464599609
0.102166848333333, 228.163355476548, -0.000489513140943291, 2.03625,226.41926574707
0.102833493333333, 228.169343402566, -0.000287540785799683, 2.05,228.288604736328
0.103500158333333, 228.176034425242, -0.000289643680131861, 2.0625,226.104095458984
0.10416687, 228.183014597469, -0.000274242453744956, 2.075,226.104095458984
0.104833445, 228.190608955034, -0.000373049990749082, 2.08875,227.797805786133
0.105500308333333, 228.198111107339, -0.000556418780330969, 2.1025,228.086181640625
0.10616692, 228.206197646249, -0.00072707870825488, 2.11625,228.086181640625
0.10683363, 228.214231909854, -0.00109476723968161, 2.12875,230.747451782227
0.107500193333333, 228.222012088119, -0.00111950699703976, 2.1425,230.059219360352
0.10816686, 228.229402193029, -0.00106714162730399, 2.155,240.701950073242
0.108833431666667, 228.236302349568, -0.000671807984503667, 2.16875,227.44612121582
0.109500253333333, 228.243425266661, -0.000748904112029914, 2.1825,233.787521362305
0.110167118333333, 228.250554794611, -0.000456934777357212, 2.19625,233.787521362305
0.110833521666667, 228.257842661145, -0.000516225299231795, 2.20875,228.212615966797
0.11150023, 228.264908609958, -6.59419165025518E-05, 2.2225,237.026077270508
0.11216684, 228.272216895552, -8.81992985269783E-05, 2.235,234.693557739258
0.112833578333333, 228.279743527626, -0.000216876335219818, 2.24875,230.3720703125
0.113500281666667, 228.28712503992, -0.000180570658832766, 2.2625,230.3720703125
0.114166828333333, 228.29478840735, -0.000105005954377294, 2.275,227.429550170898
0.114833488333333, 228.302583190355, -0.000576340779719457, 2.28875,279.066864013672
0.115500271666667, 228.31061218879, -0.00076328088992187, 2.30125,226.492736816406
0.116166861666667, 228.318095212398, -0.000414830392228222, 2.315,227.603897094727
0.116833591666667, 228.325346678784, -0.000341992550784209, 2.32875,227.435012817383
0.117500215, 228.332684527383, -0.000219225217239148, 2.34125,227.435012817383
0.118166931666667, 228.340200633208, -3.77793310823026E-05, 2.35375,228.123260498047
0.118833491666667, 228.347152162502, -3.10551688347764E-05, 2.3675,227.900802612305
0.119500211666667, 228.354450114251, -0.000385536863574121, 2.38125,223.70068359375
0.120166851666667, 228.361336375172, -0.000865166272290325, 2.3925,223.70068359375
0.120834273333333, 228.368120919317, -0.00100529523375742, 2.40625,228.134170532227
0.121500265, 228.374676295254, -0.000952338893700495, 2.42,228.470657348633
0.122166935, 228.381229278041, -0.000989538525180667, 2.43375,236.551254272461
0.122833903333333, 228.387509657198, -0.000863210370507157, 2.4475,229.657379150391
0.123500133333333, 228.394097302251, -0.000644551353508002, 2.45875,229.657379150391
0.124166885, 228.400633286449, -0.000664633844807639, 2.4725,235.520919799805
0.12483355, 228.407193253118, -0.000464797382375589, 2.48625,227.213943481445
0.125500088333333, 228.413827293313, -0.000184869442852634, 2.49875,234.526962280273
0.126166825, 228.420735506178, 0.00010880980593734, 2.5125,233.04377746582
0.126833538333333, 228.427696087177, 0.000117273880790203, 2.52625,228.493347167969
0.127500208333333, 228.435805237169, 0.000120021742785816, 2.5375,228.493347167969
0.128166811666667, 228.444420128618, -0.0001551289366626, 2.5525,230.453094482422
0.128833451666667, 228.452850895902, -0.000367755256691655, 2.56625,226.542831420898
0.129500156666667, 228.460779516661, -0.000331154095112145, 2.58,221.842971801758
0.13016682, 228.468662993404, -0.000239144216693813, 2.59375,220.781066894531
0.130833506666667, 228.475376658831, -0.000215298414407525, 2.60625,220.781066894531
0.131500336666667, 228.481643424227, 4.69304140751438E-05, 2.62,269.39111328125
0.132166835, 228.488504880274, -0.000158671758740718, 2.6325,227.760375976563
0.132833413333333, 228.495791835682, -0.000172294074509056, 2.64625,223.718597412109
0.133500133333333, 228.503602005613, -0.000354267934162118, 2.66,224.728546142578
0.134166896666667, 228.512385545509, -0.000366084340651377, 2.6725,224.728546142578
0.134833525, 228.521783905637, -0.000460645590925986, 2.68625,221.005767822266
0.135500163333333, 228.531470427339, -0.00024017166514384, 2.7,226.579788208008
0.13616678, 228.542116854744, -0.000495971816528933, 2.71375,225.303436279297
0.136833613333333, 228.553311472522, -0.00037138657433082, 2.72625,221.369216918945
0.137500148333333, 228.563767364477, -0.000292991512016302, 2.74,221.369216918945
0.138166976666667, 228.575035660437, -0.000427995230947296, 2.7525,220.385482788086
0.138833563333333, 228.586294208086, -0.000513483436933795, 2.76625,219.733642578125
0.139500368333333, 228.597777155647, -0.00060598529068392, 2.78,221.874359130859
0.140166786666667, 228.609071580136, -0.000683744384923932, 2.7925,220.633544921875
0.140833483333333, 228.620532391565, -0.000434816888323542, 2.80625,220.633544921875
0.14150014, 228.631546500641, -0.00040927917105533, 2.82,221.424606323242
0.142166765, 228.642922038725, -7.07056772362085E-05, 2.83375,224.84846496582
0.142833766666667, 228.653953025982, 1.85728383762004E-05, 2.8475,218.741287231445
0.14350026, 228.665123234636, 0.000182943582214547, 2.86125,226.735321044922
0.144167053333333, 228.676176475118, -5.18156260709565E-05, 2.87375,226.735321044922
0.144833518333333, 228.687543913763, -0.000257135813056497, 2.88625,216.9306640625
0.145500203333333, 228.698615420349, -0.000522087004841178, 2.9,223.633529663086
0.146166915, 228.709632775832, -0.000420584103174299, 2.91375,217.787536621094
0.146833446666667, 228.72049842623, -0.000416490808797677, 2.92875,229.169952392578
0.147500136666667, 228.732191963412, -0.000547653220588035, 2.94,229.169952392578
0.148166815, 228.74332219011, -0.000419996132701952, 2.95375,267.745239257813
0.148833481666667, 228.754475179328, -0.000275500890553084, 2.9675,224.017715454102
0.14950039, 228.765649042692, -0.000175179929613531, 2.98125,220.810424804688
0.150166903333333, 228.777139136403, -0.000246001872276992, 2.99375,227.540390014648
0.150833651666667, 228.78832181883, -0.000104266491518963, 3.0075,227.540390014648
0.151500391666667, 228.799440986766, -0.000196328867333917, 3.02,226.492660522461
0.152166956666667, 228.81109051658, -0.000403369467886298, 3.03375,226.561950683594
0.152833438333333, 228.822377490176, -0.000445383857508584, 3.0475,223.489318847656
0.153500228333333, 228.833516561426, -0.000380947094092496, 3.06,229.462219238281
0.154166743333333, 228.844612303187, -0.000448728689501709, 3.07375,229.462219238281
0.154833665, 228.855514138653, -0.000269870173365566, 3.0875,229.568542480469
0.155500311666667, 228.866330954183, -0.000203498507150465, 3.1,234.850616455078
0.156166865, 228.877498115784, -0.00051502385955099, 3.11375,233.030578613281
0.156833478333333, 228.888538997973, -0.000622052483633397, 3.12625,230.226150512695
0.157500165, 228.899239159645, -0.000409315169177246, 3.14,230.226150512695
0.158167345, 228.910311391615, -0.000309811667122484, 3.15375,232.380554199219
0.158833508333333, 228.921345631567, -0.000166700855410365, 3.16625,226.720611572266
0.159500133333333, 228.932336182457, 0.000224860476856892, 3.18,230.794540405273
