Time (min), Depth (µm), Load (N), Position (µm), Acoustic (aJ)
8.32833333333333E-06, 226.792307085766, -0.000457577456759729, 0,302.767913818359
0.00066654, 226.792396711184, -0.000260029879349625, 0.00500000000000001,360.551422119141
0.00133313, 226.791879202704, 0.000174009319329304, 0.0174999999999999,287.555816650391
0.00199959333333333, 226.791554977422, 0.000471855358834167, 0.0325,285.306030273438
0.00266646166666667, 226.791496336853, 0.000744670655646645, 0.0475,285.306030273438
0.0033329, 226.792362193466, 0.000837581988822621, 0.0599999999999999,288.338348388672
0.003999675, 226.7942141211, 0.000984712598594348, 0.07375,300.101989746094
0.00466666166666667, 226.797332518098, 0.000944466620119807, 0.0887499999999999,301.687957763672
0.00533294166666667, 226.801734683496, 0.000938900399702882, 0.1025,304.799987792969
0.00599974166666667, 226.80759801021, 0.000799180917619136, 0.115,304.799987792969
0.00666635833333333, 226.813995910986, 0.000444636225991092, 0.12875,302.967010498047
0.00733288333333333, 226.820481239, 0.000544382715841689, 0.1425,300.598907470703
0.00799983, 226.827474909994, 0.000427097606925716, 0.15625,298.734222412109
0.00866612666666667, 226.834845160984, 0.000113565355333566, 0.16875,306.372406005859
0.00933289333333333, 226.841398353726, -0.000313713682848396, 0.1825,306.372406005859
0.00999953833333333, 226.847916051514, 4.71035965442009E-07, 0.19625,299.376739501953
0.0106663333333333, 226.854668281634, -0.000254660149050781, 0.20875,297.517730712891
0.0113330266666667, 226.862082075656, -0.000399956351001021, 0.2225,308.771179199219
0.01199952, 226.869377862842, -0.000303596691048094, 0.23625,295.818664550781
0.012666535, 226.878350088376, 0.000130814488946604, 0.25,295.818664550781
0.0133329316666667, 226.888163757581, 6.4465321618806E-05, 0.2625,302.809661865234
0.0139998583333333, 226.899399947915, 4.81251423854284E-05, 0.27625,298.665405273438
0.0146663416666667, 226.910687339117, -0.000210221881103986, 0.29375,301.875091552734
0.0154997583333333, 226.92238549364, -0.000266919033281509, 0.3075,296.851043701172
0.0161663866666667, 226.933922579328, -0.000570419788764343, 0.32,361.395660400391
0.0168331, 226.945349411421, -0.000835631967416444, 0.33375,361.395660400391
0.0174996083333333, 226.956385261366, -0.00100439149080262, 0.34625,302.122283935547
0.018166285, 226.967745327458, -0.000670998736807528, 0.36,301.866546630859
0.01883301, 226.979579658651, -0.000916455407764919, 0.37375,294.975769042969
0.0194995283333333, 226.991512462527, -0.000951813131759079, 0.3875,303.287139892578
0.0201661933333333, 227.00341371633, -0.000706908433109612, 0.4,303.287139892578
0.0208329333333333, 227.015354414187, -0.000716824435039877, 0.41375,306.416381835938
0.0214996466666667, 227.026702909385, -0.000595603523852132, 0.42625,307.703002929688
0.02216625, 227.038090106893, -0.000689371314011148, 0.44125,306.338745117188
0.0228337833333333, 227.048943579342, -0.000436472016889546, 0.45375,303.1748046875
0.0234995666666667, 227.060133517863, -0.000430907296354517, 0.46625,303.1748046875
0.0241661833333333, 227.070751349547, -0.000342470238438606, 0.48,301.314239501953
0.02483286, 227.082062082475, -0.0002495664049059, 0.49375,300.057373046875
0.0254995866666667, 227.092691646028, -3.47996924133297E-05, 0.5075,305.046081542969
0.0261663966666667, 227.104420204204, -8.33282548879399E-05, 0.52125,305.006988525391
0.02683295, 227.115826120714, -0.00019083985475572, 0.53375,305.006988525391
0.0274996683333333, 227.127940563846, -0.000417347977474878, 0.5475,303.071044921875
0.028166345, 227.139765297908, -0.000547283450933337, 0.56,305.469787597656
0.02883292, 227.151988096911, -0.000601816211793131, 0.5725,301.702575683594
0.0294996116666667, 227.163094151049, -0.000761763677758615, 0.58625,295.033996582031
0.0301662433333333, 227.175194364816, -0.000852993595359728, 0.6,295.033996582031
0.0308329283333333, 227.186120308585, -0.000314531141754442, 0.6125,298.120208740234
0.0314995333333333, 227.197752357747, -0.000443763150604012, 0.62625,295.577789306641
0.0321663683333333, 227.208918425397, -0.000269188419286212, 0.64,291.090698242188
0.0328331383333333, 227.220211417225, 3.69222050621186E-05, 0.65375,344.374450683594
0.0334995966666667, 227.230820887091, 0.000218729573063911, 0.66625,344.374450683594
0.0341662966666667, 227.242219063365, 5.19279879455338E-06, 0.67875,286.595306396484
0.0348330383333333, 227.252504685524, 0.000578164019032977, 0.6925,284.663818359375
0.035499595, 227.263171215463, 0.000782990730826084, 0.70625,288.683410644531
0.036166425, 227.273545718689, 0.000955869047346241, 0.71875,288.630859375
0.0368328583333333, 227.28430690609, 0.00126278063147469, 0.73125,288.630859375
0.0374996066666667, 227.294573651104, 0.00132346608332061, 0.745,288.33837890625
0.0381663983333333, 227.304875058261, 0.00101329066313806, 0.75875,286.938385009766
0.03883285, 227.315538484979, 0.000909836359524988, 0.77125,288.955047607422
0.0394995916666667, 227.326272641997, 0.000635741627005245, 0.785,286.707641601563
0.040166265, 227.336668089648, 0.000156575695014664, 0.7975,286.707641601563
0.0408328666666667, 227.34740985403, -2.23032833116138E-06, 0.81,293.665405273438
0.04149957, 227.35751221055, 1.2605328893041E-07, 0.82375,288.698303222656
0.0421661916666667, 227.367822049786, -8.19588236739704E-05, 0.8375,293.851135253906
0.042832925, 227.378096874161, -0.000170779862258369, 0.85125,299.712493896484
0.0434998066666667, 227.387807950419, -0.000134808669055752, 0.86375,299.712493896484
0.044166335, 227.396965667369, -0.000122917266367584, 0.8775,299.912628173828
0.0448328833333333, 227.406771809059, -0.000321084312641251, 0.89,316.516021728516
0.04549953, 227.416238272464, -0.000623574118906256, 0.90375,323.095550537109
0.0461663816666667, 227.425555412182, -0.000627479922753725, 0.9175,318.14453125
0.0468329633333333, 227.435403139534, -0.000661778699970407, 0.93125,318.14453125
0.0474997466666667, 227.445594032495, -0.000826656418320817, 0.94375,324.908599853516
0.048166145, 227.455636011844, -0.000835829957543945, 0.9575,323.809020996094
0.04883287, 227.465052872845, -0.000380383834104762, 0.97,328.210113525391
0.0494998366666667, 227.475091549822, -0.000399342881813818, 0.98375,401.333465576172
0.0501669383333333, 227.484683708607, -0.000370155847834857, 0.9975,401.333465576172
0.0508331, 227.494352181707, -0.000195572116991892, 1.01,328.311401367188
0.0514996233333333, 227.504028601724, -9.00449174921956E-05, 1.02375,316.906433105469
0.0521663833333333, 227.514474264063, -0.000352992209955312, 1.0375,323.974914550781
0.05283299, 227.524587480097, -0.00019473815891741, 1.05125,325.272155761719
0.0534994883333333, 227.534291503955, -8.40551820458701E-06, 1.06375,325.272155761719
0.05416636, 227.544781785576, 4.30418976263531E-05, 1.0775,317.584381103516
0.0548328983333333, 227.554780282145, 8.33223744046781E-05, 1.09,324.813598632813
0.0554995366666667, 227.564799712525, 0.000356776639119214, 1.10375,321.086853027344
0.056166445, 227.574560939412, 0.0005361076315274, 1.1175,323.429595947266
0.05683302, 227.584743842829, 0.000608964971988655, 1.13125,323.429595947266
0.05749954, 227.593602731369, 0.000657261046116998, 1.14375,319.680541992188
0.05816644, 227.603219115499, 0.000776376063102504, 1.1575,322.587219238281
0.0588329266666667, 227.611820201574, 0.00070293525194211, 1.17125,325.35986328125
0.0594999716666667, 227.620973048696, 0.000373970275508078, 1.185,322.101745605469
0.0601662383333333, 227.629667194785, 0.000126923684406931, 1.19875,322.101745605469
0.0608328966666667, 227.639567781312, -0.000130149903072831, 1.21125,324.491058349609
0.0614996683333333, 227.648356083128, -0.000197775506280343, 1.225,321.487945556641
0.0621662383333333, 227.658065553352, -0.000378925907308492, 1.23875,326.011474609375
0.06283301, 227.666758320192, -0.000214294176602725, 1.25125,324.810028076172
0.0634996, 227.676754667216, -0.000376694019435125, 1.265,324.810028076172
0.0641663083333333, 227.685681584016, -0.000367940459108671, 1.2775,324.552795410156
0.0648329733333333, 227.695515334191, -0.000689923286255309, 1.29125,325.497436523438
0.0654996783333333, 227.704572683676, -0.000813074600490112, 1.305,323.978729248047
0.0661662033333333, 227.714124315698, -0.000696909935294659, 1.31875,387.234954833984
0.0668330033333333, 227.723563530982, -0.000640982244484786, 1.3325,387.234954833984
0.0674996233333333, 227.733034406957, -0.000548247902494665, 1.34375,320.672912597656
0.0681661833333333, 227.742859079442, -0.000160073400061317, 1.35875,318.521209716797
0.0688329883333333, 227.752772113036, -0.000243793194900072, 1.37125,319.875091552734
0.0694995616666667, 227.763511050251, -0.000565963512618371, 1.38375,315.884887695313
0.0701663666666667, 227.773666555699, -0.000429143384958728, 1.3975,315.884887695313
0.0708329116666667, 227.784678802636, -0.000581228245863326, 1.41125,308.482025146484
0.0714998283333333, 227.795606557261, -0.00100240859044395, 1.42375,305.287231445313
0.0721662583333333, 227.806679783791, -0.000560716776163103, 1.4375,305.256042480469
0.072832915, 227.816469150749, 3.86396188014062E-05, 1.45125,306.202484130859
0.0734999366666667, 227.827412699589, -0.000168486477463214, 1.46375,306.202484130859
0.0741663883333333, 227.837584744013, 0.00017908206453254, 1.4775,301.8896484375
0.0748329466666667, 227.847840583318, 0.000543454262508548, 1.49,302.874542236328
0.0754997016666667, 227.858230712467, 0.000412120859229949, 1.50375,297.907257080078
0.0761662033333333, 227.868862035016, -9.59996183933259E-05, 1.51625,297.389282226563
0.0768331483333333, 227.878890580281, 0.0001603570050729, 1.53,297.389282226563
0.077499625, 227.889144362274, -4.06988961115394E-05, 1.5425,301.636993408203
0.0781662333333333, 227.898921048311, -0.000216608560360779, 1.55625,294.005615234375
0.07883291, 227.908498353451, -0.000408144439721176, 1.57,299.372039794922
0.079499605, 227.918550606638, -0.000475653048846488, 1.5825,301.036071777344
0.0801669033333333, 227.927856486097, -0.000458412914779869, 1.59625,301.036071777344
0.08083293, 227.937411034679, -0.000690679248260821, 1.60875,296.905242919922
0.0814996916666667, 227.9463665059, -0.000907883338333767, 1.6225,298.436859130859
0.0821661916666667, 227.955343732927, -0.00104209509700981, 1.635,361.836334228516
0.082832905, 227.9635622226, -0.000920001229670589, 1.64875,310.242736816406
0.0834997033333333, 227.971923340498, -0.00100936374107083, 1.6625,310.242736816406
0.0841661616666667, 227.979895797746, -0.000923070075509753, 1.675,306.050323486328
0.0848329066666667, 227.987744996362, -0.000760148258878749, 1.68875,315.700775146484
0.0854996816666667, 227.995055100257, -0.000564298596169435, 1.7,316.525146484375
0.086166315, 228.001200019539, -0.000540788777034493, 1.715,329.747772216797
0.0868330183333333, 228.007061960132, -0.000323590686701668, 1.7275,329.747772216797
0.08749961, 228.013323882157, 0.000255972702415541, 1.74125,333.758331298828
0.0881662316666667, 228.019770282621, 0.00060310026655172, 1.755,334.068664550781
0.0888328816666667, 228.026798051911, 0.000794406657393402, 1.76875,334.189819335938
0.0894995316666667, 228.035000829424, 0.000857976464355628, 1.78125,334.645935058594
0.09016628, 228.043175446546, 0.000790644846373662, 1.795,334.645935058594
0.0908329766666667, 228.051252420866, 0.000629083461410208, 1.80875,333.447906494141
0.0914995816666667, 228.059398653238, 0.000188230105040812, 1.82125,336.099090576172
0.0921662316666667, 228.067234377099, 0.00033800358207867, 1.835,336.652923583984
0.0928328816666667, 228.074928013815, 0.000413452792355091, 1.84875,334.2158203125
0.0934997383333333, 228.082756881542, 8.56097596084906E-05, 1.8625,334.2158203125
0.0941665433333333, 228.090281812247, 9.13910066467234E-06, 1.875,335.646179199219
0.094832915, 228.097776505168, 0.000137165170060228, 1.88875,334.690307617188
0.0954998066666667, 228.10487112424, 7.02535309324288E-05, 1.9025,332.764984130859
0.096166245, 228.112373460601, 6.29398982668977E-05, 1.915,333.226226806641
0.0968329183333333, 228.119526898603, 0.000330742446788507, 1.92875,333.226226806641
0.09749987, 228.12655707297, 0.000492525820563644, 1.94125,334.178466796875
0.0981662216666667, 228.133688331979, 0.000614340701900095, 1.955,332.607971191406
0.09883296, 228.1410099113, 0.000231679922550811, 1.96875,401.328796386719
0.099499485, 228.148278532289, 0.000305501714573394, 1.9825,334.6298828125
0.100166275, 228.155290866802, 0.000399145011006939, 1.99625,334.6298828125
0.10083325, 228.162078488442, 0.000481463876240511, 2.00875,325.150421142578
0.101499518333333, 228.169149528405, 0.000503065791194443, 2.0225,334.235595703125
0.102166281666667, 228.175937628578, 0.000988319917379298, 2.03625,335.549987792969
0.10283285, 228.182585456844, 0.00122668794441666, 2.04875,333.170043945313
0.103499668333333, 228.189871883121, 0.00125225416026979, 2.0625,333.170043945313
0.104166355, 228.197027834179, 0.00117448906631091, 2.075,329.636688232422
0.104832891666667, 228.204597005919, 0.00149267258428522, 2.08875,334.909149169922
0.105499583333333, 228.212696702913, 0.00135689640418028, 2.1025,336.997467041016
0.106166206666667, 228.220726441489, 0.00137512048882547, 2.11625,334.144378662109
0.10683286, 228.228585945458, 0.00141725187263622, 2.12875,334.144378662109
0.107499791666667, 228.236799014542, 0.00135233963307803, 2.1425,334.947204589844
0.108166185, 228.244824443886, 0.00143907127664988, 2.15625,339.573059082031
0.108832878333333, 228.253080510085, 0.00136268761334271, 2.16875,344.275054931641
0.109499681666667, 228.260964765315, 0.00109247318589182, 2.1825,338.600219726563
0.110166411666667, 228.269219309828, 0.000946533516266307, 2.195,338.600219726563
0.110832956666667, 228.277196714924, 0.000911793761211305, 2.20875,340.011169433594
0.11149971, 228.285057733868, 0.000511694857774172, 2.2225,342.748443603516
0.112166216666667, 228.292667181004, 0.000285809203767383, 2.235,337.698150634766
0.112832855, 228.300526449843, 0.000271940900333148, 2.24875,334.114501953125
0.113499596666667, 228.308470431082, 0.000371555396815005, 2.2625,334.114501953125
0.114166388333333, 228.315756681214, 0.000455257192560921, 2.275,337.294982910156
0.114833061666667, 228.323316814746, 0.000635752126476068, 2.2875,331.081207275391
0.115499565, 228.330743716301, 0.00107310915848761, 2.30125,393.6650390625
0.116166173333333, 228.337967860381, 0.00116422508183407, 2.31375,329.921936035156
0.116832995, 228.345226519781, 0.00115586600171069, 2.32875,329.921936035156
0.11749968, 228.352930060329, 0.00125371958660306, 2.34,329.1123046875
0.118166411666667, 228.360480066047, 0.00125391307685108, 2.35375,328.22705078125
0.11883311, 228.368012883096, 0.00104430460527399, 2.3675,319.061157226563
0.119499553333333, 228.376204381072, 0.00125981378049495, 2.38,331.002593994141
0.120166385, 228.383901803152, 0.000719809404348064, 2.39375,331.002593994141
0.120832915, 228.391570622046, 0.000275623215380769, 2.40625,333.430908203125
0.121499641666667, 228.398259620615, 0.000494451723858746, 2.42,333.375061035156
0.12216621, 228.405656649909, 0.000588925978496713, 2.43375,337.948852539063
0.122832985, 228.412455443964, 0.000358174568896845, 2.4475,341.926788330078
0.123499575, 228.419915543888, 0.000699491424874607, 2.45875,341.926788330078
0.124166401666667, 228.427868998477, 0.000946199032996856, 2.4725,337.900817871094
0.124833103333333, 228.436255452447, 0.000825767082172749, 2.48625,341.110229492188
0.125499673333333, 228.443776527851, 0.000827917974128341, 2.5,338.718200683594
0.126166213333333, 228.451920953611, 0.000846515540013703, 2.5125,333.537628173828
0.126833093333333, 228.459875085543, 0.000795426606136396, 2.52625,333.537628173828
0.127499578333333, 228.468435572392, 0.000620389898059885, 2.5375,338.699066162109
0.128166471666667, 228.477962971904, 0.000371511898943548, 2.55125,330.589447021484
0.128832933333333, 228.487659184599, 6.84656206186634E-05, 2.56625,328.686920166016
0.129499536666667, 228.496709879627, -0.000120904367499601, 2.58,328.779449462891
0.130166236666667, 228.505530392931, -6.09583784907609E-05, 2.59375,328.779449462891
0.130833031666667, 228.514124152405, 6.01785369304017E-05, 2.60625,325.981475830078
0.131499548333333, 228.520957992458, -0.000158541976990541, 2.61875,326.432434082031
0.132166286666667, 228.52816275864, -3.49176498809631E-06, 2.6325,399.065856933594
0.132832915, 228.535656527273, 0.000112968385314798, 2.64625,326.722320556641
0.133499573333333, 228.542887405045, 0.000471711365985184, 2.66,326.722320556641
0.134166261666667, 228.5498908832, 0.000491976848083273, 2.6725,321.286468505859
0.134832976666667, 228.557580559939, 0.00045515819746529, 2.68625,327.058166503906
0.135499535, 228.564965758074, 0.000591942326939254, 2.69875,323.188781738281
0.136166421666667, 228.572606347054, 0.000723724207720698, 2.71375,318.466003417969
0.136832888333333, 228.580361414583, 0.0002218524162241, 2.72625,318.466003417969
0.13749956, 228.587648778957, 0.000112738896859846, 2.73875,324.573760986328
0.13816621, 228.595206322622, 0.000248417581878577, 2.7525,325.276275634766
0.138832863333333, 228.602614617109, -0.000168676967904936, 2.76625,323.508697509766
0.139499613333333, 228.609901899396, -0.000374436632846902, 2.78,327.546112060547
0.140166236666667, 228.617251423192, -0.000183275734693591, 2.7925,327.546112060547
0.140832845, 228.625170352966, -0.000128832969297992, 2.80625,321.424011230469
0.141499701666667, 228.632746099225, -0.00012013790604452, 2.82,327.782135009766
0.142166183333333, 228.640913668081, 0.000120424510734877, 2.83375,327.466522216797
0.142832901666667, 228.649243911033, -0.000163350735541312, 2.8475,318.125122070313
0.143500041666667, 228.657855005497, -0.000322111761133786, 2.86,318.125122070313
0.144166578333333, 228.666111277895, -0.000726279960178343, 2.87375,323.011657714844
0.144832875, 228.674979181519, -0.000670443764757068, 2.8875,320.386047363281
0.1454996, 228.683821346335, -0.00082474851420357, 2.9,331.121795654297
0.146166226666667, 228.693248157261, -0.000783751073454217, 2.91375,320.908233642578
0.146832925, 228.702476213103, -0.000624660064450518, 2.9275,320.908233642578
0.14749962, 228.712189289113, -0.000305579591513029, 2.94,319.0625
0.14816621, 228.721884712647, -6.12778625586877E-05, 2.95375,325.307952880859
0.148832846666667, 228.73212582018, 0.000187472642962118, 2.9675,392.069091796875
0.149499546666667, 228.742285615874, 0.00046603865089312, 2.98125,324.802185058594
0.150166816666667, 228.753156549766, 0.00061699856836775, 2.99375,324.802185058594
0.150832981666667, 228.763846901673, 0.00043444873765882, 3.0075,325.344299316406
0.151499605, 228.774319506338, 0.000297123135390263, 3.02,323.697113037109
0.152166251666667, 228.785349249326, 0.000155612743292723, 3.03375,331.417510986328
0.152833091666667, 228.79612838076, 0.000479110494341701, 3.0475,330.832580566406
0.15349951, 228.807122537223, 0.00033747260864863, 3.06,330.832580566406
0.154166415, 228.818609314741, 0.000260292485313292, 3.07375,330.699401855469
0.15483296, 228.830340865597, 0.000236710669806994, 3.0875,334.378753662109
0.155499596666667, 228.841570930081, 0.000160114017192048, 3.1,333.205535888672
0.156166198333333, 228.85285123192, -0.000190386877522174, 3.11375,333.205535888672
0.15683298, 228.864489151277, -0.000370643323435948, 3.12625,338.454071044922
0.157499825, 228.875367971588, -0.000123667228781754, 3.13875,333.8955078125
0.158166241666667, 228.886816104465, -8.5266157620777E-05, 3.1525,338.976257324219
0.15883291, 228.897853517169, -7.87429853070497E-05, 3.16625,325.747344970703
0.159499618333333, 228.90935775643, -0.000346320545189425, 3.18,325.747344970703
0.160166263333333, 228.920057344768, -0.000480259317560311, 3.1925,329.484527587891
