Time (min), Depth (µm), Load (N), Position (µm), Acoustic (aJ)
8.88166666666667E-06, 226.648260838305, -0.000782536245740348, 0,523.11181640625
0.000665978333333333, 226.648530306186, -0.000927419968352167, 0.00500000000000001,522.31884765625
0.001332725, 226.648442796555, -0.00086540408334802, 0.02125,528.118469238281
0.002166025, 226.647816846435, -0.000553773736239266, 0.0349999999999999,540.065734863281
0.00283314166666667, 226.647296098881, -0.000257951095073209, 0.04875,540.065734863281
0.00349928333333333, 226.647252445791, -0.000194451784557936, 0.06375,540.802673339844
0.00416600333333333, 226.648386211602, 0.000201963303907173, 0.0787499999999998,542.650024414063
0.00483307833333333, 226.650830316132, 0.000231058842455027, 0.0924999999999999,535.927307128906
0.00549952333333333, 226.654852542271, 0.000216134592113374, 0.1075,542.476867675781
0.00616593666666667, 226.659762559685, -0.000180404990119714, 0.12,542.476867675781
0.00683312, 226.6654693267, -0.000153620835481107, 0.13375,545.970458984375
0.00749959, 226.670140440714, -0.000548495501307767, 0.1475,540.246887207031
0.008166075, 226.675297176045, -0.000767898480917209, 0.15875,535.465393066406
0.00883326166666667, 226.679880704243, -0.000782659239520161, 0.1725,541.198852539063
0.009500465, 226.685809874529, -0.00031373629300101, 0.1875,541.198852539063
0.0101673333333333, 226.692764777468, -0.000253262330559715, 0.2,535.785827636719
0.0108326416666667, 226.702166179386, -0.000115234763542909, 0.2125,641.824768066406
0.011499625, 226.712123472708, -7.80921291900597E-05, 0.22625,541.445556640625
0.0121675316666667, 226.723449755088, -0.000358126563366901, 0.23875,534.34619140625
0.012833305, 226.734597360354, -0.00060716955418885, 0.2525,534.34619140625
0.01349956, 226.745767130882, -0.000731453311539399, 0.2675,534.60498046875
0.0141658883333333, 226.756599245814, -0.000829938364754316, 0.28,532.999816894531
0.014832665, 226.767968097251, -0.000980179818248499, 0.29625,534.276672363281
0.0156660466666667, 226.779395588768, -0.000962444709065042, 0.31,532.214477539063
0.01633271, 226.790163432897, -0.000959152374426031, 0.32375,534.691955566406
0.0169992983333333, 226.801409747164, -0.0009441711269358, 0.3375,534.691955566406
0.0176659, 226.812360019274, -0.000819308398616814, 0.35,537.336364746094
0.0183326483333333, 226.827962766266, -0.000602365295475051, 0.3675,536.379760742188
0.019165955, 226.838733821957, -0.000699669907950809, 0.38,540.753601074219
0.0198326683333333, 226.849492308975, -0.000685216633914287, 0.39375,540.262573242188
0.0204993733333333, 226.860226060444, -0.00075609107397437, 0.4075,546.795776367188
0.0211659066666667, 226.870763412125, -0.000552434303449599, 0.42,546.795776367188
0.0218330866666667, 226.88140847969, -0.000567466548369541, 0.43375,535.804931640625
0.0224996633333333, 226.892315426422, -0.000642611273928339, 0.44625,538.465698242188
0.0231659666666667, 226.903599103792, -0.000610799371839848, 0.46,543.043701171875
0.0238329516666667, 226.914558450033, -0.00063739753585245, 0.47375,545.463989257813
0.0244994083333333, 226.926074020883, -0.000638035003830106, 0.4875,545.463989257813
0.02516627, 226.937119962738, -0.000629756919624501, 0.5,544.70361328125
0.0258329016666667, 226.948259360109, -0.000511459361608804, 0.51375,545.639953613281
0.0264994633333333, 226.959036479186, -0.000564787682981495, 0.5275,550.019836425781
0.0271659016666667, 226.970214732289, -0.000674822156056874, 0.54,644.43994140625
0.0278327033333333, 226.981003948435, -0.00102454009008382, 0.55375,644.43994140625
0.028499955, 226.992144388277, -0.000846496033026167, 0.56625,536.015563964844
0.02916627, 227.002882673491, -0.000836946012714058, 0.58,538.995361328125
0.0298347066666667, 227.014153466959, -0.000655030650155231, 0.59375,542.118530273438
0.0304992966666667, 227.025025694034, -0.000337673590675897, 0.60625,536.045043945313
0.0311659783333333, 227.036442668616, -9.57882403177774E-05, 0.61875,536.045043945313
0.0318327083333333, 227.047266697916, -0.000125417752080716, 0.6325,531.056274414063
0.0324997033333333, 227.058270082051, -0.000186323692835166, 0.64625,534.53466796875
0.0331660316666667, 227.06904723031, -0.000198102601171835, 0.65875,537.298156738281
0.0338328466666667, 227.079620924776, -0.000195726720513246, 0.6725,534.265625
0.0345001883333333, 227.089261774855, -0.000152149409343954, 0.68625,534.265625
0.0351660016666667, 227.099653299448, -0.000160872971161089, 0.69875,531.341918945313
0.0358331316666667, 227.109491431464, 0.000139911420738601, 0.71125,532.7890625
0.0364994833333333, 227.119488228228, 0.000149546936762949, 0.725,545.665405273438
0.0371660166666667, 227.130072635772, 8.63566107597644E-05, 0.73875,534.350158691406
0.037832625, 227.140914301756, -9.26358633483177E-06, 0.75125,534.350158691406
0.0384996416666667, 227.151737545677, 5.62756216876828E-05, 0.765,536.065551757813
0.0391662716666667, 227.162658681411, -3.49152979001996E-05, 0.7775,534.441589355469
0.03983322, 227.173368584813, -0.000218045599438206, 0.79125,532.442260742188
0.04049935, 227.183496512081, -0.000221400930902155, 0.805,538.829711914063
0.0411660083333333, 227.19361426597, 1.26983105396447E-05, 0.8175,538.829711914063
0.0418333816666667, 227.203662565087, -0.000151856924042811, 0.83125,544.9169921875
0.0424995766666667, 227.214040091564, -0.000260623960763642, 0.84375,536.723205566406
0.0431659816666667, 227.224274443694, -0.000158522589217356, 0.8575,539.924987792969
0.0438333916666667, 227.234847043776, -0.000408546530769068, 0.87,660.824401855469
0.0444994333333333, 227.245385257886, -0.000550095920901093, 0.88375,660.824401855469
0.0451663416666667, 227.255840151746, -0.000518657500010268, 0.8975,565.520080566406
0.0458331766666667, 227.26597405397, -0.000717540010373067, 0.91,571.928588867188
0.0464994983333333, 227.276291466987, -0.000994738087035757, 0.92375,577.55322265625
0.047165955, 227.286653488803, -0.000878672416872173, 0.9375,575.428466796875
0.0478334316666667, 227.297332996298, -0.00123135570191195, 0.95,575.428466796875
0.0484995833333333, 227.307603145904, -0.00107002830519791, 0.96375,570.513916015625
0.0491662833333333, 227.318283675002, -0.000979461354268051, 0.97625,580.232055664063
0.0498328616666667, 227.32825690378, -0.000573061267328873, 0.99,570.548767089844
0.0505000333333333, 227.33852563537, -0.000596266601746191, 1.00375,577.898132324219
0.051165965, 227.348652858494, -0.000466706109473562, 1.0175,577.898132324219
0.0518326166666667, 227.358988603286, -0.000937071983502443, 1.03125,574.212158203125
0.0524995916666667, 227.368913761828, -0.000776991024222561, 1.04375,580.614196777344
0.05316616, 227.379376309601, -0.00130378856370332, 1.0575,573.936828613281
0.0538326883333333, 227.389439854062, -0.00137116067968668, 1.07,574.252563476563
0.0544996683333333, 227.399198665945, -0.00149097166168031, 1.085,574.252563476563
0.055165985, 227.409074148966, -0.000877469477245711, 1.09875,571.723510742188
0.0558333783333333, 227.419001624077, -0.000659230439185738, 1.11,572.360534667969
0.0564995233333333, 227.429142343514, -0.000110997476359812, 1.12375,575.014099121094
0.0571660416666667, 227.438997380047, -0.00026410228609242, 1.1375,566.830200195313
0.0578333683333333, 227.449561407031, -0.000171354444740161, 1.15125,566.830200195313
0.0584993666666667, 227.4598928492, -0.000462824304522816, 1.165,573.665283203125
0.0591661416666667, 227.470268160519, -0.000779723886974141, 1.1775,575.875915527344
0.059832765, 227.480472773809, -0.00134706888981951, 1.19125,574.724365234375
0.060499935, 227.490679865832, -0.00103415160729646, 1.205,682.813171386719
0.0611663416666667, 227.500207630494, -0.000846848515324694, 1.2175,682.813171386719
0.0618329483333333, 227.509776884003, -0.000924730603365773, 1.23125,575.395202636719
0.0625000383333333, 227.520016334508, -0.00121072873799016, 1.245,574.452819824219
0.0631666016666667, 227.529638204413, -0.00124344509468511, 1.25875,572.82373046875
0.063832675, 227.540064857055, -0.00146144864459251, 1.27125,577.295349121094
0.064499485, 227.550606976639, -0.00176790575158427, 1.28375,577.295349121094
0.0651661233333333, 227.560880123113, -0.00176526438428505, 1.2975,583.7158203125
0.0658329883333333, 227.57074533088, -0.00163647335331631, 1.31125,581.188537597656
0.06649999, 227.581151791972, -0.00151303405357482, 1.325,571.896545410156
0.0671659816666667, 227.591114344207, -0.00157710333544835, 1.33875,576.315490722656
0.0678333633333333, 227.601305434854, -0.00151617639577351, 1.3525,576.315490722656
0.0684994833333333, 227.611524261119, -0.00145502446735316, 1.365,572.475524902344
0.0691659916666667, 227.621979782624, -0.00133473950916308, 1.3775,569.045288085938
0.0698333033333333, 227.63189614336, -0.000729327918319918, 1.39125,563.619567871094
0.07050062, 227.641775714738, -0.000833620679801937, 1.405,566.274475097656
0.0711659783333333, 227.651289273721, -0.000542345810234214, 1.41875,566.274475097656
0.0718329133333333, 227.661095852209, -0.000611352844072175, 1.43125,559.436157226563
0.0724993483333333, 227.670259525011, -0.000605903617779959, 1.44375,556.176330566406
0.07316661, 227.67954678349, -0.000942167227614236, 1.4575,560.466186523438
0.0738326666666667, 227.689444862844, -0.000993326657917242, 1.47,556.350646972656
0.07449997, 227.698482912582, -0.00105707945565667, 1.48375,556.350646972656
0.0751661283333333, 227.707388046632, -0.00106403460632606, 1.4975,554.251892089844
0.0758334333333333, 227.71646753984, -0.00140233961361323, 1.51,550.230651855469
0.0764996716666667, 227.725562398922, -0.00153620338976395, 1.52375,546.798645019531
0.077167835, 227.733915059925, -0.00143381253272282, 1.53625,670.488464355469
0.07783313, 227.742825454266, -0.00152533643559199, 1.54875,670.488464355469
0.0785008166666667, 227.751763125117, -0.00152558542306419, 1.5625,550.962097167969
0.0791660716666667, 227.760005964615, -0.00113601299087446, 1.57625,550.6328125
0.0798332116666667, 227.76860135695, -0.00103144274337784, 1.58875,557.337036132813
0.0804995066666667, 227.776601924311, -0.000797388499668137, 1.6025,552.593811035156
0.081166, 227.784632166848, -0.00075393418234242, 1.61625,552.593811035156
0.0818329716666667, 227.792578556074, -0.000751481805539265, 1.62875,557.850463867188
0.0824996533333333, 227.800399276486, -0.00103005681297418, 1.6425,555.890502929688
0.0831661, 227.80781240724, -0.00113540252155732, 1.655,559.706909179688
0.083832985, 227.815484984941, -0.00134677340466956, 1.66875,563.373840332031
0.0845003683333333, 227.822762769671, -0.00166611486445322, 1.6825,563.373840332031
0.085166305, 227.829183487105, -0.00159376149867647, 1.69375,567.373474121094
0.0858328633333333, 227.833858378596, -0.00126867682733254, 1.7075,573.010864257813
0.0864996333333333, 227.839031817923, -0.00102272218138826, 1.7225,595.202087402344
0.0871660033333333, 227.84452168401, -0.000942425214611596, 1.735,600.60107421875
0.0878326316666667, 227.850055876121, -0.000842809218247844, 1.74875,600.60107421875
0.0884995566666667, 227.856050104332, -0.000710232377447657, 1.7625,599.685607910156
0.0891659466666667, 227.864515443292, -0.000984496601467477, 1.775,603.204162597656
0.0898328516666667, 227.872295924317, -0.000859099900018422, 1.78875,599.98779296875
0.0904994616666667, 227.879531554458, -0.000808792426903991, 1.80125,603.318420410156
0.0911663883333333, 227.886770149843, -0.000257306127473537, 1.815,603.318420410156
0.0918327483333333, 227.894121160638, -0.000375890171092765, 1.82875,605.649291992188
0.0924993283333333, 227.901434411107, -0.000499207976957584, 1.84125,602.914367675781
0.0931659833333333, 227.908902083156, -0.000689890399162494, 1.855,727.577453613281
0.0938330733333333, 227.916903823663, -0.00073375119608651, 1.86875,597.211181640625
0.0945004416666667, 227.925135172462, -0.00112216268659683, 1.88125,597.211181640625
0.0951663216666667, 227.933645740694, -0.00122851184481829, 1.895,607.37109375
0.0958326616666667, 227.941611434495, -0.000807419995862469, 1.90875,599.55810546875
0.0964999983333333, 227.949695847631, -0.000556859081310628, 1.9225,595.806640625
0.0971660883333333, 227.958082146616, -0.000516439111499038, 1.935,598.196533203125
0.0978327533333333, 227.966132593398, -0.000385894668626585, 1.94875,598.196533203125
0.098500025, 227.974421192164, -9.72446672108982E-05, 1.9625,595.936218261719
0.099166285, 227.983139305598, -5.07755013032807E-05, 1.975,596.198303222656
0.0998326283333333, 227.991986361029, -0.000307516105459249, 1.98875,593.024475097656
0.10049977, 228.000322964496, -0.000100841486503771, 2.0025,593.476867675781
0.101166353333333, 228.008993270236, -0.00017277637328699, 2.01625,593.476867675781
0.101832811666667, 228.017360729489, -0.000246512669576079, 2.02875,591.059692382813
0.102500016666667, 228.025420021334, -0.000250869950690183, 2.0425,599.358947753906
0.103166008333333, 228.033473306396, -0.000206973155622997, 2.055,603.508178710938
0.103833121666667, 228.041248976576, -0.000321324411896099, 2.06875,599.270812988281
0.104499373333333, 228.049107287702, -0.000152534890021862, 2.0825,599.270812988281
0.105165955, 228.056877436927, -0.000351273407620694, 2.09625,598.705505371094
0.105832866666667, 228.065334158628, -0.000177936114169377, 2.10875,604.159729003906
0.106500008333333, 228.073781835536, -9.34588573794525E-05, 2.1225,598.916015625
0.107179006666667, 228.082816919583, -0.000161165456589757, 2.13625,601.118408203125
0.107833635, 228.091918581652, -0.000517502558134743, 2.15,601.118408203125
0.108499668333333, 228.100484284797, -0.000401675375993785, 2.1625,599.869018554688
0.109165986666667, 228.108959946742, -0.000628462484694457, 2.175,600.978149414063
0.109832723333333, 228.117385011678, -0.000744909135698976, 2.18875,729.509399414063
0.110499688333333, 228.125141740421, -0.000829560383719679, 2.2025,610.667297363281
0.111166025, 228.132855469588, -0.000754276165170125, 2.21625,610.667297363281
0.111832986666667, 228.140994252378, -0.000685765606373404, 2.22875,603.845458984375
0.112500016666667, 228.149162010425, -0.00102361163672942, 2.2425,607.502258300781
0.113165943333333, 228.156949693888, -0.00129463752341, 2.255,598.294738769531
0.11383262, 228.164751734152, -0.0012899652580862, 2.26875,600.014587402344
0.114499451666667, 228.172474584359, -0.000953718147420355, 2.28125,600.014587402344
0.115167473333333, 228.180270480228, -0.000922804700198195, 2.295,597.31982421875
0.115832825, 228.187810585635, -0.000848438435553467, 2.3075,596.994873046875
0.116499626666667, 228.195574894125, -0.000496361120015119, 2.32125,601.931213378906
0.117165946666667, 228.203597888879, -0.000469732957471943, 2.335,594.957336425781
0.117832786666667, 228.211569967982, -0.000810355348365981, 2.3475,594.957336425781
0.118500131666667, 228.219436234375, -0.000679318930182989, 2.36125,597.492004394531
0.119166078333333, 228.227412000305, -0.000733733196993671, 2.37375,600.909484863281
0.11983291, 228.235582387499, -0.000704889645809326, 2.3875,593.713012695313
0.120500041666667, 228.243591316706, -0.000584486193548882, 2.4,602.535278320313
0.12116601, 228.251509085854, -0.00031180588999646, 2.41375,602.535278320313
0.121833435, 228.259170149131, -0.000266688156188718, 2.4275,600.445556640625
0.12249928, 228.267106092872, -0.000208038102140596, 2.44,600.412475585938
0.123166038333333, 228.274702192047, -0.000227796609684113, 2.4525,606.812194824219
0.123832766666667, 228.282103042413, 3.19213449861822E-05, 2.46625,607.698425292969
0.124499681666667, 228.289994347236, 0.000314882132120115, 2.47875,607.698425292969
0.125166085, 228.298197180195, 0.000123400250016982, 2.4925,607.256958007813
0.125832673333333, 228.305973337973, 0.000280302868955008, 2.50625,603.607788085938
0.126499568333333, 228.314107061935, 0.00038650503454244, 2.51875,728.462158203125
0.127166351666667, 228.322088528986, 0.000260683854402248, 2.53125,606.833923339844
0.127832786666667, 228.332112301984, -0.000197576127685037, 2.545,606.833923339844
0.128499555, 228.342238575378, -0.000221535924183464, 2.55875,605.636596679688
0.129165956666667, 228.351851483459, -0.000146085213961386, 2.5725,611.040588378906
0.12983314, 228.361674890234, -0.000380292449981474, 2.58625,597.637084960938
0.130499665, 228.372247230991, -0.000992983175186388, 2.59875,602.411010742188
0.131166015, 228.379861801583, -0.000871814761310249, 2.6125,602.411010742188
0.131833281666667, 228.38743121251, -0.000784936125125626, 2.62625,601.822326660156
0.132499713333333, 228.395425880345, -0.00112758191440098, 2.63875,603.742065429688
0.133166015, 228.402947172548, -0.00101923485657682, 2.6525,593.457397460938
0.133832616666667, 228.41008470441, -0.00087752047471793, 2.66625,590.764343261719
0.134500023333333, 228.417636959529, -0.00119002827777262, 2.68,590.764343261719
0.135166056666667, 228.425118479541, -0.00123961428712156, 2.69375,597.131225585938
0.13583305, 228.432679971076, -0.000963571152461922, 2.70625,596.656005859375
0.136500068333333, 228.439884024764, -0.000708355971679116, 2.71875,598.841003417969
0.137165985, 228.447864530462, -0.000507741048375505, 2.7325,598.143127441406
0.137832623333333, 228.45537078276, -0.00046497069666269, 2.74625,598.143127441406
0.138499733333333, 228.463375040972, -0.000741046829659202, 2.76,601.311584472656
0.139166376666667, 228.47113683778, -0.000837860966812587, 2.77375,591.401733398438
0.139832831666667, 228.479361739398, -0.00117451905680743, 2.78625,599.895629882813
0.140500088333333, 228.487145800256, -0.00118708242577703, 2.8,593.9267578125
0.14116606, 228.495355929341, -0.000905680060331881, 2.81375,593.9267578125
0.1418333, 228.503163577797, -0.000524859688544206, 2.8275,596.283386230469
0.142499338333333, 228.511279673094, -0.000441334883920383, 2.84,600.581665039063
0.143166005, 228.51923934286, -0.000462293331220301, 2.85375,718.078552246094
0.143832885, 228.527152231637, -0.000644091699633165, 2.8675,594.289916992188
0.144499931666667, 228.5348288903, -0.000715792598145714, 2.88125,594.289916992188
0.14516606, 228.542418244239, -0.000559933926762389, 2.89375,590.789733886719
0.145832861666667, 228.550660325504, -0.000893856154156844, 2.9075,597.551940917969
0.146499998333333, 228.558614350354, -0.000908748906086028, 2.92125,595.384582519531
0.147166066666667, 228.566321226863, -0.000729072931065093, 2.93375,599.156127929688
0.147832693333333, 228.57434645529, -0.000717345020136881, 2.9475,599.156127929688
0.148500098333333, 228.58218311118, -0.000900259332539565, 2.96,598.783447265625
0.149166458333333, 228.590188948994, -0.000816928018185016, 2.97375,599.717651367188
0.149832833333333, 228.598456549926, -0.000594037713700376, 2.9875,603.718566894531
0.150499295, 228.607904347236, -0.000678108490913256, 3,600.767883300781
0.151166263333333, 228.617667738971, -0.000994160615927962, 3.01375,600.767883300781
0.15183302, 228.627703875191, -0.00119384408602837, 3.0275,602.185180664063
0.152499616666667, 228.637642565961, -0.00111026828395358, 3.04,604.638549804688
0.153166346666667, 228.648236462466, -0.00141143965641308, 3.05375,612.132446289063
0.153832681666667, 228.657776515608, -0.00132374206137675, 3.0675,605.201782226563
0.154499301666667, 228.668144312055, -0.00106452358166026, 3.08125,605.201782226563
0.155166283333333, 228.678846994412, -0.00117435556491995, 3.09375,611.414611816406
0.155832858333333, 228.689487605091, -0.00140780533898887, 3.1075,610.720703125
0.156499303333333, 228.699488577839, -0.00166276703254752, 3.12,610.073608398438
0.157166281666667, 228.710327070833, -0.00217029204007643, 3.13375,605.926940917969
0.157832916666667, 228.719815802369, -0.00237572472141347, 3.14625,605.926940917969
0.158499291666667, 228.729417719053, -0.00260183386419886, 3.16,613.77880859375
0.159166246666667, 228.738943978969, -0.0024824038630249, 3.1725,601.667785644531
