Time (min), Depth (µm), Load (N), Position (µm), Acoustic (aJ)
7.20833333333333E-06, 227.272571257309, -0.000346153413087799, 0,170.275405883789
0.000666923333333333, 227.271990703934, -0.000439355731640516, 0.00375000000000028,166.29035949707
0.00133288, 227.271316307294, -0.000259115784916431, 0.0150000000000003,163.524475097656
0.00200081666666667, 227.271619119562, -0.000435653917575653, 0.0300000000000005,163.524475097656
0.00266623666666667, 227.271971894984, -0.00104887861591063, 0.0449999999999999,176.961563110352
0.00333270666666667, 227.27271720108, -0.00112703069042932, 0.0600000000000002,181.800201416016
0.00399935, 227.274708603932, -0.00149075642083874, 0.0750000000000004,191.194122314453
0.00466605, 227.276999642003, -0.0016740712130996, 0.0899999999999998,198.3603515625
0.00533266333333333, 227.279561809202, -0.00150303930383867, 0.103750000000001,198.3603515625
0.005999695, 227.283178310427, -0.00145992396949185, 0.11625,206.481704711914
0.00666608166666667, 227.287588544503, -0.00162866399388203, 0.12875,199.92448425293
0.00733296, 227.291946583817, -0.00154666761245892, 0.1425,242.219528198242
0.00799933833333333, 227.298009213377, -0.00164022091338577, 0.155,209.130722045898
0.008666135, 227.304319772581, -0.00193258022853084, 0.168750000000001,209.130722045898
0.00933288666666667, 227.310862286395, -0.00223992229104804, 0.1825,205.001693725586
0.00999934166666667, 227.318464773757, -0.00220023128468772, 0.195,205.888137817383
0.0106660783333333, 227.326508591956, -0.00203181524405366, 0.20875,206.815780639648
0.0113330383333333, 227.335116825869, -0.00188760048781071, 0.2225,204.897598266602
0.0119993733333333, 227.344533429516, -0.00159899398420272, 0.23625,204.897598266602
0.01266678, 227.355102103358, -0.00144975748018624, 0.25,201.570266723633
0.0133328316666667, 227.365745935318, -0.00144586217583085, 0.2625,203.314208984375
0.0139997183333333, 227.37653105378, -0.00136334082078158, 0.27625,205.829116821289
0.0146660416666667, 227.387645556267, -0.00138580369251302, 0.29,212.757568359375
0.015332685, 227.399221167997, -0.00142051494902561, 0.30375,212.757568359375
0.01599965, 227.410109129062, -0.00169209730774482, 0.32,201.106201171875
0.0168330333333333, 227.420747733311, -0.00143504471924921, 0.33375,205.10774230957
0.0174993366666667, 227.431894377893, -0.00177875545502091, 0.34625,161.02702331543
0.0181660716666667, 227.441826287776, -0.00191524409934492, 0.36,205.252395629883
0.0188326383333333, 227.452464425871, -0.00208695397452115, 0.37375,204.4873046875
0.0195000883333333, 227.462407415322, -0.0018120387832253, 0.3875,204.4873046875
0.020166225, 227.472836364984, -0.00198859641488051, 0.4,206.65185546875
0.0208327633333333, 227.482437606284, -0.00185232075986426, 0.41375,169.147979736328
0.0214998233333333, 227.493337733945, -0.00169506415868205, 0.42625,214.482528686523
0.022166015, 227.503624288721, -0.00157185884718998, 0.44,205.432006835938
0.02283442, 227.514341512757, -0.00138670514724941, 0.45375,205.432006835938
0.02349939, 227.524872092979, -0.00120494577687103, 0.4675,214.170059204102
0.024166, 227.536537771885, -0.00130157542325905, 0.48,212.557113647461
0.024832725, 227.546777972135, -0.00119350285160069, 0.49375,210.62174987793
0.025499865, 227.557380976765, -0.00130265686892383, 0.50625,206.549667358398
0.0261663, 227.567929200019, -0.00114873910005839, 0.52,206.549667358398
0.026832955, 227.578604501643, -0.00131612169258732, 0.53375,207.095169067383
0.0274996983333333, 227.589187689257, -0.00138312482708246, 0.54625,210.567626953125
0.0281660166666667, 227.600013592252, -0.0015254256794893, 0.56,212.973999023438
0.0288326966666667, 227.611133976827, -0.00151012944783188, 0.5725,214.76789855957
0.029500115, 227.62213431998, -0.00156134587528346, 0.58625,214.76789855957
0.0301660616666667, 227.63331650083, -0.00161546015714973, 0.6,211.212051391602
0.030832755, 227.644242071421, -0.00142064544251246, 0.6125,202.791763305664
0.0314994166666667, 227.655182309384, -0.00116117497543246, 0.62625,205.608047485352
0.0321659683333333, 227.665582054849, -0.000891724009651607, 0.63875,202.627410888672
0.0328327433333333, 227.676570204973, -0.00088449587271957, 0.655,202.627410888672
0.03349949, 227.687343286548, -0.0006936514586366, 0.66625,205.845962524414
0.0341660766666667, 227.698128644092, -0.000707758250050953, 0.67875,205.725082397461
0.0348343333333333, 227.70936520417, -0.000816762274891261, 0.69125,204.772003173828
0.03549931, 227.720326960159, -0.00103602276168239, 0.705,202.27507019043
0.0361659733333333, 227.731339370504, -0.00110731868056355, 0.71875,202.27507019043
0.0368328216666667, 227.741541773657, -0.00108688370698664, 0.73125,213.364822387695
0.0374997633333333, 227.751925149254, -0.000774762884513008, 0.745,204.146408081055
0.0381660533333333, 227.762437028563, -0.000853214943933595, 0.7575,211.884872436523
0.0388329633333333, 227.773128181742, -0.000666450324928872, 0.77125,206.161483764648
0.039499455, 227.783248937705, -0.000370378696269365, 0.785,206.161483764648
0.0401662066666667, 227.794740382479, -0.000364671482958535, 0.7975,210.930541992188
0.0408326866666667, 227.805786172924, -0.000635548877038175, 0.81,253.321990966797
0.04150011, 227.816989331776, -0.000641914557289561, 0.82375,210.436996459961
0.042166185, 227.828119518841, -0.000683952945744807, 0.83625,213.943054199219
0.04283269, 227.839591662616, -0.000970422056674329, 0.85,213.943054199219
0.0434995816666667, 227.850865357953, -0.000948731646180604, 0.86375,212.334899902344
0.0441662066666667, 227.861815757988, -0.000996025770658792, 0.87625,208.005905151367
0.0448327616666667, 227.872593077024, -0.000826678276800273, 0.89,209.173080444336
0.0454994266666667, 227.883207470635, -0.000884438875549738, 0.90375,206.964859008789
0.046166005, 227.894445879784, -0.000798314701509987, 0.91625,206.964859008789
0.0468332183333333, 227.905154742451, -0.000863094947678182, 0.93,205.858901977539
0.047499365, 227.9162129947, -0.000827495735791335, 0.9425,203.968292236328
0.04816605, 227.927238917094, -0.000803496941194661, 0.95625,207.339157104492
0.0488326783333333, 227.939129429513, -0.000815377844433259, 0.9725,208.086059570313
0.0494993966666667, 227.951934337871, -0.00108904959818627, 0.98375,208.086059570313
0.050166145, 227.964678314721, -0.00127641718686486, 0.9975,203.03662109375
0.0508327783333333, 227.977156708933, -0.00123960453594449, 1.01,201.419250488281
0.051499465, 227.989352750618, -0.00114143146711172, 1.02375,196.516738891602
0.0521660233333333, 228.001237370628, -0.00128744013323853, 1.0375,196.732406616211
0.0528328216666667, 228.011064186538, -0.0011686341007226, 1.05125,196.732406616211
0.0534994083333333, 228.021296402938, -0.000751040076027787, 1.06375,197.398635864258
0.0541661916666667, 228.03158617845, -0.000835079354828198, 1.0775,200.321823120117
0.0548327616666667, 228.042343119268, -0.00131344882683312, 1.09,210.221939086914
0.0554994366666667, 228.052756753055, -0.00133576470593053, 1.105,196.063049316406
0.0561661183333333, 228.063668302108, -0.00132997199690746, 1.1175,196.063049316406
0.0568329466666667, 228.074335948676, -0.00161499968027291, 1.1325,205.738571166992
0.0574996283333333, 228.085654226046, -0.00190825445037175, 1.14375,242.173767089844
0.0581660683333333, 228.096157687626, -0.00182042936171864, 1.1575,201.970184326172
0.0588329083333333, 228.10679649483, -0.00168052238906323, 1.17125,200.503723144531
0.0594995533333333, 228.11705237956, -0.00155047742110208, 1.185,200.503723144531
0.0601660566666667, 228.127906399146, -0.00168643209221101, 1.19875,200.311187744141
0.060832725, 228.138241037946, -0.00140379228894188, 1.21125,200.285369873047
0.06149967, 228.148940256273, -0.00147580817166413, 1.225,201.240173339844
0.0621660983333333, 228.159681766301, -0.00168819750359496, 1.23875,196.009017944336
0.0628327416666667, 228.169797203224, -0.00165535365330449, 1.2525,196.009017944336
0.0634994983333333, 228.179335909414, -0.00164152734783856, 1.26625,201.161285400391
0.0641660383333333, 228.188923413198, -0.00178564610889845, 1.27875,201.663391113281
0.064832785, 228.198462238072, -0.00151545718020492, 1.29125,207.68196105957
0.065499535, 228.207367280359, -0.00136401578693308, 1.305,200.818908691406
0.0661660583333333, 228.217571513431, -0.00156682659996689, 1.31875,200.818908691406
0.066832695, 228.227076260768, -0.00152642762916071, 1.33125,204.908248901367
0.0674996516666667, 228.236792548344, -0.00122302286886094, 1.345,207.307632446289
0.0681661183333333, 228.246245214998, -0.00113051951520766, 1.35875,204.251190185547
0.06883269, 228.256582291969, -0.00148062292987, 1.37125,207.670394897461
0.0694993433333333, 228.266586627978, -0.00150940948394828, 1.385,207.670394897461
0.0701660116666667, 228.276679439934, -0.00172419719538249, 1.3975,212.198745727539
0.0708328433333333, 228.286644495161, -0.00219414909019106, 1.41125,209.059677124023
0.07149938, 228.296915270857, -0.00250480148644011, 1.425,205.928894042969
0.0721660783333333, 228.307011351551, -0.00231667343589778, 1.4375,201.314178466797
0.0728327566666667, 228.316992479663, -0.0024367544043265, 1.45125,201.314178466797
0.0734994, 228.326911827776, -0.00219105774542208, 1.46375,202.157897949219
0.0741660766666667, 228.336857552441, -0.00183601957860161, 1.4775,257.224853515625
0.0748327483333333, 228.346800753192, -0.00168168483064579, 1.49,212.934310913086
0.0754996966666667, 228.356225655749, -0.00167234029999818, 1.50375,209.317337036133
0.0761660983333333, 228.365700100378, -0.00148633764271783, 1.5175,209.317337036133
0.07683275, 228.375562586505, -0.00149983246486939, 1.53,203.661743164063
0.0774994683333333, 228.384902308273, -0.00155483170230361, 1.54375,204.333343505859
0.078166105, 228.394652436141, -0.00168834899589593, 1.55625,206.912521362305
0.078832855, 228.403813901302, -0.00177822748139716, 1.57,206.502593994141
0.07949937, 228.412957793455, -0.00198526958191646, 1.58375,206.502593994141
0.0801660716666667, 228.422285092993, -0.00207327916127117, 1.59625,201.015808105469
0.0808328716666667, 228.431451692208, -0.00230517051363005, 1.60875,200.658798217773
0.0814995333333333, 228.440642990072, -0.00233481052484256, 1.62375,204.365417480469
0.0821661866666667, 228.449967118801, -0.00219509704252019, 1.63625,210.310211181641
0.082833035, 228.459551992551, -0.00255923675214993, 1.65,210.310211181641
0.0834995466666667, 228.468535774448, -0.00270065564883762, 1.6625,207.664978027344
0.0841660683333333, 228.477248333617, -0.00220134272881931, 1.675,202.102523803711
0.0848327416666667, 228.485730267145, -0.00238970776741736, 1.68875,206.524383544922
0.0854993683333333, 228.494467763445, -0.00238711439767779, 1.70125,206.777374267578
0.0861661133333333, 228.502422102253, -0.00171736053871971, 1.715,206.777374267578
0.0868326683333333, 228.511033814784, -0.00165146434862546, 1.72875,202.777755737305
0.0874995383333333, 228.520014420825, -0.00197697799841248, 1.7425,189.342926025391
0.0881660616666667, 228.528072199659, -0.00172011890018614, 1.755,190.290222167969
0.0888327, 228.536102730447, -0.00186484063096241, 1.76875,193.124588012695
0.0895001416666667, 228.544088790958, -0.00200734547308809, 1.7825,193.124588012695
0.0901660983333333, 228.551576923477, -0.00204289968724284, 1.795,227.356002807617
0.09083269, 228.558994842496, -0.00195352817627492, 1.80875,190.114028930664
0.091499465, 228.566150269862, -0.00189316220843317, 1.8225,189.624588012695
0.0921662433333333, 228.573433953805, -0.00142719261359538, 1.835,200.221633911133
0.0928326983333333, 228.580151090888, -0.00150453322884187, 1.84875,200.221633911133
0.093499395, 228.58707628331, -0.00139936151148951, 1.8625,193.923156738281
0.0941660566666667, 228.594038810163, -0.00139203737937441, 1.875,192.066497802734
0.094832775, 228.601251015296, -0.00132771461021297, 1.88875,194.010620117188
0.0954995433333333, 228.608055873506, -0.00173974691426407, 1.9025,188.76383972168
0.0961660333333333, 228.614947048137, -0.00119091548149497, 1.91625,188.76383972168
0.09683291, 228.621645243065, -0.00123093947113658, 1.93,193.282241821289
0.097499405, 228.62839502308, -0.00107188596022171, 1.9425,191.854537963867
0.098166175, 228.63482322838, -0.00100362588884284, 1.95625,192.080825805664
0.098832695, 228.641479303917, -0.000866747264131468, 1.97,197.935256958008
0.0994994116666667, 228.648561784739, -0.00147828904703094, 1.98375,197.935256958008
0.100166033333333, 228.654604970373, -0.00142580668314922, 1.99625,199.303161621094
0.100832815, 228.660633850391, -0.00144054494288612, 2.01,196.609466552734
0.101499471666667, 228.667133479505, -0.00175757051900857, 2.0225,196.559234619141
0.102166031666667, 228.673262336244, -0.00175934642984209, 2.035,193.740280151367
0.102832695, 228.679288741666, -0.00149753008057032, 2.05,193.740280151367
0.103499383333333, 228.685458099697, -0.00129251287839926, 2.0625,201.187911987305
0.104166103333333, 228.69142611142, -0.00130301085106175, 2.07625,200.940704345703
0.104832861666667, 228.697966481647, -0.00123619370721386, 2.08875,195.000732421875
0.105499376666667, 228.703732605424, -0.0011944688030014, 2.10375,196.280792236328
0.106166146666667, 228.709894798031, -0.000990836031267086, 2.11625,196.280792236328
0.106832758333333, 228.716277161754, -0.00114978904724694, 2.13,237.986907958984
0.107499555, 228.722682987386, -0.000996735234965296, 2.1425,197.223739624023
0.108166058333333, 228.728670621926, -0.000840834565698679, 2.15625,188.099166870117
0.108833078333333, 228.735636368954, -0.00109787815469038, 2.17,195.655532836914
0.109499423333333, 228.741805946857, -0.000818200702606527, 2.1825,195.655532836914
0.11016609, 228.749024328051, -0.00080550084049497, 2.195,185.864608764648
0.110832743333333, 228.756309966203, -0.000981993975443348, 2.20875,188.816528320313
0.111499451666667, 228.76473630056, -0.00119744315364567, 2.2225,189.848480224609
0.112166253333333, 228.773049188787, -0.00134435327450887, 2.235,186.047332763672
0.112832688333333, 228.782198469941, -0.00207729445964258, 2.24875,186.047332763672
0.113499413333333, 228.791301268625, -0.00243703489027493, 2.2625,189.522079467773
0.114166016666667, 228.800419307007, -0.00264257406620209, 2.275,185.105911254883
0.114832723333333, 228.808772417315, -0.00248565194822557, 2.28875,183.187637329102
0.1154997, 228.817171044417, -0.00213629999581679, 2.30125,181.66487121582
0.116166155, 228.825440818299, -0.00200341117067696, 2.315,181.66487121582
0.116832831666667, 228.833507768593, -0.00158358675799067, 2.32875,185.848190307617
0.11749933, 228.84188567695, -0.00165414921373237, 2.34,184.841766357422
0.118166106666667, 228.850085387699, -0.00154847802153247, 2.35375,184.192153930664
0.118832931666667, 228.858459332354, -0.00152379376137723, 2.3675,182.346038818359
0.119499333333333, 228.867007557469, -0.00130596720257067, 2.38125,182.346038818359
0.120166056666667, 228.875446544745, -0.00134079995295992, 2.39375,185.169692993164
0.120832931666667, 228.883942400395, -0.00108941107996745, 2.40625,181.6259765625
0.121499325, 228.892353660069, -0.00116295388598727, 2.42,194.213516235352
0.122166176666667, 228.900911501548, -0.000864273888386668, 2.43375,184.947525024414
0.122832895, 228.909190597851, -0.000929322621044301, 2.44625,184.947525024414
0.123499415, 228.918038333463, -0.000775578843430888, 2.46,224.902252197266
0.124166011666667, 228.926832357396, -0.000648236739690743, 2.4725,186.601898193359
0.12483272, 228.935311450389, -0.000757450753990016, 2.48625,192.834564208984
0.12549946, 228.944201287239, -0.0012212229591732, 2.49875,189.57682800293
0.126166075, 228.952396943437, -0.00125177792442047, 2.5125,189.57682800293
0.126832768333333, 228.960379698183, -0.00142157989547945, 2.52625,186.6923828125
0.127499461666667, 228.967613883642, -0.0010934893751213, 2.53875,183.716186523438
0.128166018333333, 228.975518319681, -0.000907678708164569, 2.5525,188.505661010742
0.128832731666667, 228.983183867927, -0.000846648273642141, 2.565,196.846832275391
0.129499916666667, 228.99174090033, -0.00085623129229112, 2.57875,196.846832275391
0.130166083333333, 229.000278175358, -0.000925557810090738, 2.5925,191.003814697266
0.130832836666667, 229.0097105091, -0.00125182292213132, 2.605,188.512817382813
0.131499666666667, 229.01873767365, -0.00128326584279535, 2.61875,188.550842285156
0.13216602, 229.028026766246, -0.00131132943322624, 2.6325,186.875595092773
0.132833545, 229.037331604115, -0.00132534922900395, 2.64625,186.875595092773
0.13349941, 229.046732435293, -0.00141763209376994, 2.66,186.539855957031
0.134166001666667, 229.056350172462, -0.00153618163919166, 2.6725,190.79150390625
0.134832875, 229.066007394748, -0.00159585614177724, 2.68625,190.184448242188
0.135499548333333, 229.075489106209, -0.00130994650271389, 2.7,186.960662841797
0.136166263333333, 229.084781148086, -0.00127715214997124, 2.7125,186.960662841797
0.136832736666667, 229.093773876062, -0.00106439083674589, 2.725,183.269592285156
0.137499915, 229.102356412177, -0.00103179447400321, 2.73875,189.393280029297
0.138166128333333, 229.111139372632, -0.000714443414221486, 2.7525,188.670333862305
0.138832755, 229.120141477578, -0.00102126800273455, 2.76625,182.050338745117
0.139500011666667, 229.129599816213, -0.00111026003276468, 2.78,182.050338745117
0.140166061666667, 229.138476426896, -0.000958778141555207, 2.79375,211.747100830078
0.140832751666667, 229.147969235154, -0.0011366602067348, 2.80625,192.105895996094
0.141499445, 229.157893242631, -0.00162370524301846, 2.82,187.921173095703
0.142166206666667, 229.166957376588, -0.00162277228989086, 2.83375,179.731460571289
0.142833026666667, 229.175981493368, -0.00133455126691826, 2.8475,179.731460571289
0.14349937, 229.185591854295, -0.00174622508897322, 2.86125,183.508178710938
0.144166061666667, 229.194173189066, -0.00152603314900014, 2.87375,180.442306518555
0.144832805, 229.202935313055, -0.00136242286691926, 2.88625,184.296478271484
0.14549937, 229.212058245805, -0.00126996001120362, 2.9,183.38037109375
0.146166175, 229.221267297913, -0.0013716054056463, 2.91375,183.38037109375
0.146833471666667, 229.230470739746, -0.0013373186278461, 2.9275,184.748596191406
0.147499391666667, 229.239891860728, -0.00133406529122032, 2.94,185.490997314453
0.148166068333333, 229.249415361402, -0.00154795304788506, 2.95375,182.141143798828
0.148832668333333, 229.258761666562, -0.00130094995461286, 2.9675,179.565338134766
0.149499408333333, 229.267909914777, -0.00112446881908096, 2.98,179.565338134766
0.150166098333333, 229.277713630299, -0.00100454684261772, 2.99375,187.264236450195
0.150832851666667, 229.287199015241, -0.00124711165885804, 3.00625,185.540496826172
0.15149966, 229.296356470538, -0.00098483183292441, 3.02,193.276947021484
0.15216601, 229.306146878506, -0.00131218139045732, 3.03375,189.528625488281
0.15283268, 229.316003204358, -0.0016051781735588, 3.04625,189.528625488281
0.15349952, 229.325802686603, -0.00181289224029577, 3.06,186.612030029297
0.154166233333333, 229.335778127617, -0.00170201030980502, 3.0725,182.733032226563
0.154832746666667, 229.34560335289, -0.00144318181045464, 3.08625,186.471313476563
0.155499386666667, 229.355136611553, -0.00108152597606177, 3.1,191.429885864258
0.15616607, 229.364568979983, -0.000960938033099726, 3.11375,191.429885864258
0.156832985, 229.373835721918, -0.000512742545479884, 3.12625,230.220336914063
0.15749936, 229.383322405063, -0.000205547475575457, 3.13875,192.139602661133
0.158166256666667, 229.392716341111, -0.000372735077931965, 3.1525,185.580261230469
0.158832875, 229.402265805851, -0.00034471048557807, 3.16625,193.621887207031
0.159499435, 229.4116680874, -0.00033852029650312, 3.17875,193.621887207031
0.160166255, 229.421069826296, -0.000517618800586293, 3.1925,189.487152099609
