Time (min), Depth (µm), Load (N), Position (µm), Acoustic (aJ)
8.36333333333333E-06, 227.456945675782, -0.000116722915736214, 0,333.43017578125
0.000666351666666667, 227.457165765566, -0.000261272155142344, 0.0049999999999998,333.43017578125
0.00133435, 227.456843285621, -0.000150759206097309, 0.0162499999999998,275.237548828125
0.00199939166666667, 227.457335333062, -0.00034935523081407, 0.0300000000000005,281.364868164063
0.00266574666666667, 227.458112992519, -0.000455321908248937, 0.0462500000000003,287.291900634766
0.003332635, 227.459915081233, -0.000585026393328041, 0.0600000000000002,292.148040771484
0.00399902166666667, 227.462440196563, -0.000249451248922384, 0.0750000000000004,292.148040771484
0.00466627333333333, 227.466772920256, -0.000247048369603283, 0.0899999999999998,301.977966308594
0.005333645, 227.472083573581, -0.000140904701088831, 0.103750000000001,300.669067382813
0.00599931166666667, 227.478030144746, -0.000132340131279697, 0.11625,306.472686767578
0.006665675, 227.485076112404, 6.20771033482025E-05, 0.13,317.534271240234
0.00733246666666667, 227.491820163909, 3.33940440962605E-05, 0.14375,317.534271240234
0.00799929666666667, 227.498596017411, 6.88207646342251E-05, 0.15625,313.537963867188
0.00866692833333333, 227.504678656705, 0.000276861814954866, 0.17,309.076019287109
0.009332555, 227.510531748413, 0.000242554038191764, 0.18375,318.778442382813
0.00999895333333333, 227.516015390137, 6.12176465163571E-05, 0.19625,318.017456054688
0.01066579, 227.521646804908, 2.54444433562235E-05, 0.21,318.017456054688
0.0113323883333333, 227.527202673492, -0.000107175895272912, 0.2225,316.448150634766
0.0119990666666667, 227.533118433671, -0.000607088785180044, 0.23625,324.193664550781
0.0126656833333333, 227.538830963626, -0.000487924270646723, 0.25,315.433197021484
0.0133324233333333, 227.544698785708, -0.000625416364545295, 0.26375,322.396667480469
0.01399904, 227.551329886598, -0.000879161619200367, 0.27625,322.396667480469
0.0146657916666667, 227.558074067342, -0.000934010864130503, 0.29,319.892974853516
0.01533261, 227.566079925378, -0.000882572447824728, 0.30375,322.519165039063
0.0159990583333333, 227.575391750434, -0.00109749065272454, 0.3175,319.100341796875
0.0166657816666667, 227.585218822588, -0.00105203393595915, 0.33,377.898345947266
0.017332375, 227.595397890216, -0.00134703611830659, 0.34375,377.898345947266
0.0179990483333333, 227.605793659693, -0.00119106045281981, 0.3575,327.764587402344
0.0186658033333333, 227.615967946723, -0.00111545675032986, 0.370000000000001,319.871002197266
0.0193324516666667, 227.626363171949, -0.00115840259324036, 0.38375,320.833343505859
0.01999929, 227.637304035847, -0.00128590818876171, 0.3975,322.634643554688
0.0206660333333333, 227.648113552231, -0.000742689474044789, 0.41,322.634643554688
0.02133243, 227.659261145383, -0.000802954946972777, 0.423750000000001,319.450775146484
0.0219990333333333, 227.670207181827, -0.000721716027522092, 0.4375,326.379638671875
0.0226658916666667, 227.681521532091, -0.000617666253814654, 0.45,318.174682617188
0.023332385, 227.692157367311, -0.00056910769280947, 0.46375,315.849517822266
0.0239989983333333, 227.703328064319, -0.00053195455894329, 0.4775,315.849517822266
0.02466574, 227.714821445268, -0.000795869302816541, 0.49,314.570678710938
0.025333845, 227.726628557471, -0.000850742546579637, 0.50375,317.572967529297
0.025999035, 227.738216765356, -0.000751144549287469, 0.5175,316.122894287109
0.0266656916666667, 227.749938768491, -0.000611915542632367, 0.53,314.613220214844
0.0273324466666667, 227.761613627826, -0.000559476676558332, 0.54375,314.613220214844
0.0279994066666667, 227.7727308915, -0.000217801338541921, 0.55625,311.659851074219
0.0286658816666667, 227.783762894758, -0.000107895858965222, 0.57,306.728576660156
0.0293324783333333, 227.795059002286, -2.94018016188348E-05, 0.58375,310.496459960938
0.0299993033333333, 227.806340653502, 7.58059138766969E-05, 0.59625,305.146850585938
0.0306659416666667, 227.817485876104, 0.000113710509953925, 0.61,305.146850585938
0.0313325016666667, 227.829049825783, -4.79543697720997E-05, 0.62375,313.661773681641
0.0319997233333333, 227.840902884172, -5.28486239288398E-05, 0.63625,310.745880126953
0.03266607, 227.852114301752, -0.00020824081875899, 0.65,306.569915771484
0.033332485, 227.863271354844, -2.16996885116059E-05, 0.6625,363.845184326172
0.03399934, 227.874178075551, -2.10937189464192E-05, 0.675,363.845184326172
0.0346658283333333, 227.885395056499, -8.9371789439381E-05, 0.68875,313.325378417969
0.0353325183333333, 227.895806042123, -0.000187528359124968, 0.7025,313.712829589844
0.0360005383333333, 227.906359763979, -4.02457634678781E-06, 0.715,309.447143554688
0.0366658116666667, 227.917093132106, -0.000372656560350688, 0.72875,314.117248535156
0.0373324583333333, 227.927671912039, -0.000290774173267244, 0.74125,314.117248535156
0.0379990166666667, 227.938222612413, -0.000419566704139134, 0.755,310.57470703125
0.0386658733333333, 227.948941226355, -0.000314433984863765, 0.76875,314.755096435547
0.0393330566666667, 227.959467166603, -0.000468791231643126, 0.78125,322.181579589844
0.03999937, 227.970388653789, -0.000559043198405791, 0.79375,312.766357421875
0.0406661383333333, 227.981556648642, -0.00115358633511008, 0.8075,312.766357421875
0.0413323916666667, 227.992334773857, -0.00101172496068093, 0.82,323.329864501953
0.0419990616666667, 228.0039853053, -0.00131601467654865, 0.835,320.715667724609
0.0426667883333333, 228.01570497294, -0.00161001040947273, 0.8475,325.054534912109
0.0433324366666667, 228.02731553968, -0.0015326037975525, 0.86,327.841613769531
0.0439990166666667, 228.039121028815, -0.00137486572053057, 0.87375,327.841613769531
0.0446658333333333, 228.051231507469, -0.00153418621801048, 0.8875,323.796813964844
0.045332585, 228.062549227126, -0.00135532620192868, 0.9,323.865875244141
0.0459991, 228.074242404039, -0.0011503269988292, 0.91375,315.372650146484
0.0466657416666667, 228.086056207451, -0.0011906884715253, 0.92625,317.549560546875
0.0473329816666667, 228.097590454608, -0.000991964953234259, 0.94,317.549560546875
0.04799901, 228.10909870075, -0.000760904559143558, 0.95375,316.150329589844
0.04866586, 228.120545079476, -0.000321594625197656, 0.97,312.191436767578
0.0493330283333333, 228.133503239748, -0.000407781796126106, 0.98125,318.032257080078
0.0499990066666667, 228.145365876841, -0.000140190736924102, 0.99375,377.119232177734
0.050665695, 228.157413032375, -0.000269433245201986, 1.0075,377.119232177734
0.0513325983333333, 228.169184437225, -0.000262655085675943, 1.02125,309.190216064453
0.05199931, 228.18119066662, -0.000534391936651191, 1.035,318.210968017578
0.0526669, 228.190838795508, -0.000224966478734038, 1.0475,312.110168457031
0.0533330583333333, 228.201591788252, -0.000323925508124146, 1.06125,315.625671386719
0.05399907, 228.21199586146, -8.59384619489714E-05, 1.075,315.625671386719
0.0546659916666667, 228.222311540717, -3.95667911488197E-05, 1.0875,314.451507568359
0.0553325533333333, 228.232638921575, -0.000269727230427533, 1.10125,317.750732421875
0.0559993216666667, 228.243376242091, -0.000557313785250023, 1.115,316.744934082031
0.0566666416666667, 228.253943824255, -0.000482892023402375, 1.1275,313.543304443359
0.0573324, 228.264678587015, -0.000646458807611796, 1.14125,313.543304443359
0.0579991116666667, 228.275430720615, -0.000749836615037796, 1.155,313.847808837891
0.058665875, 228.286106902224, -0.000627526758520745, 1.16875,312.383239746094
0.059332685, 228.296547432763, -0.000451939578081967, 1.1825,321.165771484375
0.0599993233333333, 228.307024038346, -0.000559863657139389, 1.195,314.368682861328
0.0606658783333333, 228.317044283585, -0.000583854952071539, 1.20875,314.368682861328
0.0613326566666667, 228.327046704956, -0.000861497006421356, 1.2225,318.043365478516
0.0619992833333333, 228.336502369686, -0.000941826971534888, 1.235,321.409332275391
0.0626662583333333, 228.346425840804, -0.000955953262008991, 1.25,316.952178955078
0.0633324583333333, 228.355219181183, -0.000834418866557203, 1.2625,324.803588867188
0.0639996083333333, 228.36503544067, -0.00066461239574627, 1.275,324.803588867188
0.0646662183333333, 228.373908791973, -0.000416271369630062, 1.28875,317.995361328125
0.06533248, 228.383358248386, -0.000393229526993953, 1.3025,321.55712890625
0.0659992133333333, 228.391609744899, -0.000369445221671961, 1.315,315.190826416016
0.066666425, 228.400928904076, -0.000642977482434212, 1.32875,380.101837158203
0.0673325133333333, 228.408602116017, -0.000523380989630244, 1.3425,380.101837158203
0.0679992383333333, 228.417308282066, -0.000715903819396763, 1.355,313.668426513672
0.0686659066666667, 228.424641561747, -0.000443674993174738, 1.36875,314.263977050781
0.069333155, 228.43288747363, -0.0006748058837549, 1.3825,315.172668457031
0.069999175, 228.439923848004, -0.00038281854994685, 1.395,316.714385986328
0.0706659333333333, 228.447306711276, -0.000488035265052564, 1.40875,316.714385986328
0.0713327283333333, 228.454107506357, -0.000426698845909363, 1.4225,315.905975341797
0.0719997433333333, 228.461373967225, -0.000756979256257593, 1.435,314.858215332031
0.07266601, 228.467741384381, -0.000701650035390891, 1.44875,322.207550048828
0.0733343333333333, 228.473953173504, -0.000936802223912556, 1.46125,325.49853515625
0.073999575, 228.480399493676, -0.00102454481665973, 1.475,325.49853515625
0.0746657933333333, 228.486981944496, -0.00116580172149061, 1.4875,316.5986328125
0.0753326316666667, 228.493291651293, -0.00112788962577011, 1.50125,319.407012939453
0.07599942, 228.499152868889, -0.00108195143320751, 1.51375,316.782531738281
0.0766664283333333, 228.505578815331, -0.000952218449586002, 1.5275,319.599243164063
0.0773327, 228.511825249647, -0.000847237222717871, 1.54,319.599243164063
0.077999445, 228.518020080064, -0.000762052001482083, 1.55375,316.027679443359
0.0786659066666667, 228.524531396286, -0.000735659327155236, 1.5675,320.277770996094
0.0793326883333333, 228.531625950471, -0.000769322136297412, 1.58125,313.420989990234
0.0799997216666667, 228.538748303621, -0.000956307244231922, 1.5925,314.631805419922
0.0806658133333333, 228.545726383009, -0.000785062345663216, 1.60625,314.631805419922
0.0813332316666667, 228.552343583484, -0.000558756712759752, 1.62,316.534606933594
0.08199913, 228.558825076588, -0.000109835261622462, 1.6325,318.929595947266
0.082665835, 228.565530421424, -4.3790578969779E-05, 1.64625,375.269470214844
0.0833334916666667, 228.571866572768, 6.76103254920174E-05, 1.66,323.300720214844
0.0839995166666667, 228.578045625798, -5.03482496085435E-05, 1.6725,323.300720214844
0.0846658166666667, 228.58440022337, 5.36795181796181E-06, 1.68625,322.117462158203
0.0853327416666667, 228.59046875022, 4.1921115795314E-05, 1.69875,318.567901611328
0.08599941, 228.597026198607, 3.22945993173856E-05, 1.7125,310.22705078125
0.08666664, 228.603871737814, 6.57189204369354E-05, 1.725,299.941619873047
0.0873339483333333, 228.610836454558, -0.00022661639583267, 1.73875,299.941619873047
0.087999105, 228.616973975228, -2.99087762159147E-05, 1.7525,301.893432617188
0.0886659316666667, 228.623996153352, -0.000128672815391092, 1.76625,306.270843505859
0.0893345066666667, 228.630100435528, 0.000125882398569264, 1.77875,301.182830810547
0.0899994466666667, 228.636840615073, 4.4674977552302E-05, 1.7925,295.554748535156
0.0906668366666667, 228.643515200556, 0.000358619708419111, 1.80625,295.554748535156
0.0913325116666667, 228.651789680242, -0.000173559560776969, 1.81875,304.407745361328
0.0919991166666667, 228.658993402455, -0.000337540324206706, 1.8325,306.746063232422
0.0926658316666667, 228.666697938557, -0.000436025377421623, 1.84625,295.903198242188
0.0933326966666667, 228.673971301209, -0.000479709183266055, 1.85875,306.021881103516
0.0939991416666667, 228.682153533414, -0.000649092675331507, 1.8725,306.021881103516
0.0946659866666667, 228.689130601691, -0.000585492869881216, 1.88625,300.728942871094
0.0953325666666667, 228.697118254415, -0.000724579383718009, 1.9,302.709625244141
0.0959994366666667, 228.704912082304, -0.000954310844553629, 1.91375,301.637725830078
0.096666525, 228.712529859468, -0.000821095035851383, 1.925,307.158477783203
0.0973330483333333, 228.719429058441, -0.000738239197596429, 1.93875,307.158477783203
0.09799915, 228.727153434413, -0.000888995125288454, 1.95375,308.309783935547
0.098665845, 228.734851937645, -0.0010055677699641, 1.96625,313.742889404297
0.0993325, 228.742148564559, -0.000787433726548594, 1.98,360.169006347656
0.09999959, 228.749488903494, -0.000808626162076675, 1.9925,302.604736328125
0.100666856666667, 228.757055405797, -0.000736008809541195, 2.00625,302.604736328125
0.101332476666667, 228.764645344649, -0.0007269177661815, 2.02,309.772003173828
0.101999406666667, 228.771397335702, -0.000500865620565949, 2.0325,306.068786621094
0.102665913333333, 228.778524058468, -0.00041473244693727, 2.04625,307.057891845703
0.103332491666667, 228.785168293657, -0.00037111013803588, 2.06,297.177612304688
0.103999238333333, 228.791845166095, -0.000281585634757575, 2.0725,297.177612304688
0.104665935, 228.798306427927, -0.000119257788317785, 2.08625,305.347595214844
0.105332553333333, 228.805218157003, -0.000398995237377764, 2.1,300.572540283203
0.105999431666667, 228.811965721036, -0.000586121338227435, 2.1125,299.978179931641
0.106665815, 228.819285640502, -0.000868500154650396, 2.12625,296.870147705078
0.107332595, 228.825885937288, -0.0010852512674898, 2.14,296.870147705078
0.107999168333333, 228.832644272043, -0.000981361985736015, 2.15375,293.107391357422
0.108665821666667, 228.838499683514, -0.00045593387742672, 2.16625,298.562927246094
0.109332546666667, 228.845150146076, -0.000314390487013563, 2.18,291.246246337891
0.10999914, 228.851658603694, 0.000126377373686102, 2.1925,296.842376708984
0.110665856666667, 228.859114537258, 0.000352786501394644, 2.20625,296.842376708984
0.111332553333333, 228.865939307759, 0.000289384686029346, 2.22,290.501647949219
0.111999175, 228.873437002952, 0.000341762055160338, 2.2325,296.969665527344
0.112665801666667, 228.880225723809, 0.000267656777404286, 2.24625,291.072448730469
0.113332546666667, 228.887108034456, 0.000115037943284604, 2.25875,290.892883300781
0.113999225, 228.893356014157, -7.17776731498306E-05, 2.2725,290.892883300781
0.114665813333333, 228.900447114214, 2.55869363020577E-05, 2.285,285.300628662109
0.115333086666667, 228.906504524627, 0.000190325161704219, 2.29875,290.023986816406
0.115999151666667, 228.912912039294, 0.000331934548791119, 2.31125,350.467498779297
0.11666595, 228.91900453044, 0.00049907415354547, 2.325,291.925964355469
0.117333133333333, 228.925279337744, 0.000792703904808882, 2.33875,291.925964355469
0.117999488333333, 228.931393006128, 0.00071725469457497, 2.35125,288.391571044922
0.118665811666667, 228.938481300945, 0.000505555328018414, 2.36375,289.446258544922
0.119332571666667, 228.944963697399, 0.000252347046384725, 2.37875,283.093841552734
0.119999413333333, 228.951281022321, 0.000172609551495496, 2.39,293.084075927734
0.120666018333333, 228.957771048813, -5.97752760770763E-05, 2.40375,293.084075927734
0.121333316666667, 228.963452278664, 0.000150913141282905, 2.4175,285.002655029297
0.121999185, 228.968914357119, 0.000210641641210764, 2.43,292.581848144531
0.122667796666667, 228.974439751516, 0.000378697699945538, 2.44375,286.953369140625
0.12333249, 228.980187609988, 0.000348865698388159, 2.45625,290.087738037109
0.12399939, 228.985506488435, 0.000336729807937245, 2.47,290.087738037109
0.124665818333333, 228.990947525121, -0.000145054992529015, 2.48375,291.754272460938
0.125332518333333, 228.996477785787, -6.28346290192198E-06, 2.49625,289.662994384766
0.125999231666667, 229.001546691107, 2.74528425785219E-05, 2.51,294.353332519531
0.126665851666667, 229.006567525419, 0.000311783060947678, 2.5225,290.953308105469
0.12733273, 229.011934411426, 0.000649461099749276, 2.53625,290.953308105469
0.127999186666667, 229.017740172209, 0.00109555069312437, 2.55,289.092376708984
0.128665946666667, 229.023969103221, 0.000887868124778618, 2.56375,293.566619873047
0.129332755, 229.031129484733, 0.000597098729819808, 2.57625,290.642791748047
0.129999085, 229.038207945685, 0.000453969919036104, 2.58875,296.610076904297
0.130666316666667, 229.046024911374, 0.000402673995548639, 2.6025,296.610076904297
0.13133386, 229.054632532041, 0.000188928731765974, 2.61625,294.904022216797
0.13199913, 229.06358511795, 0.000287274291926372, 2.62875,290.415740966797
0.132666188333333, 229.07281214154, 0.000430929576260636, 2.64375,354.714080810547
0.133332575, 229.082927900373, 0.00040115607173373, 2.655,293.112518310547
0.133999466666667, 229.093406659863, 0.000370571107998392, 2.67,293.112518310547
0.134666151666667, 229.103671033008, 0.000565828300462148, 2.68375,291.732208251953
0.13533254, 229.114088494105, 0.000576635257636727, 2.69625,288.343475341797
0.135999441666667, 229.12518998115, 0.000979666513813582, 2.71,287.626678466797
0.136665853333333, 229.136080668459, 0.000730209543771317, 2.72375,288.385406494141
0.137332491666667, 229.147166287777, 0.000613915885098438, 2.73625,288.385406494141
0.137999805, 229.158569482634, 0.000554718358494348, 2.75,288.950561523438
0.138666113333333, 229.170105553954, 0.000621048026868667, 2.76375,289.800598144531
0.139334378333333, 229.181311744499, 0.000358501214348745, 2.77625,286.358032226563
0.139999433333333, 229.192612738052, 0.000748564121903352, 2.79,286.264190673828
0.140665821666667, 229.203540374045, 0.000912979863452542, 2.80375,286.264190673828
0.14133317, 229.214981587068, 0.000862009423666854, 2.8175,285.021759033203
0.141999328333333, 229.226468661386, 0.000496125301637313, 2.83,286.575042724609
0.142665911666667, 229.238047418102, 0.000259852669352619, 2.845,291.939544677734
0.143332495, 229.249615243042, -1.5566496627742E-05, 2.85625,292.472991943359
0.14399908, 229.261381736568, -0.000212926583466185, 2.87,292.472991943359
0.144665973333333, 229.27254157553, -0.000483472494210198, 2.88375,289.444244384766
0.145334376666667, 229.28361059616, -0.000257433847914276, 2.8975,285.279907226563
0.145999108333333, 229.294716469924, -0.000253757532585522, 2.91,288.929870605469
0.146665793333333, 229.305851363728, -0.000139154288991418, 2.92375,289.894378662109
0.147332531666667, 229.316676690208, -0.000125605469561348, 2.9375,289.894378662109
0.14799968, 229.327602780584, -3.93583016992751E-05, 2.95,290.876922607422
0.148666011666667, 229.338642968515, -0.000381051638787271, 2.96375,292.644348144531
0.14933256, 229.349556123441, -0.000333687017840876, 2.9775,349.823669433594
0.149999093333333, 229.360641666015, -0.000312530580519728, 2.99,291.4921875
0.150665891666667, 229.371388366748, -0.000188716299528652, 3.00375,291.4921875
0.151332741666667, 229.381914723449, 0.000112860052625991, 3.0175,299.102783203125
0.151999795, 229.392327594339, 0.000270844117228799, 3.03125,288.103546142578
0.152665956666667, 229.40279840501, 0.000217193312024391, 3.04375,298.068115234375
0.153332523333333, 229.41303330828, 0.000474535386014844, 3.05625,298.526306152344
0.153999306666667, 229.423695351711, 0.000349179182524678, 3.07,298.526306152344
0.15466592, 229.434443428759, 0.000186867835253324, 3.08375,299.881011962891
0.155333128333333, 229.445388046874, 0.000368421715988458, 3.0975,291.667999267578
0.156000573333333, 229.456067827654, 0.000474784373487039, 3.11,303.137237548828
0.156665818333333, 229.467144692996, 0.000140416668396037, 3.12375,297.750610351563
0.157332611666667, 229.477699722046, 0.000443845427507515, 3.13625,297.750610351563
0.157999108333333, 229.488466235153, 0.000385132376613202, 3.15,290.930145263672
0.158666451666667, 229.499024012712, 0.000243936968725363, 3.16375,297.330657958984
