Time (min), Depth (µm), Load (N), Position (µm), Acoustic (aJ)
8.645E-06, 226.575598109286, -0.000141300416156195, 0,229.164474487305
0.000666765, 226.575708952264, -1.26668772710498E-05, 0.00500000000000001,226.509140014648
0.00133257833333333, 226.575318678993, -1.39883108828609E-05, 0.0174999999999999,226.375793457031
0.00199943333333333, 226.575370997143, -0.000141121925109699, 0.0325,227.978775024414
0.002665905, 226.57514170075, -0.000339800445711147, 0.0462499999999998,227.978775024414
0.00333287833333333, 226.575461439285, -0.000534406670835111, 0.0599999999999999,236.932586669922
0.003999255, 226.576125275046, -0.000604360157162815, 0.0762499999999999,234.139266967773
0.00466629833333333, 226.578512120778, -0.000874204103158578, 0.0899999999999999,280.292114257813
0.005332665, 226.581032336268, -0.000812032225973983, 0.10375,230.046752929688
0.00599922833333333, 226.585202186644, -0.000876996962865034, 0.1175,230.046752929688
0.00666616166666667, 226.589952646226, -0.000969875297682885, 0.13,234.353805541992
0.00733258833333333, 226.595187385897, -0.00118419803248833, 0.1425,234.093658447266
0.00799932, 226.59960814112, -0.00123768984566348, 0.15625,234.473510742188
0.00866589833333333, 226.605834200035, -0.00170712126659785, 0.17,232.903686523438
0.00933266, 226.613257433871, -0.00212576373862057, 0.18375,232.903686523438
0.0100009416666667, 226.621127036529, -0.00211330836422925, 0.19625,231.951080322266
0.0106659016666667, 226.630518615792, -0.00207474530119022, 0.21,224.188659667969
0.011332665, 226.641150695084, -0.00212252090146561, 0.2225,227.288665771484
0.0119992233333333, 226.65178409455, -0.00189509032511093, 0.2375,232.809509277344
0.0126662683333333, 226.662193013553, -0.00159549537345431, 0.25,232.809509277344
0.0133332833333333, 226.673702685633, -0.00164101958681784, 0.26375,230.897933959961
0.01399927, 226.684810434164, -0.00141089064597285, 0.27625,230.47314453125
0.0146659033333333, 226.696160922373, -0.00137888375364817, 0.29,233.347534179688
0.0153329933333333, 226.707082345732, -0.00109579247300614, 0.30375,234.27961730957
0.015999255, 226.7182115469, -0.00102764639592443, 0.3175,234.27961730957
0.01666615, 226.734906829099, -0.00151326500384554, 0.33375,232.752838134766
0.0174992766666667, 226.746211388451, -0.00206100749128534, 0.3475,230.177749633789
0.018165935, 226.757407346037, -0.00248894649633225, 0.36,188.015518188477
0.0188330683333333, 226.76855593021, -0.00229587019435466, 0.37375,232.83869934082
0.0194994416666667, 226.779646572357, -0.00245741208025837, 0.3875,232.83869934082
0.0201662266666667, 226.790111739548, -0.00218246989032326, 0.40125,229.0185546875
0.02083286, 226.800685374058, -0.00194437784946111, 0.41375,278.815093994141
0.021499455, 226.810715197929, -0.00169198552687283, 0.4275,234.287887573242
0.0221659833333333, 226.821331776562, -0.00189967109506739, 0.44125,237.014755249023
0.022832655, 226.831293008209, -0.0016539219387876, 0.45375,236.64680480957
0.0234995183333333, 226.841935669949, -0.00140598289249648, 0.46875,236.64680480957
0.02416641, 226.85247276551, -0.00134327854204246, 0.48,232.580749511719
0.02483258, 226.863195793002, -0.00112908630072386, 0.49375,236.718658447266
0.025499345, 226.87375370719, -0.000988157879443563, 0.5075,234.390655517578
0.026166275, 226.884576549535, -0.000938624367448737, 0.52125,228.721786499023
0.026832985, 226.895369469764, -0.000845248057686497, 0.53375,228.721786499023
0.027499285, 226.906655579936, -0.000706551524279567, 0.5475,235.589645385742
0.028165895, 226.917802506834, -0.000812144720431752, 0.56,235.091674804688
0.0288328883333333, 226.929052974726, -0.000675540581864925, 0.57375,235.335998535156
0.029499235, 226.940201873608, -0.000571682798587374, 0.5875,234.683898925781
0.0301663333333333, 226.950990600943, -0.000356302616907601, 0.60375,234.683898925781
0.0309993466666667, 226.961757771874, -9.55182158165565E-05, 0.61625,226.037841796875
0.03166648, 226.97255494409, 8.54701933122785E-05, 0.63,228.301666259766
0.03233257, 226.983306630839, 0.000299249955377472, 0.6425,227.185333251953
0.0329993366666667, 226.994642844492, 0.000375042648384747, 0.65625,226.019012451172
0.0336659083333333, 227.006022204166, -6.23143836267937E-05, 0.67,236.075912475586
0.0343327466666667, 227.017081365446, -5.68036604340442E-05, 0.68375,236.075912475586
0.0349992333333333, 227.028368442405, 3.24493564847636E-05, 0.695,225.875686645508
0.0356659033333333, 227.039543586974, -0.000134087278531953, 0.70875,231.399688720703
0.036332635, 227.050716032554, -0.000413356751071845, 0.7225,229.685150146484
0.0369997416666667, 227.061549141841, -0.000143007330403406, 0.735,273.921142578125
0.0376663883333333, 227.072503791371, -2.32083477837441E-05, 0.74875,273.921142578125
0.0383334883333333, 227.08319957597, 7.37812805460756E-05, 0.7625,224.45051574707
0.0389993033333333, 227.093986325074, 0.000235960634448689, 0.775,234.202423095703
0.0396662116666667, 227.104123626891, 0.000613701660905123, 0.78875,227.29833984375
0.0403333566666667, 227.114144241013, 0.000946720933681292, 0.8025,225.311187744141
0.040999275, 227.124657782956, 0.000934436550735709, 0.815,225.311187744141
0.0416665216666667, 227.135380575941, 0.000724142613578801, 0.8275,224.625305175781
0.042332875, 227.145966170365, 0.000285083167072005, 0.84125,230.919372558594
0.0429993266666667, 227.156069195362, 0.000196491616900051, 0.855,228.84375
0.0436659833333333, 227.166540719279, -0.000384744188245602, 0.86625,231.119400024414
0.0443334066666667, 227.176371074095, -0.000582078776347936, 0.88,231.119400024414
0.044999385, 227.1858845024, -0.000605981575740294, 0.89375,241.48747253418
0.0456660016666667, 227.195407497193, -0.000570019382084096, 0.9075,238.704315185547
0.04633304, 227.205490727358, -0.00077484159404023, 0.92125,243.192123413086
0.0469996566666667, 227.215729461047, -0.00104910881786635, 0.93375,251.028701782227
0.047665975, 227.225933688084, -0.00149867973637652, 0.9475,251.028701782227
0.0483331166666667, 227.236170893708, -0.00166495238467701, 0.96,253.75553894043
0.0489992983333333, 227.246194966955, -0.00159683930593217, 0.97375,247.092895507813
0.0496661283333333, 227.256749607832, -0.00195726070237112, 0.9875,252.578033447266
0.05033263, 227.267026188677, -0.00179392490658356, 1.00125,250.740814208984
0.0509996166666667, 227.276926795683, -0.00119278960097923, 1.01375,250.740814208984
0.051666065, 227.287248179434, -0.00112792535904445, 1.0275,250.581970214844
0.05233268, 227.297856895962, -0.00108642244368618, 1.04125,249.503814697266
0.05299964, 227.308027270966, -0.000779729848499357, 1.055,252.896926879883
0.053666045, 227.317955899269, -0.000339615954945784, 1.06875,292.443267822266
0.05433338, 227.328293406304, -0.000597539999710972, 1.08125,292.443267822266
0.055000095, 227.338777875539, -0.000650037362815479, 1.09375,251.914627075195
0.0556666233333333, 227.348605956882, -0.000377223565969913, 1.1075,253.71989440918
0.0563326266666667, 227.358550797807, -0.000374555200031436, 1.12125,245.292022705078
0.0569994766666667, 227.368534503333, -0.000661831270459943, 1.135,248.132415771484
0.057665955, 227.378571176792, -0.000601477301970909, 1.14875,248.132415771484
0.0583334066666667, 227.38821807039, -0.000685839064603037, 1.16125,248.461029052734
0.0589993866666667, 227.398128749073, -0.00114719039143804, 1.17375,251.717254638672
0.0596660133333333, 227.407879141378, -0.00125946125216, 1.18875,248.674118041992
0.0603333633333333, 227.417499328486, -0.00121888229040417, 1.20125,251.075225830078
0.060999595, 227.427138973464, -0.0014156484070514, 1.215,251.075225830078
0.0616662566666667, 227.436777032119, -0.00121893478775829, 1.22875,244.400039672852
0.06233295, 227.446117566349, -0.000985792498234544, 1.24125,253.671951293945
0.0629996333333333, 227.455608669038, -0.000816367008307054, 1.255,253.302322387695
0.0636661383333333, 227.46544080581, -0.000807311963175546, 1.26875,252.407562255859
0.0643326416666667, 227.475090078649, -0.000698645421410987, 1.2825,252.407562255859
0.0649996166666667, 227.485112359592, -0.000974772551858464, 1.295,254.356384277344
0.0656662816666667, 227.495500064784, -0.000647323999251175, 1.3075,248.851318359375
0.066333465, 227.506127774246, -0.000931916704454664, 1.3225,252.621109008789
0.06699962, 227.516516221259, -0.00081611652093171, 1.335,252.224716186523
0.067665965, 227.526691111066, -0.000708519425394199, 1.34875,252.224716186523
0.0683333883333333, 227.536489597159, -0.00031137387357467, 1.3625,253.82356262207
0.0689994816666667, 227.546317104724, -0.0004930852463934, 1.375,246.711181640625
0.0696660083333333, 227.55590066272, -0.00016973448797845, 1.38875,244.126998901367
0.0703327633333333, 227.566033508058, -0.000492174792131844, 1.4025,295.038177490234
0.070999605, 227.575887684633, -0.000440823371462712, 1.415,295.038177490234
0.0716661416666667, 227.585936842516, -0.000615236110881198, 1.4275,242.609283447266
0.0723327066666667, 227.596144297131, -0.000787355465547036, 1.44125,241.860015869141
0.0729996466666667, 227.605933439062, -0.000919536326241001, 1.455,236.508438110352
0.0736661216666667, 227.615591591545, -0.000786923487255136, 1.4675,239.53434753418
0.07433261, 227.625255423416, -0.000896166000118071, 1.48125,239.53434753418
0.0749994, 227.63470378546, -0.000814310611631376, 1.49375,238.442749023438
0.0756665866666667, 227.643607346453, -0.000791358764459463, 1.5075,242.172485351563
0.076332665, 227.652451836, -0.000651999264338768, 1.52,236.598236083984
0.076999315, 227.660753806173, -0.000804277615576403, 1.53375,238.539840698242
0.0776660516666667, 227.669364217683, -0.000935869005873617, 1.5475,238.539840698242
0.078332995, 227.677463595158, -0.00105709291695268, 1.56,242.139663696289
0.078999635, 227.686194478601, -0.000906221495081601, 1.57375,236.729888916016
0.0796660466666667, 227.694459550258, -0.00116492550064275, 1.58625,238.355194091797
0.0803331483333333, 227.702497851546, -0.000621262808238701, 1.6,238.378173828125
0.0809993266666667, 227.710261119514, -0.000483398733045612, 1.6125,238.378173828125
0.08166596, 227.718548088961, -0.000562200274894667, 1.62625,234.760726928711
0.0823330383333333, 227.726120825482, -0.000523619212784044, 1.63875,237.809631347656
0.0829993, 227.73417981468, -0.000762129732660973, 1.6525,240.514022827148
0.0836661516666667, 227.742104862251, -0.00114403305005909, 1.66625,240.391906738281
0.0843328083333333, 227.749858337661, -0.00115624393673016, 1.67875,240.391906738281
0.0849993566666667, 227.757105396682, -0.001135894458908, 1.69125,245.713363647461
0.0856664016666667, 227.763026851529, -0.00125121466649439, 1.705,245.962310791016
0.0863328716666667, 227.768214162101, -0.000946885952634685, 1.71875,254.030380249023
0.0869996266666667, 227.773285251682, -0.000774130629958103, 1.7325,305.894470214844
0.0876662016666667, 227.77857872514, -0.000459266445198302, 1.74625,305.894470214844
0.08833288, 227.784053608961, -0.000403043269217225, 1.75875,260.894775390625
0.088999655, 227.790917673777, -0.000142428359647511, 1.77125,258.842163085938
0.08966653, 227.798609762682, -0.000312387822726322, 1.785,258.244232177734
0.090333385, 227.806215851055, -0.000678037956485193, 1.79875,264.736785888672
0.09099928, 227.813904298305, -0.00102919281836676, 1.8125,264.736785888672
0.091666165, 227.821083858705, -0.00104446205136367, 1.825,258.131256103516
0.0923331433333333, 227.82848255173, -0.00129260508737363, 1.83875,260.514831542969
0.09299937, 227.835982599472, -0.000958336377357007, 1.8525,256.698822021484
0.0936659783333333, 227.844006787372, -0.000557195026268323, 1.865,260.676025390625
0.0943333633333333, 227.852021995489, -0.000518517968995892, 1.87875,260.676025390625
0.09499961, 227.861145957803, -0.000591592798538128, 1.89125,262.372863769531
0.09566596, 227.869964587192, -0.000620101866538038, 1.905,254.866073608398
0.096333885, 227.879066115312, -0.000698330437158778, 1.91875,261.478424072266
0.0969999066666667, 227.887693763171, -0.00063416216029589, 1.9325,255.76350402832
0.0976659533333333, 227.896621630013, -0.000546842546251693, 1.945,255.76350402832
0.09833337, 227.904646084318, -0.000352756794980677, 1.95875,260.772674560547
0.0989992683333333, 227.913330981001, -0.000290302931987016, 1.9725,258.877777099609
0.0996663116666667, 227.921884453003, -0.000518616964027761, 1.98625,258.014709472656
0.100333431666667, 227.931040914092, -0.000828387404557664, 1.99875,259.836822509766
0.100999626666667, 227.93925036164, -0.000743001193388078, 2.01375,259.836822509766
0.101666043333333, 227.948305619865, -0.000756497515506543, 2.02625,259.908813476563
0.102332613333333, 227.956491853499, -0.000962371174681902, 2.03875,260.035461425781
0.102999676666667, 227.964865065639, -0.00085398661872641, 2.0525,306.151336669922
0.103666301666667, 227.972465046942, -0.000830925277073058, 2.06625,257.942199707031
0.104332641666667, 227.980866833727, -0.000967364423891765, 2.08,257.942199707031
0.104999356666667, 227.988287368101, -0.000880391292469738, 2.0925,265.087615966797
0.10566638, 227.996470199027, -0.000652792724496871, 2.10625,259.802978515625
0.106332913333333, 228.003995663844, -0.000745021591963094, 2.11875,257.981506347656
0.106999655, 228.012285473038, -0.000448513485259732, 2.1325,264.980621337891
0.10766602, 228.019963794225, -0.000559659402509212, 2.14625,264.980621337891
0.10833261, 228.028559964681, -0.000818085922013253, 2.15875,260.2314453125
0.108999513333333, 228.036291097244, -0.000828609393454363, 2.1725,266.194000244141
0.10966605, 228.043958415704, -0.000543899694126166, 2.18625,267.184997558594
0.1103332, 228.05170225122, -0.000618766933649106, 2.2,258.704864501953
0.110999655, 228.059795299921, -0.000333778248360649, 2.21375,258.704864501953
0.111666176666667, 228.067213533395, -5.86471912458721E-06, 2.225,263.373291015625
0.11233265, 228.075932980294, 0.000114349742618539, 2.23875,268.236938476563
0.11299956, 228.08447239322, 0.000144313737565912, 2.2525,263.166351318359
0.113667733333333, 228.092939635122, 0.000240392911634176, 2.26625,256.688659667969
0.1143334, 228.101408690541, -5.52077406351828E-05, 2.27875,256.688659667969
0.114999438333333, 228.110066684941, -6.37348123129822E-05, 2.29125,256.979583740234
0.115665955, 228.117366394691, 2.85510522380571E-05, 2.305,268.117126464844
0.116333426666667, 228.125063775468, 1.35863038950078E-05, 2.31875,258.925964355469
0.116999883333333, 228.13247799724, 0.000180268431642602, 2.33125,260.349304199219
0.117665985, 228.140223330666, 0.000294129212550824, 2.345,260.349304199219
0.11833336, 228.147705029589, 0.000194117236038341, 2.3575,261.431823730469
0.118999303333333, 228.156262900769, 0.000303431745293886, 2.37125,263.358337402344
0.119666008333333, 228.164343907929, 0.000123076304369496, 2.385,318.850006103516
0.120333221666667, 228.172548025351, -2.91375500975438E-05, 2.3975,264.820251464844
0.120999661666667, 228.180071706952, -9.30733386991807E-05, 2.41125,264.820251464844
0.121666053333333, 228.187850871558, -0.000175863180259137, 2.42375,262.971282958984
0.122332786666667, 228.195009912368, -0.000387465051729481, 2.4375,261.512420654297
0.122999593333333, 228.202888344919, -0.000531828300488353, 2.45,257.637084960938
0.123666653333333, 228.210299593652, -0.000543272725619333, 2.46375,265.319946289063
0.124332635, 228.217903908489, -0.000459674424657242, 2.4775,265.319946289063
0.124999596666667, 228.225556718096, -0.000415363650348486, 2.49,270.366729736328
0.125666193333333, 228.233459513964, -0.000339410465387554, 2.5025,279.312347412109
0.126332643333333, 228.241035959557, 0.000153145294046352, 2.51625,271.417327880859
0.126999895, 228.249145592683, 7.77485811240449E-05, 2.52875,263.837036132813
0.127666185, 228.258458837906, -7.33014547911105E-06, 2.5425,263.837036132813
0.128333383333333, 228.267630449997, -1.76991246429225E-05, 2.55625,266.0751953125
0.12899928, 228.276585554242, -4.38188126433608E-05, 2.57,261.146179199219
0.129666055, 228.285653527259, -0.000470968857369151, 2.58375,261.341949462891
0.130333331666667, 228.294195784146, -0.000347292569486936, 2.59625,257.382995605469
0.130999328333333, 228.301990777383, -0.000329230476719807, 2.61,257.382995605469
0.131666013333333, 228.310273026447, -0.000567612003098055, 2.62375,261.707580566406
0.132333383333333, 228.318012656849, -0.000764939091557119, 2.63625,259.728973388672
0.132999585, 228.325869765863, -0.000730950798734419, 2.65,258.126586914063
0.133666898333333, 228.333516239679, -0.000892414688590408, 2.66375,264.32177734375
0.134332615, 228.340951972184, -0.000858516391231904, 2.67625,264.32177734375
0.13499963, 228.347768329949, -0.000638127961119489, 2.69,260.556182861328
0.13566615, 228.355516077698, -0.000457337542033138, 2.7025,256.885314941406
0.13633316, 228.363161711963, -0.000607494999781992, 2.7175,311.764343261719
0.136999445, 228.370893906614, -0.000584538652879377, 2.73,259.366668701172
0.13766622, 228.378201665004, -0.000580686846352934, 2.74375,259.366668701172
0.138333306666667, 228.386495783398, -0.000841456248157438, 2.7575,261.728851318359
0.138999328333333, 228.393726280108, -0.00109530649752074, 2.77,256.556884765625
0.139666173333333, 228.401308737699, -0.000925893006967221, 2.78375,256.757049560547
0.140333606666667, 228.409037803124, -0.00107108721401553, 2.79625,256.976013183594
0.140999358333333, 228.417482393601, -0.00104559899425263, 2.81,256.976013183594
0.141666038333333, 228.424818970525, -0.000683194697455012, 2.82375,257.135650634766
0.142333038333333, 228.43291233135, -0.00047110385054419, 2.8375,259.8212890625
0.14299941, 228.440880416062, -0.00064818645584681, 2.85125,259.093414306641
0.143666681666667, 228.448803442005, -0.000470776866939263, 2.86375,256.593200683594
0.144332653333333, 228.456492500194, -0.000476748067030083, 2.8775,256.593200683594
0.1449996, 228.465020167551, -0.000535491116433715, 2.89,256.697723388672
0.145666196666667, 228.473302991954, -0.000484225191498078, 2.90375,260.772216796875
0.146333368333333, 228.481869088036, -0.000363760242337099, 2.91875,257.290740966797
0.146999531666667, 228.49037365685, -0.000423808226205361, 2.93125,254.464111328125
0.147665963333333, 228.499145017303, -0.000477469530816829, 2.945,254.464111328125
0.148333388333333, 228.507403333213, -0.000392407303403363, 2.95625,257.675384521484
0.14899929, 228.516021330947, -0.000447262548052365, 2.97125,265.214019775391
0.149666068333333, 228.52445714664, -0.000266509627054842, 2.98375,261.51806640625
0.15033264, 228.533229319227, -0.000289999947130033, 2.9975,255.280868530273
0.150999478333333, 228.541888486834, -0.000370923882413526, 3.01125,255.280868530273
0.15166618, 228.551641952043, -0.000765447565929823, 3.02375,263.929809570313
0.152332643333333, 228.561472718309, -0.000836179513129089, 3.0375,265.451385498047
0.1529997, 228.5713559563, -0.000998735348141936, 3.05,323.887878417969
0.153666208333333, 228.581645227602, -0.000887847417953578, 3.06375,267.041381835938
0.154333, 228.592550949246, -0.000933686615505557, 3.0775,267.041381835938
0.15499982, 228.602159562907, -0.000651819273410378, 3.09,265.2529296875
0.155665985, 228.612591693111, -0.000914547576825602, 3.10375,263.691864013672
0.15633341, 228.622906853929, -0.000965868999027922, 3.1175,265.421295166016
0.156999596666667, 228.633241883972, -0.00113512049770338, 3.13,264.946838378906
0.157666361666667, 228.643084547997, -0.00121234861864088, 3.14375,264.946838378906
0.158332865, 228.653870706659, -0.0014032650290952, 3.1575,262.528503417969
0.158999411666667, 228.664186216794, -0.00121560795494302, 3.17,257.686553955078
0.15966603, 228.674486630049, -0.00129605791400881, 3.1825,271.070281982422
0.160333388333333, 228.685403489906, -0.00121425202302742, 3.19625,259.061431884766
0.160999396666667, 228.696008174016, -0.00111750688246035, 3.21,259.061431884766
