Time (min), Depth (µm), Load (N), Position (µm), Acoustic (aJ)
7.34E-06, 227.340769628783, -9.87883080417141E-05, 0,162.727615356445
0.000667236666666667, 227.340384728515, -2.84253422881584E-05, 0.00375000000000028,158.062866210938
0.00133269666666667, 227.34109651913, -0.000289175245117928, 0.0150000000000003,163.433395385742
0.00199907666666667, 227.341313864859, -0.000277096351794337, 0.0300000000000005,163.433395385742
0.00266659666666667, 227.342155437849, -0.000340369173660955, 0.0449999999999999,167.175643920898
0.00333314333333333, 227.342534719916, -0.000463626982549644, 0.0600000000000002,180.213363647461
0.00399914166666667, 227.343104112276, -0.000418012773700662, 0.0750000000000004,199.749496459961
0.00466628833333333, 227.34363663837, -0.000226103413100092, 0.0899999999999998,207.428817749023
0.00533252666666667, 227.344758708522, -0.000214919974857787, 0.103750000000001,207.428817749023
0.00599897166666667, 227.346370380219, -0.000244168505737282, 0.11625,258.9755859375
0.00666566333333333, 227.348794459784, -0.000319973198139783, 0.13,218.880661010742
0.0073325, 227.351730970513, -0.000595162875665192, 0.1425,224.695327758789
0.00799895333333333, 227.354045171042, -0.000827279216705819, 0.155,225.647155761719
0.00866627333333333, 227.358111979288, -0.00100133647399822, 0.168750000000001,225.647155761719
0.00933307166666667, 227.36342746134, -0.00113146393784406, 0.1825,229.219100952148
0.00999903333333333, 227.370423001211, -0.00113885406665416, 0.195,230.16064453125
0.01066583, 227.378591104664, -0.00108318586280856, 0.20875,235.082290649414
0.011332425, 227.38839696466, -0.00119506674316441, 0.22375,226.084228515625
0.0119991683333333, 227.398020560267, -0.00136519719768896, 0.23625,226.084228515625
0.0126661866666667, 227.408078140516, -0.00131267133597828, 0.25,233.632263183594
0.0133332916666667, 227.417568806224, -0.00116422679219551, 0.26375,227.133605957031
0.0139991566666667, 227.427432337991, -0.00120263836282731, 0.27625,238.705627441406
0.01466632, 227.437583094151, -0.00113922904777623, 0.29,226.019256591797
0.015332605, 227.447550470118, -0.00115032249053308, 0.30375,226.019256591797
0.01599913, 227.457149347991, -0.000997799651617719, 0.31625,228.632690429688
0.01666573, 227.467409249627, -0.00121059846295315, 0.33,229.329391479492
0.0173331816666667, 227.478217666344, -0.000951252489641132, 0.34375,232.008361816406
0.01799894, 227.488731684832, -0.00116269536910348, 0.35625,231.507720947266
0.0186667433333333, 227.49992811566, -0.00105704367589956, 0.370000000000001,231.507720947266
0.0193335216666667, 227.511088313899, -0.00145285279482074, 0.385,226.797439575195
0.0199989416666667, 227.522330642513, -0.00151440520312052, 0.39625,228.192779541016
0.0206658783333333, 227.533125165926, -0.00192424461731148, 0.41,226.973648071289
0.0213330366666667, 227.544247163654, -0.00152525265823273, 0.423750000000001,228.213821411133
0.0219991133333333, 227.55512693304, -0.00181874741629985, 0.4375,228.213821411133
0.0226663333333333, 227.566626107611, -0.00189644651354248, 0.45,280.728698730469
0.0233323516666667, 227.577724970464, -0.00185355016820104, 0.46375,226.28044128418
0.0239991966666667, 227.589025635735, -0.002019470334203, 0.47625,234.039886474609
0.0246663133333333, 227.600189175302, -0.00237585243354385, 0.49,226.180419921875
0.025332655, 227.61143321154, -0.00222270262612165, 0.50375,226.180419921875
0.0259995933333333, 227.622210712818, -0.00179142178890916, 0.51625,230.865798950195
0.026666375, 227.633249380962, -0.00177713050672944, 0.53,223.33854675293
0.0273324983333333, 227.643815513847, -0.00146978844421224, 0.5425,230.034149169922
0.027999505, 227.654720428009, -0.00119794659852877, 0.55625,225.264755249023
0.02866595, 227.665682525407, -0.000827132224135554, 0.57,225.264755249023
0.0293329483333333, 227.676884142831, -0.00122316633173847, 0.58375,225.382278442383
0.0299989816666667, 227.688310679114, -0.00126533671358371, 0.59625,216.299911499023
0.0306658683333333, 227.699937860231, -0.00131947349433729, 0.60875,217.149444580078
0.0313331433333333, 227.711854594376, -0.00139176686315915, 0.6225,216.052551269531
0.0319993233333333, 227.723702721515, -0.00168631306842424, 0.63625,216.052551269531
0.03266645, 227.734770897811, -0.00127804857511175, 0.64875,217.14192199707
0.0333323983333333, 227.745505043039, -0.00114881806625035, 0.6625,211.123428344727
0.0339989616666667, 227.756291193794, -0.00112808460767468, 0.675,220.684463500977
0.0346657583333333, 227.766419477877, -0.00125926501862164, 0.68875,217.03125
0.035333005, 227.776404274463, -0.00092471282285029, 0.7025,217.03125
0.0359998583333333, 227.78712534609, -0.00132364928466236, 0.715,214.214294433594
0.0366663133333333, 227.797515814439, -0.00134336129454937, 0.72875,220.233825683594
0.0373329866666667, 227.808500799618, -0.00151054139726261, 0.74125,227.297470092773
0.0379990233333333, 227.818790509361, -0.0013123728510858, 0.755,263.558258056641
0.0386659733333333, 227.829643183576, -0.00148201882992182, 0.7675,263.558258056641
0.0393325833333333, 227.840358117069, -0.00141506819280204, 0.78125,221.432067871094
0.0399990483333333, 227.851226409838, -0.00156079187322847, 0.79375,228.180297851563
0.0406657533333333, 227.86199774242, -0.00164631157764869, 0.8075,229.935165405273
0.041332475, 227.873651259535, -0.00191906387759372, 0.82,228.426574707031
0.041998945, 227.884565724008, -0.00206906084338892, 0.83375,228.426574707031
0.042665875, 227.895940120374, -0.00182234273577459, 0.84625,228.880722045898
0.043332925, 227.907168417522, -0.00156635059400212, 0.86,236.140975952148
0.0439990016666667, 227.918482665178, -0.00114957102840705, 0.87375,227.197509765625
0.04466578, 227.929559457987, -0.00101577474883322, 0.8875,228.118270874023
0.0453327083333333, 227.941039545328, -0.00110366883400888, 0.9,228.118270874023
0.045999645, 227.952346653885, -0.00120493324758937, 0.91375,225.121887207031
0.0466663766666667, 227.963807564573, -0.00141220633648802, 0.92625,224.569763183594
0.0473331733333333, 227.974597234127, -0.00161160632081245, 0.94,227.217254638672
0.0479990183333333, 227.985979172392, -0.00130289932683324, 0.9525,214.509826660156
0.0486663266666667, 227.99759052884, -0.00132246134427993, 0.97,214.509826660156
0.0493327116666667, 228.01056765909, -0.00157402570847009, 0.98125,222.346954345703
0.0499989366666667, 228.022840679795, -0.00166163780781543, 0.99375,221.676940917969
0.0506657966666667, 228.035452755616, -0.00160102885217784, 1.0075,222.844223022461
0.0513327583333333, 228.047825259323, -0.00178351118628862, 1.02,219.800872802734
0.0519993233333333, 228.059656321895, -0.00171637755832789, 1.03375,219.800872802734
0.0526660933333333, 228.069853610861, -0.00136754008007444, 1.0475,214.964218139648
0.0533330866666667, 228.081004501769, -0.0013157056836837, 1.06,226.924224853516
0.0539996266666667, 228.091904379608, -0.00152950344482047, 1.075,214.082000732422
0.0546668416666667, 228.102609847214, -0.00164880445241073, 1.08875,259.239349365234
0.0553328133333333, 228.113256228512, -0.00156328174812045, 1.10125,259.239349365234
0.0559991166666667, 228.123673683335, -0.00166062685857635, 1.115,224.656921386719
0.0566658816666667, 228.13414470775, -0.00152830350502156, 1.1275,217.432708740234
0.05733246, 228.144829144126, -0.00153363123737335, 1.14125,218.3037109375
0.0579993983333333, 228.155357743611, -0.00149880598666987, 1.155,212.729766845703
0.0586661133333333, 228.166102937196, -0.00174606406715439, 1.1675,212.729766845703
0.0593330016666667, 228.176723755472, -0.00195806191873096, 1.18125,214.86540222168
0.0599989516666667, 228.187811820354, -0.00236551795264131, 1.195,222.645202636719
0.060665575, 228.19797934163, -0.00246246858293665, 1.2075,217.19206237793
0.06133256, 228.20868161005, -0.00251423698263239, 1.22125,220.282791137695
0.062000325, 228.219192913338, -0.00234686938932624, 1.235,220.282791137695
0.06266608, 228.229858266451, -0.00241225260518956, 1.24875,220.809967041016
0.0633325516666667, 228.239671736571, -0.00236108417534014, 1.26125,221.597900390625
0.063999145, 228.250307725511, -0.0024215641375003, 1.275,225.42317199707
0.0646664016666667, 228.259938989998, -0.0025348969449123, 1.28875,223.041412353516
0.065332435, 228.269784889589, -0.00255842926291329, 1.3025,223.041412353516
0.0659994283333333, 228.279256468055, -0.00228844732382992, 1.315,220.29133605957
0.0666659233333333, 228.288615303398, -0.0020035936317165, 1.3275,219.628295898438
0.0673325316666667, 228.297777598265, -0.00159294875799347, 1.34125,220.863723754883
0.0679989566666667, 228.307552791929, -0.00141140537672916, 1.355,219.494995117188
0.0686665183333333, 228.316780577913, -0.0014004979245983, 1.36875,219.494995117188
0.0693324683333333, 228.326219345467, -0.00167978989604675, 1.3825,225.401306152344
0.06999952, 228.335469700015, -0.00176738999601812, 1.395,228.167770385742
0.070665835, 228.34501527405, -0.00186692799629165, 1.4075,225.367233276367
0.071332575, 228.353590253314, -0.00200037929316772, 1.42125,270.999877929688
0.0719989716666667, 228.362484048547, -0.0021956739837203, 1.43375,270.999877929688
0.072666345, 228.370737002945, -0.00191187623857806, 1.4475,225.733627319336
0.0733330033333333, 228.379297319461, -0.00194305967225657, 1.46,223.978729248047
0.073999005, 228.387240347538, -0.00213990978469164, 1.47375,230.889419555664
0.0746663333333333, 228.395932210416, -0.00244388601627407, 1.4875,226.411087036133
0.0753327683333333, 228.404399883658, -0.00209417558191165, 1.50125,226.411087036133
0.0759989733333333, 228.414067779341, -0.00243878477254968, 1.51375,223.314315795898
0.07666645, 228.423360954101, -0.00252708983707559, 1.52625,223.640899658203
0.077332825, 228.432736913124, -0.00240926775513824, 1.54,224.256942749023
0.0780004416666667, 228.442114555812, -0.00199462858204919, 1.55375,226.870544433594
0.0786672666666667, 228.451756066055, -0.00245257807969999, 1.5675,226.870544433594
0.0793329333333333, 228.461017087985, -0.0020200043074606, 1.58,222.985580444336
0.0800002416666667, 228.470397727413, -0.00192514307222032, 1.5925,223.880004882813
0.0806664883333333, 228.480463070441, -0.00204241318187101, 1.60625,223.133743286133
0.0813331433333333, 228.489929400217, -0.00187830042507253, 1.62,221.159118652344
0.0819990216666667, 228.499532895061, -0.00169261275198063, 1.6325,221.159118652344
0.0826657583333333, 228.508956491024, -0.00154729555111, 1.64625,227.49446105957
0.0833325533333333, 228.518394103595, -0.00153894847042435, 1.65875,229.765548706055
0.083999025, 228.527271280603, -0.00145543416527135, 1.6725,225.802749633789
0.08466645, 228.536595900923, -0.00162800049745187, 1.685,229.332183837891
0.0853323433333333, 228.545509992495, -0.00162505164552246, 1.69875,229.332183837891
0.085999065, 228.554289168621, -0.00173502162182724, 1.71125,230.438049316406
0.08666641, 228.563251483613, -0.00155735554578298, 1.725,210.952713012695
0.0873328933333333, 228.571559255091, -0.00120611518821043, 1.73875,200.081466674805
0.0879990683333333, 228.580252675909, -0.00105192743288863, 1.7525,248.6591796875
0.08866569, 228.588401761007, -0.00110018900881946, 1.765,248.6591796875
0.0893329333333333, 228.596355728373, -0.00130624565881453, 1.77875,204.798568725586
0.0899994283333333, 228.604217838631, -0.00147982893991049, 1.7925,202.706329345703
0.09066637, 228.612240363214, -0.00181422364364075, 1.805,209.178512573242
0.0913325566666667, 228.619516002421, -0.00188335517126794, 1.82,200.494064331055
0.0919992383333333, 228.627429644818, -0.00184586605427167, 1.8325,200.494064331055
0.092665865, 228.635089346497, -0.00166568910439378, 1.845,204.436920166016
0.0933329383333333, 228.642828386217, -0.00171947940254643, 1.85875,205.547927856445
0.0939996566666667, 228.650033494243, -0.00163466166287446, 1.8725,207.394393920898
0.094667055, 228.657695353832, -0.0017532037086104, 1.885,204.437057495117
0.0953325283333333, 228.664557058777, -0.00141693709890606, 1.9,204.437057495117
0.0959990133333333, 228.67170975674, -0.00150923946264679, 1.9125,207.425903320313
0.0966658883333333, 228.678923016099, -0.00132429875201398, 1.92625,204.018051147461
0.09733295, 228.686902910904, -0.00151280028377524, 1.93875,207.699188232422
0.09799888, 228.693471822475, -0.00108265188965724, 1.9525,207.749649047852
0.0986664916666667, 228.700952058512, -0.00119251087155618, 1.96625,207.749649047852
0.0993325416666667, 228.708021796994, -0.00123691014144724, 1.98,197.732711791992
0.0999991233333333, 228.714766130565, -0.00145147286417846, 1.9925,204.587173461914
0.10066631, 228.720964000095, -0.00117330133638676, 2.00625,204.002731323242
0.10133313, 228.728225017344, -0.00147144586091164, 2.02,204.746170043945
0.102000508333333, 228.734805860338, -0.00166096584151274, 2.03375,204.746170043945
0.102666353333333, 228.742062020143, -0.00164834847530712, 2.04625,211.183486938477
0.10333268, 228.748891877551, -0.00120597869506848, 2.05875,205.348831176758
0.103998978333333, 228.756322941674, -0.00089924410206212, 2.0725,203.253234863281
0.10466606, 228.763422918121, -0.000851006524964249, 2.08625,245.198776245117
0.105332543333333, 228.771161108983, -0.00069509535622681, 2.1,245.198776245117
0.105999253333333, 228.778030706417, -0.000480249147740867, 2.1125,203.514389038086
0.106665696666667, 228.784967195296, -0.000593839942213994, 2.12625,201.513046264648
0.107332831666667, 228.791674255239, -0.000856005773871726, 2.14,198.719696044922
0.107999486666667, 228.798403719669, -0.000896628233477756, 2.15375,198.719696044922
0.108665951666667, 228.805095728585, -0.000957466677612805, 2.16625,197.620300292969
0.109332636666667, 228.812229963369, -0.00113858558016472, 2.17875,193.186447143555
0.109999058333333, 228.818967907628, -0.00147521367169275, 2.1925,189.659194946289
0.11066581, 228.826207176499, -0.00148583763806888, 2.205,188.393783569336
0.11133245, 228.833141527062, -0.00142008844054489, 2.21875,188.393783569336
0.111999235, 228.840809010872, -0.00160905644890183, 2.2325,187.603546142578
0.112666613333333, 228.848176361792, -0.0014463011239221, 2.245,184.468643188477
0.113332818333333, 228.856162906209, -0.00111005401321375, 2.25875,186.790344238281
0.113999445, 228.864375349969, -0.00130797957161598, 2.27125,181.73518371582
0.11466664, 228.873201549919, -0.00143195434449695, 2.285,182.886337280273
0.115333051666667, 228.881408665016, -0.00164291724806524, 2.29875,182.886337280273
0.115999035, 228.889592132546, -0.00167860645543753, 2.31125,184.193420410156
0.116666541666667, 228.897601981613, -0.00179665652592669, 2.32375,181.66455078125
0.11733237, 228.905256953202, -0.00145923797411062, 2.3375,178.430053710938
0.117998978333333, 228.913068684263, -0.00119775760801145, 2.35125,178.430053710938
0.11866629, 228.920677654394, -0.000806868241983122, 2.365,174.150985717773
0.11933284, 228.928515406566, -0.000885549789901171, 2.3775,179.699142456055
0.11999941, 228.937430717682, -0.000879067115503823, 2.39,177.674407958984
0.120666751666667, 228.945257912887, -0.000924313842831499, 2.40375,214.929077148438
0.121332515, 228.953568359448, -0.00114641518688874, 2.4175,179.182830810547
0.121998951666667, 228.961418277089, -0.00122124042850713, 2.43,179.182830810547
0.122666356666667, 228.969340236234, -0.00125818207298994, 2.4425,182.620986938477
0.123332466666667, 228.976699373377, -0.001353217299461, 2.45625,189.55419921875
0.12399944, 228.98493365414, -0.00182893940438408, 2.47,182.108489990234
0.124666303333333, 228.992605697222, -0.00185492259928507, 2.4825,187.747161865234
0.125332776666667, 229.000532636487, -0.00189432712002061, 2.49625,187.747161865234
0.125999935, 229.00786878599, -0.00187206073842851, 2.50875,194.374465942383
0.126666381666667, 229.014821189287, -0.00139733758332803, 2.5225,184.444549560547
0.127332526666667, 229.02152856234, -0.000997570163247783, 2.535,182.726959228516
0.12799896, 229.028245145109, -0.000689992612556763, 2.55,182.817092895508
0.128666616666667, 229.0355366071, -0.000759895101433502, 2.5625,182.817092895508
0.129332783333333, 229.043393134172, -0.000526181340627102, 2.57625,186.364837646484
0.129999263333333, 229.051847023786, -0.000981169986995767, 2.58875,187.374496459961
0.130666323333333, 229.060953499164, -0.00122740661881288, 2.6025,188.469467163086
0.131332746666667, 229.06997679398, -0.00149638510827919, 2.615,185.41032409668
0.13199949, 229.079166867955, -0.00129131840853905, 2.63,185.41032409668
0.13266649, 229.088357422536, -0.00160987090798033, 2.64375,180.654190063477
0.133333048333333, 229.09764341764, -0.00144452671307674, 2.65625,189.412536621094
0.133998965, 229.106991725119, -0.00140165886625646, 2.66875,184.657821655273
0.134666255, 229.116400043011, -0.00145255430986449, 2.6825,187.274291992188
0.135332525, 229.124974521322, -0.00123453126091859, 2.69625,187.274291992188
0.135999493333333, 229.134154851061, -0.00114566972433279, 2.71,179.367782592773
0.136665883333333, 229.142781891665, -0.00127663564606883, 2.7225,181.129180908203
0.137332471666667, 229.151574128673, -0.00102205943316683, 2.73625,219.09602355957
0.13799928, 229.159969501956, -0.000919917563640402, 2.75,177.591293334961
0.138666338333333, 229.169291588436, -0.00133572217822457, 2.76375,177.591293334961
0.139332503333333, 229.177951068183, -0.0012502249726704, 2.77625,176.065536499023
0.139999151666667, 229.187143294381, -0.0011391885498811, 2.79,176.819351196289
0.14066741, 229.195640349791, -0.000858393653904286, 2.80375,184.319564819336
0.141332525, 229.205295928215, -0.000946847210988633, 2.81625,173.659149169922
0.141999356666667, 229.214179685592, -0.000552016042948413, 2.83,173.659149169922
0.142666501666667, 229.22377640466, -0.000591500059698576, 2.84375,183.186752319336
0.143333093333333, 229.232493904319, -0.000530211638157533, 2.85625,173.209045410156
0.14399929, 229.242019524832, -0.000661342551556676, 2.87,179.186584472656
0.144665765, 229.250693132905, -0.000225033966873045, 2.88375,175.141647338867
0.145332423333333, 229.259980134254, -0.000474936414526839, 2.89625,175.141647338867
0.145999771666667, 229.268916129504, -0.00033668535873144, 2.91,169.8232421875
0.146666386666667, 229.278726040119, -0.00057709778307051, 2.92375,171.328231811523
0.147332495, 229.288100467964, -0.000948438631056793, 2.93625,177.548400878906
0.147999438333333, 229.298106733921, -0.00131690562335508, 2.95,178.439743041992
0.14866666, 229.307757518508, -0.00133127340165811, 2.96375,178.439743041992
0.149332296666667, 229.317061844749, -0.00109337785089279, 2.9775,174.6552734375
0.149999418333333, 229.326570006588, -0.000811360516314773, 2.99,179.730865478516
0.150666208333333, 229.335789871979, -0.000542139039010124, 3.00375,186.080841064453
0.151332491666667, 229.345089322093, -0.000282788565946152, 3.01625,188.002899169922
0.151999463333333, 229.354096948095, -9.2248636559551E-05, 3.03,188.002899169922
0.152665818333333, 229.363894092008, -0.000156053931695596, 3.045,185.275970458984
0.153332956666667, 229.373491542777, -0.000135020488175515, 3.05625,183.799407958984
0.153999323333333, 229.383511534414, 6.87967742816581E-05, 3.07,222.538192749023
0.154666421666667, 229.392740121243, 3.71768625167848E-05, 3.08375,180.34733581543
0.155332711666667, 229.402888393843, -1.24820741339058E-06, 3.09625,180.34733581543
0.155999221666667, 229.412101643182, -3.36960775976409E-05, 3.11,183.665573120117
0.156666193333333, 229.42224425836, -0.000340766653755343, 3.12375,190.693450927734
0.157332543333333, 229.432008857455, -0.000588476211549001, 3.13625,189.120223999023
0.157998896666667, 229.442291421313, -0.000448798727391054, 3.15,181.160598754883
0.158666175, 229.452428716782, -0.000672782476914446, 3.1625,181.160598754883
0.159332375, 229.462727308493, -0.000612569501340573, 3.175,189.690032958984
