Time (min), Depth (µm), Load (N), Position (µm), Acoustic (aJ)
8.39166666666667E-06, 227.540576281963, -0.000154341674375512, 0,252.566299438477
0.000664905, 227.540486603797, -0.000120938352218862, 0.0049999999999998,256.832000732422
0.00133324, 227.541683852322, -0.000206426558226616, 0.0162499999999998,253.950759887695
0.00199798666666667, 227.541983355261, -0.000242880727193353, 0.0300000000000005,256.632568359375
0.00266497166666667, 227.543448235404, -0.000188760445629471, 0.0449999999999999,256.190216064453
0.00333170666666667, 227.544606016144, -0.000440212315489389, 0.0587499999999998,256.190216064453
0.00399822833333333, 227.547262371508, -0.000610606756751415, 0.07375,262.144622802734
0.00466473166666667, 227.550564847219, -0.000455874528807477, 0.0887500000000003,270.308807373047
0.00533134166666667, 227.555337211816, -0.000822844596275011, 0.103750000000001,282.167327880859
0.00599809666666667, 227.560763082594, -0.000966973856784466, 0.11625,279.255401611328
0.006665265, 227.567721514085, -0.00126446741401206, 0.13,279.255401611328
0.00733138333333333, 227.578840906385, -0.00145167001102755, 0.145,275.843048095703
0.00816495666666667, 227.58645244486, -0.00133079408251631, 0.15875,279.378021240234
0.00883132333333333, 227.59378672025, -0.00120190855628891, 0.1725,220.028701782227
0.00949870166666667, 227.600767673464, -0.00114329150057766, 0.18625,343.957214355469
0.0101647983333333, 227.607258907539, -0.00120660632034883, 0.200000000000001,288.422393798828
0.0108317383333333, 227.614219777012, -0.00122527588260555, 0.2125,288.422393798828
0.0114986433333333, 227.621254659318, -0.00161291791172696, 0.22625,287.333282470703
0.0121647783333333, 227.627993143446, -0.00174976203817705, 0.24,284.579315185547
0.0128316716666667, 227.634680885839, -0.00158366938084746, 0.2525,291.9345703125
0.0134979733333333, 227.641707276564, -0.00179070248177783, 0.26625,284.106597900391
0.0141646766666667, 227.648395088868, -0.00154759919261298, 0.2825,284.106597900391
0.0149985616666667, 227.655271963804, -0.0015202600658389, 0.296250000000001,288.294952392578
0.015664675, 227.663856354629, -0.00124774025421888, 0.31,285.638305664063
0.0163316266666667, 227.67255227191, -0.00128272149712406, 0.32375,287.696411132813
0.01699794, 227.682187163948, -0.00107617887153732, 0.3375,293.137573242188
0.0176646516666667, 227.693057579725, -0.00130149305421894, 0.35,285.763427734375
0.0183314083333333, 227.703661716746, -0.000989141243344698, 0.36375,285.763427734375
0.0189981333333333, 227.714542711178, -0.00082072070291617, 0.37625,289.011901855469
0.01966462, 227.725094389134, -0.000862307614083527, 0.39,286.848266601563
0.0203314033333333, 227.735390837086, -0.0008886447911862, 0.40375,284.243927001953
0.0209980266666667, 227.745619966597, -0.000874313011090105, 0.4175,283.385375976563
0.02166496, 227.756162001083, -0.0011093617048492, 0.43,283.385375976563
0.0223313033333333, 227.766030345477, -0.00148267345379892, 0.44375,287.432373046875
0.0229980266666667, 227.777607222672, -0.0016364967274057, 0.45625,288.015960693359
0.0236647133333333, 227.788596168403, -0.00154888762790917, 0.47,280.974487304688
0.0243313066666667, 227.799981103158, -0.00119311749787363, 0.48375,279.654541015625
0.0249980283333333, 227.811153173149, -0.00104708483289261, 0.49625,279.654541015625
0.02566508, 227.822944333735, -0.000847972834053609, 0.51,339.134796142578
0.0263315116666667, 227.834275456013, -0.000737593378322972, 0.52375,282.121612548828
0.0269979966666667, 227.846199018467, -0.000858496305473464, 0.53625,281.162994384766
0.02766505, 227.857908814775, -0.00106030666873901, 0.55,281.484100341797
0.0283314166666667, 227.870328737397, -0.00137150653752278, 0.5625,281.484100341797
0.0289979583333333, 227.882055123137, -0.00151655525186146, 0.57625,283.224792480469
0.0296646033333333, 227.894127097118, -0.00140683276310447, 0.59,274.545196533203
0.0303313833333333, 227.905703925101, -0.0013330169707795, 0.60375,278.715484619141
0.0309980116666667, 227.917609538664, -0.00130726776412792, 0.615,280.718505859375
0.0316647183333333, 227.929825434021, -0.00132316696552298, 0.62875,280.718505859375
0.032331595, 227.941925103217, -0.00137913065453978, 0.6425,279.892517089844
0.0329999, 227.953841060422, -0.0018441837954184, 0.655,279.803192138672
0.0336650183333333, 227.96631170675, -0.00164542877865113, 0.66875,276.407897949219
0.0343325566666667, 227.978479895031, -0.00186800859869928, 0.6825,278.056427001953
0.034998, 227.989851152863, -0.00138549483488802, 0.695,278.056427001953
0.0356649666666667, 228.00096598142, -0.00113356148920964, 0.70875,279.525299072266
0.0363316883333333, 228.012394006523, -0.000599094834937272, 0.72125,270.195709228516
0.0369979283333333, 228.02351447253, -0.000686567441291855, 0.735,275.027404785156
0.0376646066666667, 228.034377975888, -0.000528449883395904, 0.74875,283.361541748047
0.0383316933333333, 228.045287054658, -0.000705799475306067, 0.765,283.361541748047
0.03916463, 228.062255474832, -0.000918712280896144, 0.7775,274.715209960938
0.0398316083333333, 228.073913570777, -0.0012486852066992, 0.79125,278.591094970703
0.0404979766666667, 228.084726164922, -0.00101440597426525, 0.80375,288.232482910156
0.041164685, 228.096436622773, -0.000996630367101647, 0.8175,285.819061279297
0.041831855, 228.107691501631, -0.00164611424420969, 0.83125,285.819061279297
0.0424979966666667, 228.118949954649, -0.00171934206604106, 0.84375,342.577972412109
0.0431649966666667, 228.130097136289, -0.00162438933543344, 0.85625,284.381286621094
0.043831685, 228.141730254107, -0.00209899999626743, 0.87,286.820159912109
0.0444980366666667, 228.152889227266, -0.00191737261919403, 0.88375,293.303283691406
0.0451647416666667, 228.164245550628, -0.00152949060212558, 0.89625,293.303283691406
0.04583209, 228.175335270983, -0.00119100260403996, 0.91,290.503631591797
0.0464986116666667, 228.186650966874, -0.00102155011547321, 0.92375,284.951904296875
0.04716473, 228.197887030048, -0.00105093963926786, 0.93625,288.677093505859
0.0478312733333333, 228.209534273001, -0.00109826676208292, 0.95,289.134216308594
0.0484980266666667, 228.221226310761, -0.0010583702660156, 0.97,286.085327148438
0.0493323983333333, 228.23389880977, -0.00124113608583859, 0.98125,288.470428466797
0.0499982416666667, 228.245938833165, -0.00165131898280292, 0.99375,288.470428466797
0.0506650366666667, 228.25710479521, -0.0013935584298402, 1.0075,287.083923339844
0.0513316566666667, 228.268464814079, -0.00169823962606219, 1.02125,287.371978759766
0.0519981066666667, 228.279615491913, -0.00188822158348576, 1.03375,279.691558837891
0.0526649333333333, 228.288923129823, -0.00212120038122829, 1.0475,284.421356201172
0.0533316883333333, 228.298771401114, -0.00208572716297007, 1.06,284.421356201172
0.0539981066666667, 228.308540759951, -0.00224672007645716, 1.07375,291.480865478516
0.0546645916666667, 228.318395575114, -0.00237574509565406, 1.0875,284.373443603516
0.0553316066666667, 228.328303522643, -0.00241947539913374, 1.1025,280.304382324219
0.0559980933333333, 228.338222774106, -0.00226757202906069, 1.115,286.342864990234
0.0566647383333333, 228.347907958461, -0.00199527270639171, 1.1275,286.342864990234
0.0573312866666667, 228.358355289153, -0.00195381178893799, 1.14125,289.324279785156
0.057998045, 228.368165699996, -0.001739036076899, 1.15375,286.945465087891
0.0586647283333333, 228.383473406687, -0.00159836264278851, 1.17125,336.940856933594
0.0594984116666667, 228.393849602456, -0.00169016853146674, 1.185,292.016021728516
0.06016486, 228.404242034225, -0.00150411637668109, 1.19875,280.913726806641
0.0608317116666667, 228.414312475344, -0.00146023608076109, 1.21125,280.913726806641
0.0614985916666667, 228.4242233299, -0.00163120499317583, 1.225,284.426513671875
0.0621655416666667, 228.43311061496, -0.00154756169446039, 1.23875,281.354339599609
0.06283153, 228.442609582769, -0.00154206297066286, 1.25125,286.015960693359
0.0634980033333333, 228.451786934933, -0.00175390782997155, 1.265,283.644073486328
0.0641654483333333, 228.460582186731, -0.00199991947302191, 1.27875,283.644073486328
0.0648316533333333, 228.469687825858, -0.00213960445678062, 1.29125,281.054290771484
0.0654980083333333, 228.478208563726, -0.00225658358103331, 1.305,281.090545654297
0.0661654366666667, 228.486815038456, -0.00202774757523647, 1.31875,283.628753662109
0.0668318766666667, 228.495193281438, -0.0020305974320915, 1.3325,289.368347167969
0.0674980066666667, 228.503436153008, -0.00194985648764897, 1.345,289.368347167969
0.0681647466666667, 228.511382315211, -0.0020033348015045, 1.35875,283.601837158203
0.0688315083333333, 228.519789821881, -0.00235955640884918, 1.37125,287.360595703125
0.0694980366666667, 228.527281176732, -0.00260174924373122, 1.385,287.128753662109
0.0701654316666667, 228.534705869994, -0.00277663145957294, 1.3975,290.004486083984
0.0708313366666667, 228.541800352342, -0.00292730339147713, 1.41,290.004486083984
0.07149832, 228.548518501256, -0.00310582442453752, 1.42375,288.815704345703
0.0721656133333333, 228.554961948153, -0.00287905681487535, 1.43875,289.078399658203
0.0728324616666667, 228.56089411695, -0.00295424953801505, 1.45125,289.397094726563
0.07349852, 228.566668584576, -0.00276674395622759, 1.465,287.275360107422
0.0741655183333333, 228.572046594912, -0.00273077426292812, 1.4775,287.275360107422
0.074831845, 228.57780377981, -0.00260407862673331, 1.49,295.224334716797
0.075498085, 228.582684829008, -0.00239242275796319, 1.505,348.823547363281
0.0761657483333333, 228.588110652731, -0.00253297169834821, 1.5175,280.337158203125
0.0768316166666667, 228.593649887769, -0.00257508808289368, 1.53,286.268280029297
0.0774981033333333, 228.599145347279, -0.00238395868311033, 1.54375,286.268280029297
0.0781646666666667, 228.604860822337, -0.00210185285301378, 1.55625,284.959503173828
0.078831555, 228.611410100135, -0.00200506571454216, 1.57,282.485260009766
0.0794980266666667, 228.617783773167, -0.00210424073308885, 1.5825,276.761596679688
0.080165335, 228.623914603214, -0.00197591317878197, 1.59625,283.853149414063
0.0808330883333333, 228.630252217376, -0.0021783955083077, 1.61,283.853149414063
0.0814979783333333, 228.635814535066, -0.00245642754304487, 1.6225,281.352416992188
0.0821656383333333, 228.641238040473, -0.00246555158472018, 1.63625,282.027465820313
0.0828320166666667, 228.646594935011, -0.00218706057305185, 1.64875,283.561981201172
0.0834986333333333, 228.652298261309, -0.0021289624912904, 1.66375,286.863342285156
0.0841646716666667, 228.657786738962, -0.00202394526619408, 1.675,286.863342285156
0.0848318966666667, 228.663026350646, -0.00187154242127348, 1.68875,282.336730957031
0.0854982466666667, 228.668912093708, -0.00186062896944502, 1.70125,288.612701416016
0.0861648783333333, 228.674435937645, -0.0019346547512077, 1.715,284.288726806641
0.0868322766666667, 228.680126465577, -0.00222366923429589, 1.72875,273.147430419922
0.0874980116666667, 228.685765766142, -0.00222920095647279, 1.7425,273.147430419922
0.08816488, 228.691530699374, -0.00225985941652514, 1.755,283.228668212891
0.0888315316666667, 228.696214386846, -0.00264983382853996, 1.76875,276.164031982422
0.0894982366666667, 228.701362657764, -0.00258473709830142, 1.7825,271.1455078125
0.09016494, 228.706046822719, -0.00261657899892048, 1.795,275.734466552734
0.0908315466666667, 228.710820905262, -0.00252145227699707, 1.80875,275.734466552734
0.091498045, 228.715498686821, -0.00266834589869183, 1.8225,275.783569335938
0.09216467, 228.720566053928, -0.00230895795035801, 1.835,325.233856201172
0.0928314216666667, 228.725740697309, -0.00276011428923872, 1.84875,273.906066894531
0.0934980966666667, 228.730707339188, -0.00240792597929453, 1.8625,272.970916748047
0.0941649816666667, 228.736278577918, -0.0025632101795464, 1.875,272.970916748047
0.0948314583333333, 228.741881044339, -0.00245289522054385, 1.88875,272.346649169922
0.0954980283333333, 228.74762797409, -0.00256770995352132, 1.9025,271.827087402344
0.096165405, 228.753130768267, -0.00191726312481886, 1.91625,277.559020996094
0.0968317, 228.758714590384, -0.00208108489621934, 1.93,268.345062255859
0.0974979966666667, 228.764991224265, -0.00217830101315531, 1.94125,268.345062255859
0.0981649766666667, 228.77139732046, -0.00240723451410212, 1.955,271.064544677734
0.0988315116666667, 228.777333284275, -0.00228993590586652, 1.96875,273.225158691406
0.099498095, 228.783472792863, -0.00255322218126603, 1.98375,269.601348876953
0.100164853333333, 228.789550903379, -0.00240554709882965, 1.99625,277.404632568359
0.100831366666667, 228.794475034697, -0.00241327321074858, 2.01,277.404632568359
0.101498003333333, 228.800076557314, -0.00237854095533685, 2.02375,278.018463134766
0.1021656, 228.805537406536, -0.00245330619995786, 2.03625,271.488830566406
0.102831353333333, 228.81100746064, -0.00228622659217964, 2.05,274.248107910156
0.103498545, 228.816988916567, -0.00254684300171627, 2.06375,270.546813964844
0.104164708333333, 228.823109062627, -0.00257142676689398, 2.07625,270.546813964844
0.104831478333333, 228.829029677107, -0.00269817040069095, 2.08875,266.150146484375
0.105498343333333, 228.835377545591, -0.00288355808888094, 2.1025,271.612335205078
0.106164638333333, 228.841925433995, -0.00305298207888403, 2.11625,273.262359619141
0.106831496666667, 228.848335013463, -0.00319911673872447, 2.12875,265.959686279297
0.107498123333333, 228.854749435755, -0.00326760179878508, 2.1425,265.959686279297
0.108165548333333, 228.860878703799, -0.00313932074217721, 2.155,318.883544921875
0.108832523333333, 228.86713597291, -0.00292427504370312, 2.16875,261.625854492188
0.109498636666667, 228.873186704817, -0.00299787784669907, 2.1825,258.111267089844
0.110165283333333, 228.879382383257, -0.00283968379259479, 2.19625,260.835662841797
0.110831525, 228.8850530487, -0.00253952636922318, 2.20875,260.835662841797
0.111498563333333, 228.891372669627, -0.00266992531944978, 2.2225,259.442535400391
0.112165406666667, 228.897230433661, -0.00254922938184568, 2.235,259.667266845703
0.112831425, 228.902597108311, -0.00220288327842987, 2.24875,267.864959716797
0.113498245, 228.908237519778, -0.00199078043216633, 2.2625,260.131500244141
0.1141649, 228.914279528456, -0.00202604966059944, 2.275,260.131500244141
0.11483137, 228.920151097152, -0.001850472979674, 2.28875,258.192443847656
0.115498006666667, 228.92658309914, -0.00164753917283912, 2.30125,264.888000488281
0.116164666666667, 228.933362295504, -0.00199328080661415, 2.315,258.218078613281
0.116831526666667, 228.9404063373, -0.00217931796213451, 2.32875,259.14892578125
0.117498691666667, 228.946934509584, -0.00198825605897056, 2.34125,259.14892578125
0.118164725, 228.953366069574, -0.00166614123843393, 2.355,264.481506347656
0.118831511666667, 228.960225455708, -0.0021511523768442, 2.3675,259.273681640625
0.119498326666667, 228.967264852611, -0.00166032903039362, 2.38125,256.591705322266
0.12016466, 228.973058016714, -0.00144139702711056, 2.39375,257.675537109375
0.120832828333333, 228.98041767401, -0.00149030657044736, 2.4075,257.675537109375
0.121498001666667, 228.986859514089, -0.00135093357102829, 2.42,259.353820800781
0.122165451666667, 228.993540486814, -0.0010117826062289, 2.43375,261.365051269531
0.122831321666667, 228.999657629107, -0.00140818419541689, 2.44625,262.017852783203
0.123498546666667, 229.006969244226, -0.00156621625762185, 2.46,267.984771728516
0.124165421666667, 229.013547725932, -0.00159634524427484, 2.4725,267.984771728516
0.12483138, 229.021109134245, -0.00175459179571198, 2.48625,318.335784912109
0.125498035, 229.028475763862, -0.00179969603017884, 2.49875,255.453155517578
0.126165405, 229.036005643608, -0.00169577525001259, 2.5125,264.2939453125
0.126831528333333, 229.043356079294, -0.00152993757987406, 2.52625,266.713531494141
0.127498498333333, 229.050916951547, -0.00158840614304813, 2.53875,266.713531494141
0.128165201666667, 229.058438356549, -0.00151251445503024, 2.5525,269.314270019531
0.128833421666667, 229.066078571604, -0.00162169397106824, 2.56625,268.476043701172
0.129498078333333, 229.074387290825, -0.00150044906106879, 2.57875,264.709930419922
0.130164696666667, 229.082679003208, -0.00134856968982869, 2.59375,267.379608154297
0.13083144, 229.091746041037, -0.00143991810147892, 2.605,267.379608154297
0.131498671666667, 229.101188584517, -0.00161315489995271, 2.62,270.95361328125
0.132164736666667, 229.110098268721, -0.0018151677530552, 2.6325,265.109741210938
0.132831323333333, 229.119353701465, -0.00175959554437141, 2.64625,271.276153564453
0.13349856, 229.128714185223, -0.00197961049324365, 2.66,261.799560546875
0.134165211666667, 229.137809716641, -0.00177895057218669, 2.6725,261.799560546875
0.134832161666667, 229.147000856284, -0.00194567319789317, 2.68625,265.824005126953
0.135498538333333, 229.156586459601, -0.00151667974577822, 2.69875,263.616821289063
0.136165116666667, 229.165982274985, -0.00160071752463297, 2.7125,257.890075683594
0.13683189, 229.175436348425, -0.00137083607135703, 2.725,259.387390136719
0.137498048333333, 229.18462279044, -0.00117258202946797, 2.74,259.387390136719
0.13816523, 229.193959780589, -0.00062829086865394, 2.75375,268.246856689453
0.138831383333333, 229.203142247987, -0.000788869802920719, 2.76625,259.566589355469
0.139498056666667, 229.212495089595, -0.000757456880766004, 2.78,263.938049316406
0.140165451666667, 229.222267447928, -0.00100228508329216, 2.7925,261.061126708984
0.140831448333333, 229.231402576228, -0.00134257899063561, 2.80625,261.061126708984
0.141497991666667, 229.240489126895, -0.00162450182993371, 2.82,306.130065917969
0.142165195, 229.249376083069, -0.00131774623796446, 2.8325,268.17236328125
0.142832023333333, 229.258621332694, -0.00114503741292312, 2.8475,260.306243896484
0.143498413333333, 229.267552351394, -0.000849388763072858, 2.86,265.958282470703
0.144165755, 229.277590730756, -0.00100044917548251, 2.87375,265.958282470703
0.144832153333333, 229.287967067974, -0.00108722281693765, 2.8875,261.402648925781
0.145498455, 229.299002412534, -0.00125537037108227, 2.9,258.336639404297
0.146165528333333, 229.309189292025, -0.00147198199090966, 2.91375,265.871856689453
0.14683171, 229.319748417867, -0.00156799366831602, 2.92875,263.575561523438
0.147498308333333, 229.329755107759, -0.00153754819757144, 2.94,263.575561523438
0.148165181666667, 229.339758834279, -0.00148911863012869, 2.95375,259.911956787109
0.148831936666667, 229.34949986372, -0.00155100702153731, 2.9675,261.847442626953
0.149497993333333, 229.359620978073, -0.00145210798912333, 2.98,266.594390869141
0.15016561, 229.369452771352, -0.00152683723555866, 2.995,263.66845703125
0.150831525, 229.379226514975, -0.00146613678446872, 3.00625,263.66845703125
0.151497996666667, 229.38875540564, -0.00144214398961216, 3.02125,265.360534667969
0.152165151666667, 229.39877599331, -0.0015916834784006, 3.03375,261.235687255859
0.152831681666667, 229.408482890083, -0.0019676830923273, 3.0475,265.513977050781
0.153497991666667, 229.418175164011, -0.00193868804873572, 3.05875,270.171905517578
0.15416469, 229.428270350019, -0.00206241683397204, 3.0725,270.171905517578
0.154831355, 229.438544853275, -0.00216768754633502, 3.08625,266.677093505859
0.155498288333333, 229.448303707923, -0.00209774155967184, 3.1,269.351654052734
0.156164721666667, 229.45865931676, -0.00188040397630575, 3.11375,265.003753662109
0.156831425, 229.46867213548, -0.00183132044171692, 3.12625,266.398010253906
0.157498321666667, 229.479006145572, -0.00178654469073688, 3.14,266.398010253906
0.158164856666667, 229.488903199177, -0.00181796811238368, 3.1525,318.617309570313
0.158831813333333, 229.499315205904, -0.00209939597654368, 3.16625,263.256744384766
0.159498046666667, 229.509747764237, -0.00238086733851139, 3.18,269.743499755859
