Time (min), Depth (µm), Load (N), Position (µm), Acoustic (aJ)
8.41166666666667E-06, 226.744701129964, -0.000449944664427884, 0,320.724700927734
0.00066492, 226.744285810654, -0.0004814460821649, 0.00500000000000001,267.7421875
0.00133118, 226.744264842672, 4.97198552691654E-06, 0.0174999999999999,267.7421875
0.00199782166666667, 226.744719124152, -8.19951461974984E-05, 0.0325,255.965942382813
0.00266452833333333, 226.745166331788, 5.25097152968481E-06, 0.0462499999999998,268.462585449219
0.00333115666666667, 226.746235596144, 0.000189350224444737, 0.0599999999999999,270.3056640625
0.00399773, 226.747716072694, 0.000246260365887523, 0.075,272.870239257813
0.00466507666666667, 226.749447817245, -4.71653956357926E-05, 0.0887499999999999,272.870239257813
0.00533149333333333, 226.751087450125, 0.000193782501779003, 0.1025,274.649536132813
0.00599778, 226.754133454002, 0.000535553834978477, 0.115,268.573516845703
0.00666488, 226.757895941731, 0.000187326826042169, 0.12875,278.095153808594
0.0073312, 226.762243890033, 2.37780409255861E-05, 0.1425,269.570465087891
0.00799860166666667, 226.767341335881, -0.000230117206191066, 0.15625,269.570465087891
0.00866441333333333, 226.772554462839, -0.00055125257587983, 0.16875,276.106994628906
0.009331495, 226.777846555152, -0.000731800007212853, 0.1825,267.929809570313
0.00999778166666667, 226.784228617913, -0.000517828254781534, 0.19625,271.125030517578
0.010664735, 226.791802345662, -0.000238077306380672, 0.20875,270.981750488281
0.0113319716666667, 226.800812210424, -1.54209901667031E-05, 0.2225,270.981750488281
0.011998025, 226.811278353145, 0.000160110693026645, 0.23625,272.07958984375
0.0126645566666667, 226.822682709702, 0.000158589769447947, 0.25,211.764373779297
0.01333149, 226.833995547888, 0.000127703320865045, 0.2625,272.668670654297
0.01399772, 226.845263818729, -8.28381038609079E-05, 0.2775,273.889556884766
0.0146655266666667, 226.856607916182, -5.00602502229245E-05, 0.29,273.889556884766
0.015331105, 226.868132760085, -0.000156017928090118, 0.30375,269.114929199219
0.0159977716666667, 226.879598870253, -7.99657481185708E-05, 0.3175,269.331298828125
0.016664785, 226.891418339472, -0.000149470756964684, 0.33,268.252990722656
0.0173312116666667, 226.902732962324, -0.000282274086392272, 0.34375,266.232208251953
0.0179978166666667, 226.919851747529, -0.000450195151888244, 0.36,266.232208251953
0.0188310816666667, 226.930797143291, -0.000454787921197421, 0.37375,274.587768554688
0.0194978816666667, 226.941872009167, -0.000258416284732012, 0.3875,265.789611816406
0.0201646483333333, 226.952995184258, -0.000262121098645681, 0.39875,276.76708984375
0.0208312916666667, 226.964190820208, 3.49029821374183E-05, 0.41375,270.615447998047
0.0214984233333333, 226.975454096594, 2.69053838589852E-05, 0.4275,270.615447998047
0.0221648333333333, 226.986929706846, 2.50964747310989E-05, 0.44,273.316650390625
0.02283128, 226.997848316744, -0.000293769508952962, 0.45375,279.335327148438
0.0234979, 227.009135402406, -0.000180154715689384, 0.4675,269.621002197266
0.024164595, 227.020535872067, -0.000303043543132363, 0.48,272.526489257813
0.024832475, 227.031536602812, -0.000237273346687984, 0.49375,272.526489257813
0.0254977216666667, 227.042648110654, -0.000309220232930192, 0.5075,283.830810546875
0.0261647083333333, 227.054457524044, -0.000425207907003552, 0.52,272.652038574219
0.0268312966666667, 227.066011547894, -0.00044954718446102, 0.53375,283.715667724609
0.027497785, 227.077521278389, -0.000287510323397971, 0.5475,275.055267333984
0.02816461, 227.089433791098, -0.00039259504511369, 0.5625,270.312438964844
0.0289978166666667, 227.101358966643, -0.000470424635843163, 0.57625,272.689056396484
0.02966454, 227.113209860065, -0.000291576619177842, 0.59,272.689056396484
0.03033152, 227.124440791805, -0.000452472037578726, 0.60375,271.317687988281
0.0309977366666667, 227.135887996939, -0.000792455460570705, 0.61625,270.970855712891
0.03166473, 227.146719547431, -0.000697066251855464, 0.6325,270.712890625
0.0324977533333333, 227.162653540139, -0.000531255580356195, 0.64625,324.031860351563
0.03316464, 227.173435907422, -0.000221762625862149, 0.65875,266.260498046875
0.0338313283333333, 227.18413049542, -0.000309766205540502, 0.6725,266.260498046875
0.03449791, 227.194372305385, -0.000207021366318948, 0.68625,264.565368652344
0.0351645383333333, 227.205349487576, -0.000464991908719383, 0.69875,262.299255371094
0.0358317483333333, 227.216000370283, -0.000296952349153044, 0.71125,266.690063476563
0.0364978383333333, 227.226227221745, -0.000139616251998715, 0.725,265.521240234375
0.03716457, 227.236432240386, 0.00020935471954788, 0.73875,265.521240234375
0.0378311783333333, 227.24708731472, 0.000297071813622703, 0.75125,266.300201416016
0.0384979983333333, 227.257071013708, 0.000384295432462583, 0.765,269.614318847656
0.0391649916666667, 227.2673976722, 0.000300518640496504, 0.7775,271.594818115234
0.039831165, 227.27756822005, -2.91662997573627E-05, 0.79125,271.935516357422
0.0404978833333333, 227.287849107567, -0.000174245012605368, 0.805,271.935516357422
0.041165055, 227.297633356828, 1.18116419534935E-05, 0.8175,269.455871582031
0.04183117, 227.307689995765, 0.0001133775404028, 0.83125,265.181182861328
0.0424978, 227.317432725985, 0.000390911600174329, 0.84375,273.394622802734
0.04316502, 227.326904900689, 0.000421784549480109, 0.8575,274.212585449219
0.0438313616666667, 227.335807866904, 0.000474146919388323, 0.87,274.212585449219
0.0444977683333333, 227.344825691749, 0.000358799713141424, 0.88375,281.723785400391
0.0451645566666667, 227.353444431692, 0.000314047960994349, 0.8975,281.674011230469
0.0458313983333333, 227.362479197141, -7.39735491073591E-05, 0.91,279.370361328125
0.0464981216666667, 227.37189255589, -0.000226908867318637, 0.92375,286.176879882813
0.0471655666666667, 227.381461520955, -0.000438831722696294, 0.9375,286.176879882813
0.047831145, 227.391402321415, -0.000688864663836934, 0.95125,287.762634277344
0.0484976983333333, 227.400709503923, -0.000866524740162333, 0.96375,289.518829345703
0.0491647766666667, 227.410165281133, -0.000811227017729353, 0.9775,348.088134765625
0.0498317933333333, 227.418985508246, -0.000596037326470048, 0.99,288.969573974609
0.0504978033333333, 227.427719237949, -0.000327574811040973, 1.00375,288.969573974609
0.0511648683333333, 227.436438594247, -9.83098268010371E-05, 1.0175,288.552001953125
0.0518310983333333, 227.445916493566, -0.000331209128486435, 1.03125,289.810363769531
0.05249784, 227.45486854867, -0.000493881957602736, 1.04375,297.697723388672
0.053164905, 227.463686193472, -0.000572610003156032, 1.0575,289.830078125
0.0538315016666667, 227.472812192324, -0.000693191946441718, 1.07,289.830078125
0.0544977266666667, 227.481795424016, -0.000874058861672635, 1.085,285.412475585938
0.0551650116666667, 227.490919288494, -0.000535591862486145, 1.0975,291.653503417969
0.055831105, 227.499716890267, -5.73378847027774E-05, 1.11125,290.799163818359
0.05649807, 227.509205606462, 0.000110098705125926, 1.12375,292.775268554688
0.0571646766666667, 227.518115351955, 0.00015417999097973, 1.13875,292.775268554688
0.057831145, 227.527607823857, 0.000196593360599553, 1.15125,299.511169433594
0.0584979033333333, 227.536460480993, -2.46110285582671E-05, 1.165,289.114807128906
0.0591645516666667, 227.545890977005, -0.000331474615105812, 1.1775,287.789916992188
0.0598314966666667, 227.555305224838, -0.000669965613082754, 1.19125,289.097595214844
0.0604977316666667, 227.564713769624, -0.000775839295162111, 1.20375,289.097595214844
0.0611646566666667, 227.573507469833, -0.000780342069028347, 1.2175,294.556304931641
0.06183111, 227.583063328417, -0.000814066375049802, 1.23125,292.787139892578
0.0624978116666667, 227.592344496184, -0.000812222967660641, 1.24375,289.224243164063
0.0631651283333333, 227.60229438792, -0.000751341025696644, 1.2575,291.028198242188
0.0638356366666667, 227.6117637665, -0.00075496334374688, 1.27125,291.028198242188
0.06450241, 227.621908702525, -0.000928929105608178, 1.285,291.694610595703
0.06516892, 227.631798935448, -0.000763772401276254, 1.2975,290.166381835938
0.0658355866666667, 227.642097555366, -0.000768131182314761, 1.31125,355.556518554688
0.0665023366666667, 227.652011071151, -0.000821897481676966, 1.325,294.072387695313
0.0671689383333333, 227.66250184681, -0.000826358257638656, 1.33875,294.072387695313
0.067835645, 227.672403512331, -0.000651624534376619, 1.35125,290.689239501953
0.06850226, 227.682740272413, -0.000479511179429648, 1.365,289.314300537109
0.06916905, 227.692721500494, -0.000497415780113181, 1.3775,285.829772949219
0.069835645, 227.703177800108, -0.00038981718467252, 1.39125,285.532287597656
0.07050226, 227.713623426765, -0.000279302735703082, 1.405,285.532287597656
0.0711689166666667, 227.723919677496, -0.000136511407931365, 1.4175,282.746520996094
0.071835745, 227.734136797331, -0.000255950408587974, 1.43125,280.887878417969
0.07250229, 227.74490128502, -0.000420667635005981, 1.44375,273.83251953125
0.0731689133333333, 227.754622167239, -0.000246995858370229, 1.4575,272.804748535156
0.0738356566666667, 227.764567517855, -5.37215663076457E-05, 1.47,272.804748535156
0.0745024066666667, 227.774890652177, -0.000329494714553446, 1.48375,275.930694580078
0.0751691783333333, 227.78525980991, -0.000340274673088766, 1.4975,276.675476074219
0.0758358366666667, 227.795104376193, -0.000229188752815417, 1.51,272.765289306641
0.07650226, 227.80497128324, -0.000448731225436869, 1.52375,273.917755126953
0.0771691666666667, 227.814880044083, -0.000377025827129857, 1.53625,273.917755126953
0.077835595, 227.824660504505, -0.000214943968313456, 1.54875,278.687957763672
0.0785022816666667, 227.833948640957, -0.000467934760866165, 1.5625,278.579925537109
0.0791689133333333, 227.843281736782, -0.000615285859610187, 1.57625,278.793121337891
0.0798355916666667, 227.852815442473, -0.000930835509864785, 1.58875,275.423553466797
0.0805023133333333, 227.862013494106, -0.0011439688044059, 1.6025,275.423553466797
0.0811689183333333, 227.871523263997, -0.00118148342009578, 1.61625,282.987609863281
0.0818357766666667, 227.880337143888, -0.000798366663621632, 1.62875,277.804901123047
0.082502245, 227.889054747885, -0.000501137093152778, 1.6425,333.164825439453
0.0831690216666667, 227.897228492133, 0.000104563983121471, 1.655,287.034271240234
0.0838357733333333, 227.905535996323, 0.00027345399995198, 1.66875,287.034271240234
0.08450241, 227.913450782245, 0.000480496100450019, 1.6825,281.148376464844
0.0851689183333333, 227.92153133345, 0.00048699527395204, 1.69375,288.208343505859
0.085835795, 227.927695534625, 0.000625057339230121, 1.7075,287.613830566406
0.0865022333333333, 227.934365051958, 0.000662666450178653, 1.72125,294.859619140625
0.0871691266666667, 227.941526248362, 0.000294460444769041, 1.735,294.859619140625
0.0878355716666667, 227.948268378861, 0.000268291259220787, 1.74875,292.510620117188
0.08850235, 227.955100838607, 0.000503785430612665, 1.7625,291.067657470703
0.0891688983333333, 227.964057088907, 0.000402698008090506, 1.775,295.449462890625
0.089835725, 227.97268724413, 0.000491010572238438, 1.78875,290.395568847656
0.0905024066666667, 227.980480464668, 0.00125510819241141, 1.8025,290.395568847656
0.091169025, 227.98901098316, 0.00120764457647565, 1.815,299.71044921875
0.0918358516666667, 227.997369520297, 0.0010759016937712, 1.82875,300.702362060547
0.0925023216666667, 228.005390173165, 0.0012560336459595, 1.84125,293.531829833984
0.093169125, 228.013775536571, 0.0010437943065115, 1.855,295.510284423828
0.0938356333333333, 228.022500501834, 0.000739744578633316, 1.86875,295.510284423828
0.0945022333333333, 228.030816854242, 0.000732985918103261, 1.8825,291.953857421875
0.0951691466666667, 228.039014462571, 0.000892916884921562, 1.895,291.272796630859
0.095835835, 228.046966045866, 0.000911340459512385, 1.90875,294.260559082031
0.0965022483333333, 228.055177643105, 0.00106084844988836, 1.9225,294.189849853516
0.097169075, 228.063406043066, 0.000789875060583146, 1.93625,294.189849853516
0.0978356816666667, 228.07154667857, 0.000579212141980529, 1.94875,289.045196533203
0.09850232, 228.080607567387, 0.00019229007667895, 1.96125,351.702667236328
0.0991689333333333, 228.090023659629, -0.000220270200847113, 1.975,286.1826171875
0.0998356366666667, 228.099052306338, -0.00041463493807839, 1.98875,290.117126464844
0.100502311666667, 228.108339869562, -0.000220141207327178, 2.0025,290.117126464844
0.10116898, 228.117365605641, 0.000115600428729748, 2.01625,292.526672363281
0.101835723333333, 228.126222487237, 0.000549000659485364, 2.03,291.338806152344
0.102502246666667, 228.135143897603, 0.000894182821330453, 2.0425,288.760101318359
0.103168901666667, 228.144377085298, 0.000835702258761153, 2.055,293.596649169922
0.103835911666667, 228.152824460022, 0.00078180246608455, 2.06875,293.596649169922
0.104502661666667, 228.16107577802, 0.00070140050464217, 2.0825,292.628479003906
0.105169013333333, 228.16950741001, 0.00044972814587372, 2.09625,291.289581298828
0.105835578333333, 228.177754961171, 0.000289359201065905, 2.10875,297.047210693359
0.106502346666667, 228.185187174949, 0.000391361577580322, 2.1225,294.333526611328
0.107169036666667, 228.193333250131, 0.000223983484867108, 2.13625,294.333526611328
0.107835803333333, 228.201378285191, 0.000170566667912116, 2.14875,292.916137695313
0.108502498333333, 228.209147671711, -3.18106669053882E-05, 2.1625,291.689147949219
0.109169028333333, 228.216835339691, 3.7091372181837E-05, 2.175,290.195922851563
0.109835833333333, 228.225127723513, -0.000253361538642869, 2.18875,297.448059082031
0.110502246666667, 228.233134039135, 5.90997667128144E-05, 2.2025,297.448059082031
0.111168983333333, 228.241242553637, 0.000309590184817702, 2.215,287.462554931641
0.111835883333333, 228.249332300691, 0.000561732020009389, 2.2275,297.565704345703
0.11250233, 228.257546978002, 0.000656813744158199, 2.2425,288.314666748047
0.11316892, 228.265447255992, 0.00106495374370271, 2.255,293.286529541016
0.113835618333333, 228.273354559709, 0.000897709144261389, 2.26875,293.286529541016
0.114502523333333, 228.281379466294, 0.000315316897209537, 2.2825,289.753875732422
0.115168931666667, 228.288678159238, 0.000162066594767305, 2.29375,344.574432373047
0.115835626666667, 228.296146503927, 0.000101162153937259, 2.3075,291.764007568359
0.11650232, 228.303804026579, -1.5326494950552E-05, 2.32125,286.374755859375
0.11716892, 228.311410145632, 5.35140472361396E-05, 2.33375,286.374755859375
0.117836241666667, 228.319387059932, 0.000204698953413766, 2.3475,289.814910888672
0.118502246666667, 228.327289474617, 0.00011686036546228, 2.36125,287.737731933594
0.119169105, 228.335192062517, -0.000153505554332087, 2.37375,290.926239013672
0.119835731666667, 228.3429272287, -0.000344393466286514, 2.3875,288.406646728516
0.120502236666667, 228.350260311823, -0.000508456725537176, 2.4,288.406646728516
0.121168911666667, 228.357764682226, -0.000571612553321595, 2.41375,293.62255859375
0.121835643333333, 228.365364658563, -0.000479346187745289, 2.4275,286.274322509766
0.122502356666667, 228.372857423866, -0.000544115934442662, 2.44,291.619293212891
0.123168903333333, 228.380400416221, -0.000302683561318089, 2.45375,294.862030029297
0.12383582, 228.388113712786, -0.000413295505394993, 2.46625,294.862030029297
0.12450225, 228.395789656703, -9.31710849028036E-05, 2.47875,297.871307373047
0.125168975, 228.403336654757, -0.000288071295273568, 2.49375,294.667510986328
0.125835591666667, 228.411129937903, -9.35400663910215E-05, 2.50625,303.305694580078
0.126502248333333, 228.41902040565, -0.000213126059724166, 2.51875,297.677581787109
0.127168921666667, 228.426661884485, -6.80278478376648E-05, 2.53125,297.677581787109
0.127835576666667, 228.435723575137, -0.000295825905819927, 2.545,301.263427734375
0.128502245, 228.444696701174, -0.000140808692175608, 2.55875,285.44580078125
0.129168958333333, 228.453088750006, -0.000231746124475578, 2.5725,286.426727294922
0.129836538333333, 228.461945081633, -0.000497031799444693, 2.58625,287.478942871094
0.13050312, 228.470860100293, -0.000592559001205033, 2.59875,287.478942871094
0.131169086666667, 228.47759423879, -0.000268237791488634, 2.6125,291.617156982422
0.131835621666667, 228.484772547451, -2.97737692682068E-05, 2.62625,340.898040771484
0.132502985, 228.49189904338, 0.000204433466773136, 2.63875,282.888702392578
0.133168978333333, 228.498951182369, 0.000602558469313008, 2.6525,279.951538085938
0.133835601666667, 228.505550422469, 0.000984466286463077, 2.66625,279.951538085938
0.1345023, 228.512560451279, 0.00113822806319058, 2.68,283.280212402344
0.135169206666667, 228.519847751503, 0.0009722269012921, 2.69375,283.593780517578
0.135835598333333, 228.527147770272, 0.000662247971185128, 2.70625,284.756225585938
0.13650225, 228.533629107926, 0.000670089577325622, 2.71875,291.095550537109
0.13716893, 228.540943128106, 0.000450214121465392, 2.7325,291.095550537109
0.137835901666667, 228.547629599908, 7.5630436387914E-05, 2.74625,280.572998046875
0.138502401666667, 228.55439670262, 6.06656880023565E-05, 2.76,285.572814941406
0.139169933333333, 228.561128552186, 0.000230710646835916, 2.77375,287.418579101563
0.139835965, 228.568643421397, 0.000448504207263104, 2.78625,284.095581054688
0.140502313333333, 228.576116309687, 0.000593588919787468, 2.8,284.095581054688
0.141168921666667, 228.584010898358, 0.000893207870255794, 2.81375,286.695922851563
0.141835868333333, 228.592145435564, 0.000993771819054946, 2.8275,286.747375488281
0.14250232, 228.600675950189, 0.00103809459273767, 2.84,286.288269042969
0.143168933333333, 228.609083237033, 0.000704173865225114, 2.85375,287.33544921875
0.143835866666667, 228.617924696326, 0.000459143172883265, 2.8675,287.33544921875
0.144502246666667, 228.626741515714, 0.00026749929894458, 2.88125,287.550903320313
0.145169201666667, 228.635993623767, 0.000203942991323237, 2.89375,291.655670166016
0.145835635, 228.645385198944, 0.00034019764741909, 2.9075,282.942932128906
0.146502328333333, 228.654675620978, 0.000661588004341424, 2.92,287.616577148438
0.147168975, 228.664451403948, 0.00113168689174151, 2.93375,287.616577148438
0.147835883333333, 228.675182391693, 0.000890535004522853, 2.9475,275.662109375
0.148502231666667, 228.685648007754, 0.00117439874631758, 2.96125,340.054595947266
0.149168993333333, 228.696356443714, 0.00100746613115213, 2.97375,292.455108642578
0.149835701666667, 228.707309038702, 0.000608627164405023, 2.9875,290.455230712891
0.150502268333333, 228.717651030678, 0.000237317814894971, 3,290.455230712891
0.151169436666667, 228.728089658479, 0.000365255388750735, 3.01375,286.080383300781
0.151835856666667, 228.738054568149, 0.000191112635788598, 3.02625,285.318664550781
0.152502423333333, 228.748378209203, 5.49119769925169E-05, 3.04,280.444763183594
0.153169086666667, 228.758796309832, 0.000204268474982507, 3.05375,287.392761230469
0.153835968333333, 228.768962820002, 0.000317646280105354, 3.0675,287.392761230469
0.154502303333333, 228.779769512657, 2.98197373570889E-05, 3.08,289.293518066406
0.15516902, 228.790259105889, 3.98902315008897E-05, 3.09375,291.384460449219
0.155835566666667, 228.800726392429, 0.00039977765474601, 3.10625,290.300445556641
0.156502286666667, 228.810936371923, 0.000672004981043632, 3.12,289.773498535156
0.157168926666667, 228.821919976794, 0.000661330017259047, 3.1325,289.773498535156
0.157835701666667, 228.832047414732, 0.00109596318610794, 3.14625,290.510925292969
0.158502243333333, 228.842803694071, 0.00118881302236213, 3.16,293.194549560547
0.159168916666667, 228.853566061274, 0.00115639815051475, 3.17375,293.921508789063
0.159835783333333, 228.864665592502, 0.000987289144678853, 3.18625,288.721069335938
0.160502471666667, 228.875201061801, 0.000822789407320572, 3.19875,288.721069335938
