Time (min), Depth (µm), Load (N), Position (µm), Acoustic (aJ)
7.41833333333333E-06, 227.476692411662, 0.000406407818103563, 0,272.918334960938
0.000666671666666667, 227.47688609167, 0.000496697282976308, 0.0049999999999998,264.81005859375
0.00133342833333333, 227.476626919268, 0.000420325619021851, 0.0162499999999998,264.81005859375
0.00199980166666667, 227.477877494379, -7.21461446454728E-05, 0.0300000000000005,270.399139404297
0.00266776, 227.478593570941, -0.000343287525483849, 0.0449999999999999,279.579895019531
0.00333440666666667, 227.480926025199, -0.000409926178306492, 0.0587499999999998,282.920501708984
0.004001165, 227.483083299174, -0.000306231886746389, 0.0750000000000004,292.981750488281
0.00466812, 227.486546780174, -0.000388444257283567, 0.0924999999999997,292.981750488281
0.00549977, 227.49307173874, -0.000285276439316531, 0.10625,305.493408203125
0.00616774333333333, 227.499050714106, -0.000459681679113, 0.12,307.77880859375
0.006834905, 227.504498099958, -0.000727785712524681, 0.13375,304.766845703125
0.00750109166666667, 227.510537685744, -0.000934514328758676, 0.145,312.934326171875
0.00816783833333333, 227.515458258012, -0.000915601778727375, 0.16125,312.934326171875
0.009001195, 227.520664487253, -0.000890008564256243, 0.175,313.830413818359
0.009667885, 227.525720025814, -0.000799462612289286, 0.19,313.830413818359
0.0103344816666667, 227.530603502839, -0.000765876299291676, 0.2025,314.256622314453
0.01100113, 227.536700973524, -0.00107182643172886, 0.21625,317.527801513672
0.0116678733333333, 227.543187179902, -0.00106078848613241, 0.22875,318.447662353516
0.0123344916666667, 227.549840214388, -0.00109850409169232, 0.24375,325.692321777344
0.01300115, 227.557626009178, -0.00104003252866944, 0.25625,325.692321777344
0.013667765, 227.566281674079, -0.00113898405841628, 0.27,324.580902099609
0.014334485, 227.575076615425, -0.000719971105023445, 0.2825,377.676147460938
0.015001125, 227.585397950752, -0.00101413782935075, 0.296250000000001,320.981414794922
0.0156683016666667, 227.596341796577, -0.00145988394001624, 0.31,314.378326416016
0.0163344766666667, 227.607211176364, -0.00179420064763503, 0.32375,314.378326416016
0.0170011033333333, 227.618376488821, -0.00195919536017391, 0.3375,323.141632080078
0.0176677933333333, 227.629821616471, -0.00206843937291874, 0.35,320.643798828125
0.01833443, 227.640967752447, -0.00196834040083337, 0.36375,328.438293457031
0.0190014866666667, 227.651394582034, -0.0019824141938896, 0.3775,326.827484130859
0.0196679183333333, 227.662454402357, -0.00167107633208199, 0.39125,326.827484130859
0.0203344733333333, 227.673128699726, -0.00114874706812118, 0.40375,323.028442382813
0.0210011616666667, 227.684117971274, -0.00108866158616409, 0.4175,322.744049072266
0.0216678966666667, 227.694517451198, -0.000974013344816633, 0.43,322.216583251953
0.0223348166666667, 227.705833329021, -0.000594092927819691, 0.44375,319.470336914063
0.0230010983333333, 227.716548621014, -0.000825700794381344, 0.45625,319.470336914063
0.023667965, 227.728147008887, -0.0012068511496015, 0.47,318.668548583984
0.0243344316666667, 227.738616191495, -0.000972879401776483, 0.48375,317.883239746094
0.0250010866666667, 227.750232319963, -0.000892898919133927, 0.49625,316.235076904297
0.025668395, 227.761324303514, -0.000766785253671337, 0.51,312.997497558594
0.0263355616666667, 227.772620817374, -0.000541136587784025, 0.52375,312.997497558594
0.0270011633333333, 227.783536404114, -0.000164409510372971, 0.53625,316.937744140625
0.0276678483333333, 227.795248716085, -0.000300130193274993, 0.55,317.9423828125
0.0283345016666667, 227.806500012695, -0.000347650806359328, 0.56375,308.180633544922
0.0290013583333333, 227.818283889464, -0.000483641475696444, 0.57625,313.524810791016
0.0296677983333333, 227.829981248874, -0.000379723695379001, 0.59,313.524810791016
0.03033442, 227.841433554802, -0.000690260597427747, 0.60375,310.275970458984
0.0310012533333333, 227.853053553339, -0.00064361144054923, 0.615,370.377319335938
0.0316678033333333, 227.864444473447, -0.00071997410491476, 0.62875,304.211242675781
0.0323347116666667, 227.875808119984, -0.000623296460967088, 0.6425,304.211242675781
0.0330011133333333, 227.886867195137, -0.000308438275968663, 0.655,305.588317871094
0.0336679516666667, 227.898717853532, -6.01902452079654E-05, 0.66875,306.406768798828
0.0343345883333333, 227.91058520235, -0.000200232211059667, 0.6825,311.111175537109
0.0350012283333333, 227.92204583556, -2.76613791271933E-05, 0.695,305.757720947266
0.03566788, 227.933682914797, 0.000260628640389203, 0.70875,305.826049804688
0.0363344433333333, 227.945034557662, 0.000187076834801715, 0.7225,305.826049804688
0.0370011166666667, 227.956428150654, 0.000325993857159686, 0.735,310.422058105469
0.0376679883333333, 227.967187804443, 0.000547924209856207, 0.74875,303.071594238281
0.0383344883333333, 227.978642889217, 0.000597039242857508, 0.76,312.939971923828
0.039001145, 227.989509991789, 0.000327120300599074, 0.77375,319.774719238281
0.039667945, 228.001156489099, -0.00016372704462071, 0.7875,319.774719238281
0.0403344766666667, 228.011880174425, -0.000401582097427145, 0.8,319.133514404297
0.0410011166666667, 228.023444365317, -0.00049404945289474, 0.815,316.204528808594
0.0416678033333333, 228.034441926382, -0.000679804622627293, 0.8275,321.017456054688
0.0423345666666667, 228.046330053256, -0.000907928164205062, 0.84,325.306976318359
0.0430011466666667, 228.057631725427, -0.000659999617406021, 0.85375,325.306976318359
0.04366786, 228.069432706212, -0.000258799769265609, 0.8675,326.107391357422
0.044334555, 228.080913448852, 0.000105378938419871, 0.88,330.266174316406
0.0450013016666667, 228.09314950023, 0.000315387889897651, 0.8925,320.475646972656
0.0456678016666667, 228.104605622221, 0.000657178722093114, 0.90625,314.543090820313
0.046334595, 228.116807478647, 0.000487484745676187, 0.92,314.543090820313
0.0470011766666667, 228.129402913282, 4.28620786225275E-05, 0.9325,315.888488769531
0.0476678183333333, 228.141410421138, -0.000214910473735423, 0.9475,376.942901611328
0.0483344983333333, 228.153527582424, -0.00031370001164671, 0.96,321.228729248047
0.0490013783333333, 228.166138741109, -0.000568069234938553, 0.975,321.228729248047
0.0496681116666667, 228.179437488847, -0.000413633992047715, 0.9875,320.588043212891
0.05033446, 228.191312786261, -0.000559443168207631, 1.00125,321.061614990234
0.0510011666666667, 228.2038779066, -0.000998070636422526, 1.01375,316.739624023438
0.0516677916666667, 228.215501559403, -0.00119955701595321, 1.02625,311.854583740234
0.0523343916666667, 228.226619003621, -0.00114174091997957, 1.04,315.820587158203
0.0530011466666667, 228.236676941496, -0.00123483824382406, 1.05375,315.820587158203
0.05366781, 228.247848203222, -0.000920290543262123, 1.0675,319.816467285156
0.0543345466666667, 228.25848931037, -0.000780046087594728, 1.08,317.342376708984
0.0550011333333333, 228.269431379148, -0.000260332692260788, 1.09375,320.830963134766
0.05566779, 228.280794183166, -0.000123280076297386, 1.10875,310.439208984375
0.0563344466666667, 228.292204046412, -7.14936774662934E-05, 1.12125,310.439208984375
0.0570013716666667, 228.302897128809, -8.50604960104571E-05, 1.135,317.776214599609
0.05766779, 228.3132028602, 0.000181669606456552, 1.14875,315.9833984375
0.0583344466666667, 228.324413218646, -0.000478246246682745, 1.16125,318.862121582031
0.059001245, 228.334590936444, -0.000631366055638132, 1.175,314.216522216797
0.0596677866666667, 228.344886505343, -0.000988418621229743, 1.18875,314.216522216797
0.0603345683333333, 228.355263773059, -0.00111080947370708, 1.20125,312.965972900391
0.0610012, 228.365477194648, -0.0011364881839117, 1.215,312.039642333984
0.0616678016666667, 228.375101811024, -0.00100189244452467, 1.22875,314.631408691406
0.0623344583333333, 228.384973459706, -0.00104266189670096, 1.2425,317.321472167969
0.0630011233333333, 228.39412452268, -0.000942838910705798, 1.255,317.321472167969
0.0636678983333333, 228.403242337869, -0.000900898017336763, 1.26875,317.1611328125
0.0643344283333333, 228.412150959166, -0.0010312534696919, 1.2825,383.019226074219
0.06500113, 228.420550099048, -0.00118774360935527, 1.295,320.978179931641
0.0656678816666667, 228.428582394412, -0.00120810658653957, 1.30875,320.978179931641
0.0663347283333333, 228.436592321775, -0.00105091148227914, 1.3225,314.521087646484
0.0670011783333333, 228.44444595595, -0.00134783806797603, 1.335,316.062530517578
0.0676677766666667, 228.452209015968, -0.00136570967028018, 1.3475,318.598236083984
0.0683345383333333, 228.45919996283, -0.00112746013733444, 1.36125,322.341949462891
0.069001125, 228.466597784642, -0.00138475571364714, 1.375,321.342620849609
0.069667795, 228.472778467172, -0.00124488923899312, 1.3875,321.342620849609
0.0703344866666667, 228.478903680883, -0.000979846551819845, 1.40125,325.925262451172
0.07100123, 228.484927890165, -0.000909170101823501, 1.415,326.048858642578
0.07166775, 228.491310398361, -0.00113851008230485, 1.4275,321.8154296875
0.0723345016666667, 228.496239385324, -0.00106135395778122, 1.44125,316.102996826172
0.0730011633333333, 228.502522612417, -0.00118985400337322, 1.45375,316.102996826172
0.0736678116666667, 228.507502240696, -0.00133421725215335, 1.4675,326.9453125
0.0743345616666667, 228.512839286823, -0.00168894643448299, 1.48125,319.281402587891
0.0750012283333333, 228.517339605282, -0.00173760249055313, 1.49375,312.246215820313
0.0756678533333333, 228.522672392302, -0.00179886391345492, 1.5075,313.801635742188
0.0763344716666667, 228.52737363253, -0.00203252817675601, 1.52125,313.801635742188
0.0770011833333333, 228.532931510053, -0.00211028727097477, 1.53375,315.380187988281
0.0776678466666667, 228.538057618783, -0.00198001281453741, 1.5475,317.607238769531
0.0783344433333333, 228.543574819006, -0.00170565259537704, 1.56,316.009460449219
0.0790013716666667, 228.548816817953, -0.00141994094635618, 1.57375,319.20751953125
0.079667785, 228.554636045577, -0.00142215633510362, 1.58625,319.20751953125
0.080334425, 228.560607961018, -0.00134235134361624, 1.6,386.847015380859
0.0810011266666667, 228.567034787532, -0.00118497624836366, 1.61375,314.309906005859
0.0816678883333333, 228.573070050657, -0.00128330530939813, 1.62625,324.173461914063
0.0823345766666667, 228.57951289838, -0.00162795049822184, 1.63875,314.864868164063
0.0830011383333333, 228.585119559417, -0.00142196884444694, 1.6525,314.864868164063
0.08366782, 228.591007210915, -0.00141514418726439, 1.66625,315.195617675781
0.0843345083333333, 228.596384261266, -0.00125225536901277, 1.67875,319.270599365234
0.08500105, 228.602721862245, -0.00144103138698233, 1.6925,325.898559570313
0.0856678066666667, 228.608989115724, -0.00130394727256395, 1.705,322.177093505859
0.0863345033333333, 228.616180913592, -0.00157913994993816, 1.71875,322.177093505859
0.0870013683333333, 228.623416300255, -0.00167934541671992, 1.7325,305.556274414063
0.0876678883333333, 228.63106921645, -0.00183743747594352, 1.745,308.222076416016
0.0883344516666667, 228.638534003174, -0.00187131027454467, 1.75875,301.285278320313
0.089001125, 228.646134793598, -0.0019448380813417, 1.7725,303.189361572266
0.0896678683333333, 228.653174007028, -0.00149575613827201, 1.78625,303.189361572266
0.090334475, 228.660399090144, -0.0016174990232371, 1.8,306.381622314453
0.09100116, 228.667773805784, -0.00162744202380663, 1.81375,308.433654785156
0.091667895, 228.675090278476, -0.0016475665129683, 1.825,309.606750488281
0.0923344683333333, 228.681684514518, -0.00139436273112908, 1.83875,307.909362792969
0.0930011733333333, 228.688580892805, -0.00145368025162166, 1.8525,307.909362792969
0.0936677416666667, 228.695643248091, -0.00127028296347612, 1.86625,301.84765625
0.0943345933333333, 228.702195548578, -0.00123192389024094, 1.88,302.416290283203
0.0950012183333333, 228.709287719471, -0.00119978200467746, 1.8925,305.510650634766
0.0956680216666667, 228.716083780791, -0.00140098489849593, 1.905,304.923004150391
0.0963345, 228.722691676537, -0.00118969051159201, 1.91875,304.923004150391
0.0970010933333333, 228.728783379613, -0.00106975203598159, 1.9325,368.235931396484
0.097667785, 228.735310446556, -0.00115281636370735, 1.945,308.755767822266
0.09833443, 228.741683408254, -0.000915042306861198, 1.95875,306.221221923828
0.099001435, 228.748453616786, -0.000752409975703784, 1.9725,306.219360351563
0.0996663433333333, 228.754960832329, -0.00101645071320565, 1.98625,306.219360351563
0.100333221666667, 228.761715581991, -0.00106953904665257, 2,303.426818847656
0.101000456666667, 228.767940055911, -0.00119154741832206, 2.0125,309.185760498047
0.101666503333333, 228.773663733092, -0.00144117087999434, 2.02625,302.343658447266
0.10233478, 228.779807656083, -0.00160839298059087, 2.03875,306.909240722656
0.103001436666667, 228.785453229953, -0.0015662780959698, 2.0525,306.909240722656
0.10366809, 228.791124014887, -0.00168618507316775, 2.06625,311.135284423828
0.104334811666667, 228.796649780058, -0.00128226136182218, 2.08,311.922912597656
0.105001433333333, 228.802586334633, -0.00113531824262211, 2.0925,302.217590332031
0.105668075, 228.80811582177, -0.00110786962134534, 2.10625,308.130004882813
0.106334751666667, 228.814181981826, -0.00125546670771275, 2.12,308.130004882813
0.1070014, 228.819540886337, -0.00155089186884818, 2.13375,292.808471679688
0.107668001666667, 228.825254718543, -0.001589535927805, 2.14625,297.583984375
0.10833476, 228.830060957509, -0.00142513818530614, 2.15875,299.376525878906
0.109001418333333, 228.83566759827, -0.00148735806007164, 2.1725,298.748901367188
0.109668153333333, 228.840834289508, -0.00124136441605035, 2.18625,298.748901367188
0.11033486, 228.846497473824, -0.000797842693678718, 2.19875,290.939636230469
0.111001358333333, 228.85171863981, -0.000956744712186352, 2.2125,284.531494140625
0.111668663333333, 228.857479217806, -0.00107172143704188, 2.22625,295.341461181641
0.112334665, 228.862703783751, -0.00057699078684068, 2.23875,293.649810791016
0.11300138, 228.868453785519, -0.000614601397713616, 2.2525,293.649810791016
0.113667988333333, 228.873627574126, -0.000664755878496407, 2.265,350.095092773438
0.114334715, 228.879342933756, -0.000699596128507681, 2.27875,287.064025878906
0.115001331666667, 228.884757711065, -0.000726203292066703, 2.29125,288.742523193359
0.115668001666667, 228.89014622127, -0.000992237429461822, 2.305,291.403442382813
0.116334723333333, 228.895213928562, -0.00105733715957042, 2.31875,291.403442382813
0.117001318333333, 228.899807266897, -0.000703062454398725, 2.33125,283.522399902344
0.117668025, 228.904480587115, -0.000569036686369942, 2.345,282.959838867188
0.118334801666667, 228.909335556275, -0.000581570056808974, 2.3575,283.972351074219
0.119001546666667, 228.913996144942, -0.000491645073629982, 2.37,283.853149414063
0.119668036666667, 228.919225830666, -0.000243826021312378, 2.38375,283.853149414063
0.120334706666667, 228.925056945008, -0.000853234911327849, 2.3975,283.35205078125
0.12100132, 228.931286284941, -0.000616452304661031, 2.41,293.050079345703
0.12166816, 228.937493653048, -0.000733323434314181, 2.42375,294.364715576172
0.122334741666667, 228.944371607743, -0.00102151145892865, 2.4375,284.975433349609
0.123001433333333, 228.950455131757, -0.00109081547788347, 2.45,284.975433349609
0.123667995, 228.957146321804, -0.000945702266774191, 2.46375,296.408630371094
0.12433471, 228.963101749358, -0.00116003850089926, 2.47625,293.307739257813
0.125001481666667, 228.96967362277, -0.0010891685606549, 2.48875,287.892578125
0.12566812, 228.975249083846, -0.000845430803361199, 2.5025,293.452789306641
0.126334753333333, 228.981572505745, -0.000793233425179851, 2.515,293.452789306641
0.127001341666667, 228.987760025433, -0.000820515554826609, 2.52875,287.314270019531
0.127668071666667, 228.994533872981, -0.000967460173951078, 2.54375,292.357513427734
0.128334738333333, 229.001712347539, -0.000949161093085726, 2.55625,294.893005371094
0.129001375, 229.009685929047, -0.00082501532880153, 2.56875,295.811950683594
0.129668078333333, 229.018370434263, -0.00083986908269623, 2.5825,295.811950683594
0.130334693333333, 229.027851900792, -0.000373666999554687, 2.59625,359.0966796875
0.131001366666667, 229.037525256387, 2.12211656128564E-05, 2.60875,292.665252685547
0.131668043333333, 229.048240563405, 0.000239113721114422, 2.6225,294.334747314453
0.132335075, 229.059111892611, 0.000449430157137379, 2.63625,292.845642089844
0.13300142, 229.070026707907, 0.00048888417542073, 2.65,292.845642089844
0.133668073333333, 229.081402908575, 0.000391242079890477, 2.6625,296.457366943359
0.134334671666667, 229.093101855734, 0.000288626234188857, 2.67625,294.742401123047
0.135001325, 229.103978259622, 0.00016917373417011, 2.68875,289.226623535156
0.135667998333333, 229.115137178638, -0.000242128106569079, 2.7025,294.278015136719
0.136334658333333, 229.126373930311, -0.000544314928040864, 2.71625,294.278015136719
0.137001356666667, 229.137172646737, -0.000701307542485594, 2.73,294.691680908203
0.137668118333333, 229.147909867728, -0.000494434933487632, 2.74375,294.871673583984
0.138334643333333, 229.158238250881, -0.000550058139601135, 2.75625,292.113311767578
0.139001351666667, 229.169056155131, -0.000382221069914253, 2.77,291.930450439453
0.139668078333333, 229.179498643923, -0.000163647548606084, 2.78375,291.930450439453
0.140334755, 229.190593252233, -0.000564557911272904, 2.79625,291.848114013672
0.141001341666667, 229.201162423719, -0.000636702787493833, 2.81,291.252746582031
0.141668095, 229.21236162648, -0.000863537893817917, 2.82375,293.058624267578
0.142334745, 229.222809886225, -0.000747884702907737, 2.83625,288.358917236328
0.143001341666667, 229.233824432988, -0.00079148601290999, 2.85,288.358917236328
0.143668058333333, 229.244115036973, -0.000461204102637356, 2.86375,290.138061523438
0.144334723333333, 229.254846932498, -0.000659890122882075, 2.8775,288.738677978516
0.145001366666667, 229.264717762119, -0.000102323128879363, 2.89,294.913208007813
0.145668148333333, 229.27532096728, -0.00021877877947281, 2.90375,292.035705566406
0.146334831666667, 229.285227257144, -0.000232381596181398, 2.9175,292.035705566406
0.147001365, 229.294760979314, -7.12116916147186E-05, 2.93,349.817749023438
0.147668083333333, 229.304681124529, -5.03201574448832E-06, 2.94375,292.537933349609
0.148334728333333, 229.315101901729, -0.000600128624638598, 2.95625,288.607574462891
0.149001446666667, 229.325003967628, -0.000823236418140455, 2.97,287.943145751953
0.149668086666667, 229.334844309128, -0.000876833226045091, 2.98375,287.943145751953
0.150334576666667, 229.344747457186, -0.00112963802790803, 2.9975,293.812072753906
0.151001771666667, 229.353810742354, -0.000881403496445711, 3.01,292.326110839844
0.151668005, 229.363069041722, -0.000548168234512965, 3.02375,298.751342773438
0.152334806666667, 229.372264917277, -0.000298598770119202, 3.03625,298.247711181641
0.153001926666667, 229.381899567667, -0.000277310339450567, 3.05125,298.247711181641
0.153668066666667, 229.391906071083, -0.000287022351619481, 3.06375,295.609191894531
0.15433476, 229.402292059648, -0.000739860106032554, 3.0775,294.087249755859
0.155001343333333, 229.413028496541, -0.00130122790908949, 3.08875,293.624359130859
0.155668093333333, 229.423030057722, -0.00153593312016024, 3.1025,303.060424804688
0.156334716666667, 229.43306998125, -0.00147199133186099, 3.11625,303.060424804688
0.157001405, 229.44298638995, -0.00122142591751468, 3.13,300.916656494141
0.157668181666667, 229.452859429466, -0.00106429530998235, 3.14375,296.669525146484
0.15833466, 229.462317418954, -0.000598138224594155, 3.15625,301.993804931641
0.159001443333333, 229.472167375805, -0.000291937604675358, 3.16875,294.181396484375
