Time (min), Depth (µm), Load (N), Position (µm), Acoustic (aJ)
8.07833333333333E-06, 226.742782003068, 0.000752399877616991, 0,241.582504272461
0.00066436, 226.74220572377, 0.000865923175470717, 0.00500000000000001,241.582504272461
0.00133112, 226.742467101963, 0.000805543708245573, 0.0174999999999999,245.665985107422
0.0019975, 226.742821669829, 0.000699575530950065, 0.0325,247.206649780273
0.002664265, 226.743519808846, 0.000417594194578984, 0.0475,245.74169921875
0.003330835, 226.74412170375, 0.000670850473793578, 0.0599999999999999,246.929672241211
0.00399787333333333, 226.745774770618, 0.00049384436461427, 0.075,246.929672241211
0.004664215, 226.747989325128, 0.000457510189621047, 0.0887499999999999,259.236572265625
0.00533083166666667, 226.751041647307, 0.000469520086358326, 0.10375,257.562408447266
0.00599753, 226.755116511669, 0.000320820555363234, 0.11625,248.058288574219
0.00666423333333333, 226.760074154386, 0.000188071223214164, 0.12875,243.732955932617
0.00733105333333333, 226.764462166004, 0.000175153872042881, 0.1425,243.732955932617
0.00799756, 226.770179065697, 0.000258081706669192, 0.15625,250.492446899414
0.00866416833333333, 226.776744122192, -3.52045618421126E-05, 0.17,249.379135131836
0.009331125, 226.784323822929, 7.90072014189791E-05, 0.18375,253.79182434082
0.00999750666666667, 226.793323980703, -0.000114039102070547, 0.19625,246.72282409668
0.0106643016666667, 226.803727061781, -7.47680746069016E-05, 0.21,246.72282409668
0.0113311366666667, 226.814819733629, -0.000239198815442632, 0.22375,248.683883666992
0.0119975583333333, 226.826427595474, -0.000432087626827308, 0.2375,251.582962036133
0.0126646666666667, 226.837765291054, -0.000325606475279616, 0.25125,254.660202026367
0.0133309633333333, 226.848993135248, -0.000317157399670786, 0.2625,247.836532592773
0.013997665, 226.860667423844, -0.000484896974271456, 0.2775,247.836532592773
0.014664185, 226.87216882553, -0.000697079316570877, 0.29,250.341323852539
0.015330835, 226.883352391178, -0.000248057370477314, 0.305,245.558837890625
0.01599752, 226.894539139567, -0.000315802967700849, 0.3175,250.843948364258
0.016664425, 226.906373013892, -0.000410112230633203, 0.33,246.751022338867
0.0173308116666667, 226.917507455859, -0.000334229542140478, 0.34375,246.751022338867
0.0179976916666667, 226.928829583037, -0.000115990504059251, 0.3575,247.750152587891
0.0186647566666667, 226.94032489503, -0.000439822738292663, 0.37,250.264404296875
0.0193309116666667, 226.952186967051, -0.000797814256752, 0.38375,244.273132324219
0.01999752, 226.963120172056, -0.000469645740324876, 0.3975,247.174652099609
0.0206642, 226.974721622815, -0.000378906298088645, 0.41,247.174652099609
0.0213312383333333, 226.985723695804, -0.000408556808814483, 0.425,252.477737426758
0.021997575, 226.997203036524, -0.000151993195759354, 0.4375,251.944107055664
0.0226641783333333, 227.008336102651, -0.000101939209911581, 0.45,246.802658081055
0.0233308883333333, 227.019969391343, -0.000307656876885239, 0.46375,257.805053710938
0.02399752, 227.031285769646, -0.000438673796050989, 0.47625,257.805053710938
0.0246643933333333, 227.042807523414, -0.000251363204457209, 0.49,250.72819519043
0.0253308383333333, 227.05402683047, -0.000373148087284341, 0.50375,246.540573120117
0.0259975566666667, 227.065392049953, -0.000207886388222935, 0.5175,250.961486816406
0.0266645666666667, 227.076366633266, -0.000137764910362066, 0.53,250.286926269531
0.0273310566666667, 227.087713998368, -1.17532397801519E-05, 0.54375,250.286926269531
0.0279975166666667, 227.098928677822, -0.000467010372680762, 0.56,247.385864257813
0.0288308683333333, 227.110368330558, -0.000337989853299576, 0.57375,251.1611328125
0.0294974933333333, 227.121795619242, -0.000370122739252872, 0.5875,248.152542114258
0.0301644783333333, 227.133443955631, -0.000443925032236959, 0.6,248.937347412109
0.03083113, 227.144961493923, -0.000546350387518111, 0.6125,245.141815185547
0.0314976416666667, 227.156581073647, -0.000548114298956408, 0.62625,245.141815185547
0.0321644283333333, 227.167912857215, -0.000801856553677657, 0.64,293.832305908203
0.0328308616666667, 227.179145687131, -0.000657929783005149, 0.65375,247.265472412109
0.0334975816666667, 227.189808934133, -0.000868315215550655, 0.66625,250.187683105469
0.0341643633333333, 227.200767364801, -0.000806851302833178, 0.67875,248.309310913086
0.03483097, 227.211054923448, -0.000506561886029071, 0.6925,248.309310913086
0.03549748, 227.221459647536, -0.000353622068087092, 0.70625,242.460754394531
0.036164245, 227.231970444534, -0.000231004727024864, 0.71875,247.930511474609
0.0368315033333333, 227.242312665807, 8.30629976642653E-05, 0.7325,247.449554443359
0.0374974983333333, 227.252500317989, -0.000119251340285794, 0.745,245.673614501953
0.0381641533333333, 227.263177348017, -0.000419200274186599, 0.75875,245.673614501953
0.0388311516666667, 227.273279151194, -0.000518328795034276, 0.7725,242.846740722656
0.0394975266666667, 227.283297302935, -0.000611945092807308, 0.785,248.135238647461
0.04016419, 227.29354151833, -0.000695243408803732, 0.79875,249.083694458008
0.0408310483333333, 227.303453583771, -0.000587422824530135, 0.81125,245.973602294922
0.0414975433333333, 227.312761317572, -0.000277953868826541, 0.82375,245.973602294922
0.0421641683333333, 227.322236162973, -1.76194451627441E-05, 0.8375,248.199905395508
0.0428310816666667, 227.33182088004, -0.000203124127434936, 0.85125,248.360458374023
0.0434976433333333, 227.341083925516, 1.17100816770349E-05, 0.86375,250.383773803711
0.04416426, 227.349737069996, 0.000339410621562818, 0.8775,256.002960205078
0.0448310366666667, 227.35912362226, 0.000307204239292508, 0.89125,256.002960205078
0.0454976283333333, 227.368092256707, 4.64183382770603E-05, 0.90375,262.911437988281
0.0461643383333333, 227.377199421609, 4.69928094297785E-05, 0.9175,258.943603515625
0.0468308316666667, 227.386403589, -0.000144471073538007, 0.93125,255.518966674805
0.0474974766666667, 227.396517871358, -0.000441826637635481, 0.94375,259.549621582031
0.0481642316666667, 227.405958741814, -0.000553676019557614, 0.9575,259.549621582031
0.048830805, 227.415968621022, -0.000672411555584079, 0.97125,302.792938232422
0.04949773, 227.425453098403, -0.000815216382632917, 0.98375,261.294677734375
0.0501644483333333, 227.435577936253, -0.000974418386084965, 0.9975,257.345947265625
0.05083244, 227.445217142623, -0.00133075398770555, 1.01125,258.650390625
0.0514974866666667, 227.455161150918, -0.00135613421286891, 1.02375,258.650390625
0.052164395, 227.464363681111, -0.00122765666616421, 1.0375,261.639007568359
0.0528310083333333, 227.474063025985, -0.00100560181974222, 1.05125,263.152038574219
0.05349777, 227.482950017816, -0.000744185950392387, 1.06375,256.195892333984
0.05416416, 227.492218525633, -0.00072045564228515, 1.0775,260.233673095703
0.0548308583333333, 227.50113226742, -0.000949000662726505, 1.09,260.233673095703
0.0554975333333333, 227.510212741617, -0.00108850565553557, 1.10375,264.132568359375
0.0561641533333333, 227.518926234623, -0.00153707312447118, 1.11875,259.801177978516
0.0568309, 227.527766559783, -0.00164008045050582, 1.1325,259.005310058594
0.0574975116666667, 227.535981860287, -0.00121833913417712, 1.14375,262.753143310547
0.0581641716666667, 227.54497465575, -0.00109616877065082, 1.1575,262.753143310547
0.0588310516666667, 227.554330500937, -0.00105231097355436, 1.17125,270.498870849609
0.0594974716666667, 227.563248192426, -0.000673419504868084, 1.185,263.616516113281
0.0601641916666667, 227.572321150254, -0.000491748630008242, 1.19875,265.461334228516
0.0608308683333333, 227.581995143491, -0.000678189265235592, 1.21125,265.492797851563
0.061497495, 227.591368369447, -0.000660922132529714, 1.225,265.492797851563
0.0621645966666667, 227.601270573361, -0.000679839182355479, 1.23875,260.605133056641
0.062831085, 227.611577697103, -0.000954254898740027, 1.2525,261.914367675781
0.06349753, 227.622669051255, -0.00129001003413784, 1.26625,260.605041503906
0.064164305, 227.633394451481, -0.00121277591354524, 1.27875,320.521453857422
0.0648309616666667, 227.644453288677, -0.00109669824402893, 1.2925,320.521453857422
0.0654980033333333, 227.654848364795, -0.00115752618871441, 1.305,266.612365722656
0.0661641783333333, 227.665358574558, -0.00078944917684599, 1.31875,262.679626464844
0.0668310116666667, 227.675413701548, -0.000353886054697049, 1.3325,271.471282958984
0.06749753, 227.68657082655, -0.000259785281278002, 1.345,262.980926513672
0.068164155, 227.697056521304, -0.000324927009291145, 1.35875,262.980926513672
0.0688312433333333, 227.708639811575, -0.000280914719938637, 1.37125,269.038818359375
0.0694975033333333, 227.720078098159, -0.00048102416861208, 1.385,260.563842773438
0.0701641883333333, 227.731331171267, -0.000554260990011122, 1.3975,258.8037109375
0.0708308333333333, 227.742161240793, -0.000483311553730876, 1.41125,266.343231201172
0.07149753, 227.753660109985, -0.000515312446357939, 1.42375,266.343231201172
0.0721641983333333, 227.764725667825, -0.00046972523616947, 1.43875,254.272888183594
0.0728308583333333, 227.775660258813, -0.000304913514492803, 1.45125,255.092330932617
0.07349752, 227.786683386752, -0.000590358176906122, 1.46375,250.224960327148
0.074164155, 227.797784041942, -0.000758129249961768, 1.4775,254.817977905273
0.0748308533333333, 227.808065658519, -0.000432126624734268, 1.49,254.817977905273
0.0754974916666667, 227.818610594048, -0.00020789988741504, 1.50375,256.379791259766
0.0761641683333333, 227.829418966525, -0.000234036074605168, 1.5175,257.307220458984
0.0768309916666667, 227.83999114762, 6.06271247421218E-05, 1.53125,253.30810546875
0.0774976683333333, 227.850193222775, -2.92288618718119E-05, 1.54375,258.250915527344
0.0781641583333333, 227.861150054276, -1.96278441512472E-05, 1.55625,258.250915527344
0.07883085, 227.871280979531, -0.000232923130527918, 1.57,255.315368652344
0.0794974916666667, 227.881461443853, -0.000273766079042481, 1.5825,252.968521118164
0.0801641883333333, 227.891207983143, -0.000571591119584445, 1.59625,253.769622802734
0.0808310183333333, 227.901675277793, -0.000749156700672439, 1.60875,311.458923339844
0.0814975, 227.911600199597, -0.0011465242413249, 1.6225,311.458923339844
0.0821645, 227.921577376181, -0.00152711662458203, 1.63625,254.931823730469
0.0828309933333333, 227.931331398991, -0.00180503016527009, 1.64875,261.422302246094
0.083497465, 227.941201403756, -0.00174764904745841, 1.6625,259.003112792969
0.084164145, 227.949911765408, -0.0013036458492258, 1.675,257.930297851563
0.0848310983333333, 227.959169259097, -0.00116610875757388, 1.68875,257.930297851563
0.0854976916666667, 227.966985500505, -0.000615966390600033, 1.70125,264.024200439453
0.086164155, 227.973694328666, -0.000259186811271069, 1.715,264.853973388672
0.08683106, 227.980611253178, -0.000301235699175884, 1.72875,263.044189453125
0.0874974733333333, 227.987785127858, -0.000495922920238878, 1.7425,266.225524902344
0.08816419, 227.994801469285, -0.000458549297464165, 1.755,266.225524902344
0.0888308833333333, 228.003053588331, -0.000764940407760921, 1.76875,267.6123046875
0.08949749, 228.012287578788, -0.000958636178623328, 1.7825,279.878540039063
0.0901643133333333, 228.021483021477, -0.000771783064100067, 1.795,269.854614257813
0.0908310866666667, 228.029857197298, -0.000685631891378549, 1.80875,264.538330078125
0.0914976483333333, 228.037956141522, -0.000439932232625322, 1.8225,264.538330078125
0.0921641583333333, 228.045836092261, -0.000255233009906458, 1.835,262.850952148438
0.09283094, 228.053800084865, -0.000106273991968348, 1.84875,266.767974853516
0.0934974966666667, 228.061697241579, -0.000425366464258556, 1.8625,265.715087890625
0.0941642166666667, 228.07026857412, -0.000652419059642366, 1.875,260.785491943359
0.0948310083333333, 228.078423710781, -0.000893174966733546, 1.88875,260.785491943359
0.0954975316666667, 228.087118131985, -0.00106380939596386, 1.90125,261.568603515625
0.0961641383333333, 228.094887164202, -0.00101567981344427, 1.91625,266.492156982422
0.0968309833333333, 228.103351598243, -0.00067914771712056, 1.92875,260.824523925781
0.0974974566666667, 228.110735021087, -0.000322348638774354, 1.94125,313.873291015625
0.0981645033333333, 228.118703774753, -0.000111495229730015, 1.955,313.873291015625
0.0988314233333333, 228.125733572285, 9.12015890491457E-05, 1.96875,265.727264404297
0.0994974883333333, 228.133931313922, -0.000127965902386476, 1.9825,261.627838134766
0.100164395, 228.140864488629, -0.000332938106846699, 1.99625,264.241729736328
0.100831068333333, 228.148854584209, -0.000526774870603013, 2.00875,264.019683837891
0.101497563333333, 228.156080281947, -0.000856306818589001, 2.0225,264.019683837891
0.102164171666667, 228.16393638059, -0.000722390545084164, 2.03625,266.271392822266
0.10283111, 228.170815147266, -0.000672483551891673, 2.04875,263.804412841797
0.103497501666667, 228.178450885773, -0.000495619935551928, 2.0625,266.804565429688
0.10416416, 228.185626030012, -0.000427979333100384, 2.07625,263.419158935547
0.104830935, 228.192279373423, -0.000169230329785879, 2.08875,263.419158935547
0.105498055, 228.199442054851, -0.000512723576476597, 2.10375,261.805725097656
0.106164153333333, 228.206901236645, -0.000373434572802855, 2.11625,267.893951416016
0.10683095, 228.214587591678, -0.000385235980026827, 2.13,266.432891845703
0.10749749, 228.222630591281, -0.00042404353076485, 2.1425,265.197082519531
0.10816427, 228.23165257256, -0.000538912261020839, 2.15625,265.197082519531
0.108831965, 228.239929315402, -0.000277404896261153, 2.16875,261.138610839844
0.10949748, 228.24881114172, -0.000565235938803882, 2.1825,267.458679199219
0.110164136666667, 228.256816560047, -0.000432977082062203, 2.19625,267.749847412109
0.110831163333333, 228.265163159495, -0.0005559874034031, 2.20875,265.565948486328
0.1114977, 228.273183541082, -0.000469248260209234, 2.2225,265.565948486328
0.112164195, 228.281749608376, -0.000475945423838756, 2.235,267.043151855469
0.112830893333333, 228.289895961785, -0.000194121579551271, 2.24875,273.912780761719
0.113497548333333, 228.29849286539, -0.000336339936073419, 2.2625,265.638427734375
0.114164188333333, 228.306672359602, 1.39359699165515E-05, 2.275,317.1572265625
0.11483093, 228.314902656497, 3.58948669209673E-05, 2.28875,317.1572265625
0.115497623333333, 228.32331102075, -0.000215687496362033, 2.3025,265.019561767578
0.116164596666667, 228.331594124431, -0.00036764936344431, 2.315,266.599487304688
0.116830963333333, 228.340254156132, -0.000610337173485696, 2.32875,264.260681152344
0.117497476666667, 228.348562044771, -0.000705918372524554, 2.34125,269.043762207031
0.118164201666667, 228.356696822088, -0.000857895238893371, 2.35375,269.043762207031
0.118830963333333, 228.364344389325, -0.000796366829405299, 2.3675,263.840667724609
0.119497536666667, 228.372369127515, -0.000763064002204921, 2.38125,267.356414794922
0.120164333333333, 228.379722610591, -0.000515721925975078, 2.39375,265.470611572266
0.120831068333333, 228.387382353091, -0.000668289762622541, 2.4075,259.331146240234
0.12149748, 228.395058170865, -0.000608315275050039, 2.42,259.331146240234
0.122164458333333, 228.402911818784, -0.000588721759169626, 2.43375,272.509094238281
0.122830866666667, 228.410279601534, -0.000454863982695262, 2.4475,274.364532470703
0.123497515, 228.418051888972, -0.000617686804273143, 2.46,265.477294921875
0.124164148333333, 228.42556612856, -0.000542702570646748, 2.4725,268.497406005859
0.12483109, 228.433746137684, -0.000597100338331503, 2.48625,268.497406005859
0.125497531666667, 228.441432183632, -0.000223973080125892, 2.49875,270.594299316406
0.126164155, 228.449443416465, -0.000393233578369023, 2.5125,265.410736083984
0.126831271666667, 228.457137773494, -0.000246918927600192, 2.52625,269.728790283203
0.127497611666667, 228.465727382637, -0.000404028536148376, 2.5375,267.904174804688
0.128164158333333, 228.474530110087, -0.000360598217570603, 2.5525,267.904174804688
0.12883099, 228.483279155558, -0.000683960975380779, 2.56625,263.009094238281
0.129497513333333, 228.492206516233, -0.000939167156659673, 2.58,260.665100097656
0.130164141666667, 228.501025860324, -0.000954649379028117, 2.59375,266.123626708984
0.130830848333333, 228.508730908307, -0.000649447708974431, 2.60625,315.05908203125
0.131497498333333, 228.516129242823, -0.000662719042411153, 2.61875,315.05908203125
0.132166141666667, 228.523451800391, -0.000764071951595197, 2.6325,266.110595703125
0.132830806666667, 228.530443205045, -0.00056165411879755, 2.64625,263.473083496094
0.133497465, 228.537745152091, -0.000456263412439805, 2.66,262.942413330078
0.134164295, 228.545121727445, -0.000811315078579912, 2.6725,256.879699707031
0.134831093333333, 228.552312420648, -0.000808030243562917, 2.68625,256.879699707031
0.135497508333333, 228.559507496016, -0.000680584644996439, 2.7,258.385925292969
0.136164263333333, 228.566939960253, -0.000768061751124232, 2.71375,259.888671875
0.136831136666667, 228.574012615696, -0.000852294520215172, 2.72625,258.458587646484
0.137497485, 228.581466004147, -0.00099152802662223, 2.74,263.405700683594
0.138164145, 228.588559029626, -0.000944844371503693, 2.75375,263.405700683594
0.13883084, 228.595648953028, -0.000665664894342979, 2.7675,259.832275390625
0.13949818, 228.602402974448, -0.000238267362069398, 2.78125,262.579711914063
0.14016417, 228.609910220867, -0.000208207371960216, 2.7925,258.465972900391
0.140831113333333, 228.617277656042, 0.000105057893045646, 2.80625,256.141937255859
0.141497491666667, 228.624634481345, 5.45584295863439E-05, 2.82,256.141937255859
0.1421642, 228.632358083529, 7.81777729797437E-06, 2.83375,261.664764404297
0.142830891666667, 228.639428899748, -0.000205323016886415, 2.8475,259.596282958984
0.143497508333333, 228.646263210009, 4.64903347971955E-05, 2.86125,257.828765869141
0.144164285, 228.653137797937, 8.59713516985512E-05, 2.87375,262.246154785156
0.144830846666667, 228.660368761445, 2.84552406480709E-05, 2.8875,262.246154785156
0.14549749, 228.667672148065, -0.000193355118032427, 2.90125,260.78515625
0.146164235, 228.675604030538, -0.000274144060077118, 2.91375,258.022705078125
0.146830838333333, 228.683291260627, -0.000737689776717918, 2.92875,315.435760498047
0.147498063333333, 228.691320463883, -0.000762902010305607, 2.94125,260.873046875
0.148164206666667, 228.699542783807, -0.000747235297235563, 2.95375,260.873046875
0.148830956666667, 228.708200781041, -0.000849899140539341, 2.9675,268.930755615234
0.149497671666667, 228.716906681526, -0.000854628402990469, 2.98125,263.697387695313
0.150164201666667, 228.726212382031, -0.000945685829263953, 2.995,261.304565429688
0.15083102, 228.736035624903, -0.00122423233815646, 3.0075,264.103271484375
0.1514975, 228.745366254444, -0.00124223593385061, 3.02125,264.103271484375
0.152164165, 228.754952368551, -0.00116797316403221, 3.03375,260.976287841797
0.152831008333333, 228.765376666655, -0.00142894055590045, 3.04875,268.086181640625
0.153497513333333, 228.77505265165, -0.00108004458055277, 3.06125,268.248077392578
0.154164776666667, 228.78473419282, -0.000677395805162506, 3.07375,265.317169189453
0.154830816666667, 228.795052458364, -0.000892645493376687, 3.0875,265.317169189453
0.155497493333333, 228.804868087286, -0.0010292061340508, 3.1,270.845703125
0.1561646, 228.815058398861, -0.000754842915041624, 3.11375,269.400329589844
0.156830863333333, 228.825509621187, -0.000862789492986349, 3.1275,270.269622802734
0.157497771666667, 228.836542982586, -0.00120023654336608, 3.14,267.250854492188
0.158164191666667, 228.847226172122, -0.000835715852895405, 3.1525,267.250854492188
0.158831101666667, 228.858138965066, -0.000622095082859465, 3.1675,266.994476318359
0.15949749, 228.868988376193, -0.000444914982406871, 3.18,269.779724121094
