Time (min), Depth (µm), Load (N), Position (µm), Acoustic (aJ)
8.13833333333333E-06, 227.266160355161, -0.000296085215588613, 0,163.351943969727
0.000665186666666667, 227.266026871631, -0.000115032309689183, 0.00375000000000028,161.828979492188
0.00133170833333333, 227.265525969479, 0.000145386109804958, 0.0150000000000003,161.828979492188
0.00199827333333333, 227.265031104388, 0.000200208356138343, 0.0300000000000005,169.095474243164
0.00266531666666667, 227.265434589559, -0.000187622663500388, 0.0449999999999999,173.870162963867
0.00333175333333333, 227.265751645481, -0.000288878077576967, 0.0600000000000002,190.014297485352
0.00399843, 227.266079497898, -0.000541661880498264, 0.0750000000000004,190.014297485352
0.00466558666666667, 227.267101643438, -0.000800592374686816, 0.0899999999999998,188.749298095703
0.00533176666666667, 227.269497119647, -0.00101257822682565, 0.103750000000001,191.766677856445
0.00599827666666667, 227.271741256569, -0.000732695285056044, 0.11625,199.059906005859
0.00666513166666667, 227.2751777484, -0.000910040377171743, 0.12875,201.788009643555
0.00733164333333333, 227.279447661763, -0.00103213724435977, 0.14375,201.099411010742
0.00799855833333333, 227.284351917718, -0.000953437697370136, 0.155,201.099411010742
0.00866494666666667, 227.289056967248, -0.0004723428622569, 0.168750000000001,244.854370117188
0.00933176, 227.294875735913, -0.000638354523668714, 0.18125,202.908493041992
0.00999836, 227.302132803911, -0.000465273717332862, 0.195,207.061798095703
0.0106649466666667, 227.310371325258, -0.000787540030255478, 0.20875,203.108917236328
0.011332255, 227.319678252179, -0.000964091662213075, 0.22375,203.108917236328
0.0119982833333333, 227.329890011813, -0.00126377660935514, 0.23625,204.560317993164
0.0126649683333333, 227.340582836052, -0.00152240861854494, 0.25,199.155075073242
0.0133320816666667, 227.350908539589, -0.00139747839367032, 0.26375,208.57942199707
0.0139988883333333, 227.361595986552, -0.00104616453982326, 0.27625,201.341430664063
0.0146658583333333, 227.372143741408, -0.000906794540231741, 0.29,201.341430664063
0.015332285, 227.383148934387, -0.000939059419617539, 0.30375,199.411544799805
0.0159998366666667, 227.393557371171, -0.000646242627508217, 0.31625,206.306091308594
0.0166654683333333, 227.404514255251, -0.000743014766757057, 0.33,197.721862792969
0.0173316016666667, 227.415193101623, -0.00072539215188259, 0.34375,199.186401367188
0.01799932, 227.426283780376, -0.000945318605215039, 0.35625,199.186401367188
0.018665185, 227.437254164764, -0.000907794989978746, 0.370000000000001,205.315856933594
0.0193316483333333, 227.448366133538, -0.000737853525929012, 0.38375,205.396392822266
0.0199983816666667, 227.458972202893, -0.000921327310219127, 0.39625,205.85075378418
0.0206649433333333, 227.470023362517, -0.00124395660486859, 0.41,200.531021118164
0.021332435, 227.480405306831, -0.00131347661295873, 0.423750000000001,200.531021118164
0.0219984233333333, 227.490882388419, -0.00146104520071997, 0.4375,202.956390380859
0.022664955, 227.501326928949, -0.00169654987158267, 0.45,211.601425170898
0.0233321516666667, 227.512014573509, -0.00143832584189433, 0.46375,198.952117919922
0.0239983466666667, 227.522542846745, -0.00140277012779392, 0.47625,205.754409790039
0.024666195, 227.533845183833, -0.00147069421602144, 0.49,205.754409790039
0.0253316516666667, 227.54488138628, -0.00151892279357289, 0.50375,244.528396606445
0.0259983316666667, 227.555981950731, -0.00145597695526869, 0.51625,201.058242797852
0.0266654133333333, 227.566992654827, -0.00146959777113388, 0.53,206.613342285156
0.0273316133333333, 227.578392468479, -0.00155925876759665, 0.5425,191.757583618164
0.0279990883333333, 227.589333805461, -0.00144790586075826, 0.55625,191.757583618164
0.0286666083333333, 227.600513084291, -0.00137886882838973, 0.57,203.029876708984
0.0293332216666667, 227.611883400563, -0.00138904731713307, 0.58375,193.007568359375
0.02999826, 227.623198140515, -0.00138190467591327, 0.59625,198.956558227539
0.0306650483333333, 227.63428584374, -0.00125029378662007, 0.60875,194.233642578125
0.0313321416666667, 227.645453248691, -0.00150629342799331, 0.6225,194.233642578125
0.031998275, 227.656581741853, -0.00138570548501001, 0.635,202.297790527344
0.0326653233333333, 227.667994878653, -0.0013750425206419, 0.65,202.099578857422
0.0333316433333333, 227.679197689962, -0.0012652270365294, 0.6625,202.043411254883
0.033998555, 227.690537015004, -0.00109101078722899, 0.675,195.228424072266
0.0346652566666667, 227.701626062811, -0.000685483656398781, 0.68875,195.228424072266
0.0353325666666667, 227.712773659122, -0.000895546605133825, 0.70125,196.028686523438
0.0359985983333333, 227.723754909274, -0.000833769208152304, 0.715,195.735214233398
0.0366649833333333, 227.734565999253, -0.00119023080346527, 0.7275,197.72380065918
0.0373321233333333, 227.745572941264, -0.0013929591206569, 0.74125,197.840713500977
0.0379985933333333, 227.756388630847, -0.0015604152095241, 0.755,197.840713500977
0.0386651533333333, 227.767256891477, -0.00128967130871635, 0.7675,197.232330322266
0.0393318616666667, 227.77812615768, -0.00146614794451754, 0.78,204.205841064453
0.0399983116666667, 227.789562271156, -0.00129728042653183, 0.79375,208.045791625977
0.0406649416666667, 227.799944034171, -0.00110715147647423, 0.8075,205.807388305664
0.0413316383333333, 227.81117344779, -0.000994486135527945, 0.82125,205.807388305664
0.04199908, 227.821788548999, -0.00104705399510066, 0.83375,244.018920898438
0.0426658883333333, 227.832772173089, -0.00102443663111318, 0.8475,209.744827270508
0.043332105, 227.843402335722, -0.00101746648124227, 0.86,209.734939575195
0.0439982833333333, 227.85462614667, -0.00133500653154131, 0.8725,204.152893066406
0.044665175, 227.86591273019, -0.00143431354343548, 0.88625,204.152893066406
0.0453326416666667, 227.877825490314, -0.0013639400782111, 0.9,208.225692749023
0.0459983, 227.889230664664, -0.00107964735793077, 0.91375,203.323257446289
0.0466665016666667, 227.900344215425, -0.000927916479249106, 0.92625,207.005477905273
0.0473325716666667, 227.911567546569, -0.000509954973011731, 0.94,208.05940246582
0.047998825, 227.922415560537, -0.000342054906478658, 0.9525,208.05940246582
0.048666185, 227.933335723797, -0.000195035291134026, 0.97,208.809875488281
0.049331605, 227.946364802783, -0.000431544911474435, 0.98125,206.492218017578
0.0499983266666667, 227.96013231982, -0.000289670037683141, 0.99375,196.950164794922
0.0506652833333333, 227.972329855092, -0.000456464659782234, 1.0075,200.226776123047
0.051331915, 227.985197468693, -0.000475920182553785, 1.02125,200.226776123047
0.0519984266666667, 227.997278234185, -0.00048782058483088, 1.03375,197.689514160156
0.052665565, 228.007831779669, -0.000226278721788665, 1.0475,201.566482543945
0.0533316466666667, 228.01840557645, -0.000542750825700045, 1.06,196.361206054688
0.0539983083333333, 228.030303544628, -0.00055337629202183, 1.07375,199.985931396484
0.0546651433333333, 228.041238164414, -0.000542713327611218, 1.0875,199.985931396484
0.0553323416666667, 228.053218031993, -0.000808038000636072, 1.10125,195.632064819336
0.055998875, 228.064342091908, -0.000883109229920364, 1.11375,192.962295532227
0.0566649833333333, 228.075250190827, -0.000549116506036447, 1.1275,199.491882324219
0.05733162, 228.085942316672, -0.000505608191410959, 1.14125,197.937622070313
0.0579982716666667, 228.09659416263, -0.000518804528563755, 1.155,197.937622070313
0.0586654866666667, 228.107257205468, -0.000534687230790377, 1.16875,235.881286621094
0.059331825, 228.118545362161, -0.000864205679392974, 1.18125,201.734069824219
0.059998355, 228.128682186108, -0.000777324043380799, 1.19375,199.096771240234
0.060664945, 228.139306922299, -0.000547514586497464, 1.20875,196.767852783203
0.0613321233333333, 228.149462507912, -0.000471781890466319, 1.22125,196.767852783203
0.06199902, 228.159701380798, -0.000450803944170413, 1.235,192.115966796875
0.06266498, 228.169687869679, -0.000639432969548451, 1.24875,204.126403808594
0.0633316383333333, 228.180276575261, -0.000918667943848323, 1.26125,196.215270996094
0.0639984266666667, 228.190709841749, -0.00109198273843359, 1.275,193.875305175781
0.064664955, 228.202005816922, -0.001314271573105, 1.28875,193.875305175781
0.06533163, 228.212551006867, -0.00132551950813915, 1.3025,201.117294311523
0.0659985333333333, 228.222888342972, -0.00110296368688146, 1.315,195.066146850586
0.0666649883333333, 228.233233591133, -0.00116703146883058, 1.32875,198.470489501953
0.067331855, 228.243533080863, -0.00146451752643615, 1.34125,199.021453857422
0.0679982716666667, 228.253361058282, -0.00145054122842363, 1.35375,199.021453857422
0.068664955, 228.262873703423, -0.00142531699539821, 1.36875,200.520919799805
0.0693317216666667, 228.272540526405, -0.00160963073752418, 1.3825,199.320587158203
0.0699982766666667, 228.282086017707, -0.0017287547540136, 1.395,206.21452331543
0.0706650633333333, 228.291350354389, -0.00151632642411204, 1.40875,200.716995239258
0.07133184, 228.300833143821, -0.00129650646541222, 1.42125,200.716995239258
0.0719986016666667, 228.310253849248, -0.00131009128307048, 1.43375,203.20622253418
0.07266499, 228.319446867897, -0.00116140075162181, 1.4475,195.896087646484
0.0733316133333333, 228.328252787511, -0.00090628606577402, 1.46,202.170486450195
0.0739983433333333, 228.337373294121, -0.00114569504047477, 1.47375,238.137573242188
0.074665425, 228.345883033147, -0.00112459860015101, 1.4875,238.137573242188
0.0753320333333333, 228.354648065308, -0.00117857788882098, 1.5,202.313613891602
0.0759983633333333, 228.364064598543, -0.00124416359452125, 1.51375,197.230651855469
0.076665985, 228.373742485033, -0.0016344244921396, 1.52625,200.896286010742
0.0773316116666667, 228.383081727995, -0.00139305361591556, 1.54,201.881790161133
0.0779984166666667, 228.392964595974, -0.00151105568880256, 1.55375,201.881790161133
0.078664955, 228.40247465424, -0.00117902636630257, 1.56625,198.475921630859
0.0793316233333333, 228.411769745518, -0.00115601752198208, 1.58,205.556884765625
0.0799983233333333, 228.421253182329, -0.000849554415356476, 1.59375,201.702011108398
0.0806650566666667, 228.430837759968, -0.000843326728192699, 1.60625,201.254028320313
0.0813316316666667, 228.440563121315, -0.000795416134699756, 1.61875,201.254028320313
0.0819982783333333, 228.449927793729, -0.000664267222165265, 1.6325,203.539016723633
0.082664935, 228.459723535156, -0.000645761151732263, 1.64625,196.188995361328
0.08333257, 228.468941596606, -0.000347933111277731, 1.65875,200.172714233398
0.0839982866666667, 228.478036442325, -0.000408647061687309, 1.67125,203.100082397461
0.0846649333333333, 228.487137669281, -0.000853536715327257, 1.685,203.100082397461
0.0853319316666667, 228.496654479374, -0.00113823891503344, 1.69875,203.941635131836
0.0859983116666667, 228.50575456396, -0.000995744572336074, 1.71125,204.877059936523
0.0866656333333333, 228.515746346596, -0.00107041982151414, 1.725,192.841049194336
0.0873322266666667, 228.525497343204, -0.00127406009289173, 1.73875,197.352264404297
0.087998565, 228.534778242599, -0.00103372566466414, 1.7525,197.352264404297
0.0886649633333333, 228.543882599905, -0.00146787435782451, 1.765,194.194213867188
0.0893321683333333, 228.552455842214, -0.00180104512302917, 1.77875,189.633438110352
0.0899989383333333, 228.560528320958, -0.00209789821236653, 1.7925,190.78678894043
0.0906649483333333, 228.568486589175, -0.0020515145421499, 1.805,228.660797119141
0.0913318566666667, 228.576015178172, -0.00195604433753814, 1.82,228.660797119141
0.091998975, 228.583969976648, -0.00155037471393212, 1.8325,189.413070678711
0.0926653733333333, 228.591849882965, -0.00147253162390428, 1.84625,192.990982055664
0.093331815, 228.599399774591, -0.00115789542780255, 1.85875,187.344497680664
0.0939983716666667, 228.606959995784, -0.00101011085086348, 1.8725,191.828598022461
0.0946653516666667, 228.61483730172, -0.000967198006332353, 1.88625,191.828598022461
0.0953316366666667, 228.622316497643, -0.000710539897976056, 1.89875,192.003189086914
0.0959988783333333, 228.629925603191, -0.000542561835331505, 1.91375,193.017349243164
0.0966655, 228.637481639624, -0.000715666640457809, 1.925,190.991775512695
0.0973316216666667, 228.645414797903, -0.00074779802652921, 1.93875,189.547836303711
0.0979983566666667, 228.652446241725, -0.000673454260729277, 1.9525,189.547836303711
0.09866504, 228.660225530721, -0.000992641228256889, 1.96625,193.926010131836
0.0993316133333333, 228.667677242933, -0.000936101568205471, 1.98,194.513778686523
0.0999982833333333, 228.674876947371, -0.000914562650076475, 1.9925,199.156539916992
0.100664956666667, 228.681406878781, -0.000774798170303139, 2.00625,192.297744750977
0.101331663333333, 228.688463433651, -0.00072964293840657, 2.02,192.297744750977
0.101998291666667, 228.695243069962, -0.000890947836233305, 2.0325,192.779495239258
0.102664951666667, 228.701567825517, -0.000947496495852397, 2.04625,190.832412719727
0.103331613333333, 228.708037729871, -0.000897715496331034, 2.05875,191.759490966797
0.103998378333333, 228.714799223637, -0.00102401365249523, 2.0725,194.597732543945
0.104664973333333, 228.721756718079, -0.00107736747258277, 2.08625,194.597732543945
0.105331661666667, 228.727857372418, -0.00060067491633699, 2.1,197.228530883789
0.105998346666667, 228.73425690428, -0.000626818603170389, 2.1125,193.93342590332
0.10666538, 228.740724610087, -0.0006790909775719, 2.12625,194.251541137695
0.107331698333333, 228.747420659606, -0.000607447076186675, 2.14,227.803848266602
0.107998301666667, 228.753131471134, -0.000814057198392813, 2.1525,227.803848266602
0.108665378333333, 228.75884655039, -0.0011498003343954, 2.16625,183.720260620117
0.109331678333333, 228.764819193751, -0.00110929486891407, 2.17875,187.945816040039
0.10999829, 228.770407376169, -0.000863842697729894, 2.1925,183.153167724609
0.110665736666667, 228.775719317342, -0.000827816007303102, 2.20625,178.661972045898
0.1113322, 228.781914821135, -0.000566437636084605, 2.21875,178.661972045898
0.111998911666667, 228.787961721265, -0.000267909130848734, 2.2325,181.135055541992
0.112664946666667, 228.794389721301, -0.00017151647258019, 2.245,184.515823364258
0.11333161, 228.80109696724, -0.00046854355323335, 2.25875,181.590179443359
0.113998491666667, 228.807785424954, -0.000545965164418866, 2.27125,180.060211181641
0.114664965, 228.814473435471, -0.00074175633001269, 2.285,180.060211181641
0.115332051666667, 228.821565372847, -0.000726898076323527, 2.29875,182.469833374023
0.115998278333333, 228.82844089148, -0.000942204761665032, 2.31125,176.423370361328
0.116664935, 228.836083135382, -0.000979515387593554, 2.32375,177.175888061523
0.117332276666667, 228.843793043017, -0.00101133028957336, 2.3375,177.046356201172
0.117998805, 228.851782832585, -0.00084598459474537, 2.35,177.046356201172
0.11866495, 228.860063609135, -0.0010915492603023, 2.36375,179.941177368164
0.11933161, 228.868814610368, -0.00107241922116877, 2.37875,180.28434753418
0.119998278333333, 228.877020175933, -0.000958517942322913, 2.39,178.084045410156
0.120665005, 228.885215711775, -0.00113164524633652, 2.40375,184.546630859375
0.121331675, 228.89329742354, -0.00115516856474858, 2.4175,184.546630859375
0.121998365, 228.901543496412, -0.00087479814744165, 2.43,182.25065612793
0.12266495, 228.909948965161, -0.000948763932206945, 2.4425,182.026077270508
0.123332026666667, 228.919064717862, -0.00134069124611361, 2.45625,183.474563598633
0.123998266666667, 228.928734138564, -0.00171448747070935, 2.47,226.547790527344
0.124665531666667, 228.938348445187, -0.00187753228112017, 2.48375,226.547790527344
0.125331673333333, 228.947678871569, -0.00217442586845893, 2.49625,183.200180053711
0.125999871666667, 228.95591542347, -0.00205319295787596, 2.50875,194.111206054688
0.126664986666667, 228.963340541636, -0.00176356950537378, 2.5225,188.550964355469
0.12733167, 228.97049166977, -0.00123658747512766, 2.535,183.458770751953
0.127998545, 228.97791320339, -0.00114958584509946, 2.54875,183.458770751953
0.12866496, 228.985577865607, -0.0011265665013294, 2.5625,188.643218994141
0.12933162, 228.993589186051, -0.00102452812660805, 2.575,190.990356445313
0.129998275, 229.002320872602, -0.000931369305863028, 2.58875,190.267303466797
0.130665106666667, 229.01104616644, -0.00109744696396984, 2.6025,184.962631225586
0.131332761666667, 229.019796925625, -0.000941040820073054, 2.615,184.962631225586
0.13199829, 229.028511934947, -0.000878133979824593, 2.63,189.619369506836
0.13266537, 229.037700760418, -0.000758316998090839, 2.6425,185.093307495117
0.133331608333333, 229.046988343234, -0.000484888232133667, 2.655,182.748474121094
0.133998826666667, 229.055896675612, -0.000348066604528366, 2.66875,184.181930541992
0.134665121666667, 229.064791493137, -0.000446919139285844, 2.6825,184.181930541992
0.135332406666667, 229.07392076718, -0.000324322797186516, 2.69625,192.081390380859
0.135998318333333, 229.083030642435, -0.0004008444535813, 2.71,184.566589355469
0.136664943333333, 229.091754539287, -0.000680515905967536, 2.7225,183.964721679688
0.137332006666667, 229.100674933182, -0.000785632126095723, 2.73625,183.964721679688
0.137998836666667, 229.109316953087, -0.000907848987257264, 2.75,184.871948242188
0.138665455, 229.118088272727, -0.000933235212118238, 2.7625,184.557022094727
0.139331688333333, 229.126859189615, -0.000744813176350358, 2.77625,177.670837402344
0.139998358333333, 229.1353474404, -0.000433430316831904, 2.79,180.902984619141
0.140664948333333, 229.144283519941, -0.000325630731499952, 2.80375,223.236694335938
0.141331711666667, 229.153523161621, -0.000407124638162953, 2.8175,223.236694335938
0.141998425, 229.162417451906, -0.000580694419960537, 2.83,185.168380737305
0.142664961666667, 229.171461953103, -0.000690253416957576, 2.8425,186.079818725586
0.143331638333333, 229.180567901129, -0.000848058990556395, 2.85625,188.586639404297
0.143998275, 229.189910197099, -0.00105939237549479, 2.87,181.425018310547
0.144666243333333, 229.199056147914, -0.00102355467558532, 2.88375,181.425018310547
0.145331631666667, 229.20827803729, -0.000901856788309814, 2.89625,178.530807495117
0.145998386666667, 229.217046373486, -0.00112931736319507, 2.91,181.652847290039
0.14666496, 229.226058331973, -0.00114017381789621, 2.92375,188.873474121094
0.147331798333333, 229.234967533588, -0.0010264510300756, 2.93625,180.8017578125
0.147999011666667, 229.243797315573, -0.000938276458972768, 2.95,180.8017578125
0.148664978333333, 229.252932078356, -0.000883187226031841, 2.96375,187.473937988281
0.149332041666667, 229.262502891212, -0.000871804297758886, 2.9775,183.369049072266
0.149998278333333, 229.271807742571, -0.000656988087761009, 2.99,177.815414428711
0.150664945, 229.280572367026, -0.000490686940896858, 3.00375,179.08967590332
0.151332358333333, 229.290124978443, -0.000373194842413235, 3.01625,179.08967590332
0.151998585, 229.299344531586, -0.000654900192651608, 3.03,191.882675170898
0.15266494, 229.309195640862, -0.000867561010920685, 3.04375,187.345077514648
0.153331836666667, 229.318541745854, -0.000918877933349796, 3.05625,187.102127075195
0.153998578333333, 229.32869893192, -0.000985930565328992, 3.07,184.451690673828
0.154665658333333, 229.338350247482, -0.000919830385494643, 3.08375,184.451690673828
0.155333225, 229.348486244005, -0.000853127235901405, 3.09625,187.907012939453
0.155998556666667, 229.357911403278, -0.000480223466495641, 3.10875,187.219085693359
0.15666543, 229.368303847907, -0.000727976522118248, 3.1225,226.168823242188
0.157331603333333, 229.37831609005, -0.000521562890093953, 3.13625,186.641403198242
0.157999018333333, 229.388667810306, -0.000601304884756392, 3.15,186.641403198242
0.15866561, 229.398507228418, -0.000440160478883313, 3.1625,185.404006958008
