Time (min), Depth (µm), Load (N), Position (µm), Acoustic (aJ)
7.75666666666667E-06, 227.443586746242, -0.000171078387172361, 0,148.761962890625
0.000666988333333333, 227.443881159521, -0.000139591968721885, 0.0049999999999998,150.519760131836
0.00133335666666667, 227.444141432824, 0.000102750858664244, 0.0162499999999998,148.026809692383
0.00199947833333333, 227.444393553737, -0.00020272679752215, 0.03125,149.35481262207
0.00266636166666667, 227.444989719351, -0.000687343455771858, 0.0462500000000003,149.35481262207
0.00333313, 227.445900753625, -0.000890020775533777, 0.0600000000000002,160.658004760742
0.00399944833333333, 227.447259981219, -0.00101323058679905, 0.0750000000000004,164.254730224609
0.00466647333333333, 227.449662543831, -0.0015392256666178, 0.0899999999999998,212.10417175293
0.00533283833333333, 227.452816213679, -0.00127498693903093, 0.103750000000001,176.950119018555
0.005999615, 227.45740867003, -0.00117895276271602, 0.1175,176.950119018555
0.006666525, 227.462232642486, -0.00127151761324858, 0.13,177.82145690918
0.00733277166666667, 227.467474075858, -0.001342363554745, 0.14375,179.283172607422
0.00800002666666667, 227.472566532102, -0.00112172163738718, 0.15625,179.296264648438
0.00866777333333333, 227.47751053279, -0.00174540831026273, 0.17,184.860916137695
0.009332815, 227.482686713211, -0.00185379886593709, 0.18375,184.860916137695
0.00999986, 227.48906462478, -0.00203486977092936, 0.195,180.730102539063
0.0106661316666667, 227.496125285429, -0.00191910108586139, 0.21,185.322326660156
0.011332965, 227.504018269223, -0.00198534525848096, 0.2225,185.69905090332
0.012000025, 227.513177677568, -0.00152968614577651, 0.23625,181.421585083008
0.0126661233333333, 227.522280993709, -0.00123825528402834, 0.25,181.421585083008
0.01333296, 227.530983223036, -0.000887991377433595, 0.26375,183.826690673828
0.0139995933333333, 227.540187608957, -0.00110879378676633, 0.27625,175.133773803711
0.0146663716666667, 227.549671860145, -0.00140061012910739, 0.29,191.57356262207
0.0153329183333333, 227.559017102978, -0.00139202906008731, 0.30375,182.600082397461
0.0160010866666667, 227.568970456083, -0.00172413787860192, 0.3175,182.600082397461
0.0166663433333333, 227.579603044852, -0.00183692621334927, 0.33,181.876235961914
0.017333165, 227.590175150939, -0.00165663526917422, 0.34375,185.189010620117
0.0179994133333333, 227.601252476988, -0.00150629182075686, 0.3575,181.869110107422
0.0186661933333333, 227.61200955946, -0.00144125208764564, 0.370000000000001,191.232635498047
0.0193328066666667, 227.6224328495, -0.00102449202106782, 0.38375,191.232635498047
0.0199994716666667, 227.632642433259, -0.000629491361548778, 0.3975,187.844299316406
0.0206663433333333, 227.643017376752, -0.000287786025023047, 0.41,184.260803222656
0.0213327983333333, 227.653150396979, 9.26655432371452E-06, 0.423750000000001,227.834396362305
0.0219994683333333, 227.663817873338, 0.000207234110587985, 0.43625,227.834396362305
0.02266623, 227.674272253768, 0.000226155660165706, 0.45,178.131011962891
0.0233328183333333, 227.685679993776, -0.000146089642363266, 0.46375,180.71208190918
0.023999445, 227.696647009252, -0.000533934161321627, 0.4775,179.220916748047
0.02466635, 227.707983255814, -0.000605290077178918, 0.49,172.969665527344
0.0253327716666667, 227.719015097833, -0.000868754843603666, 0.505,172.969665527344
0.0261662083333333, 227.730657340384, -0.00114466448494891, 0.52,177.131225585938
0.0268328416666667, 227.741656355663, -0.00128029367241982, 0.53375,177.131225585938
0.0274994383333333, 227.753207473852, -0.00117570242593905, 0.54625,178.592559814453
0.028166075, 227.764378077607, -0.00125632937612693, 0.56,180.197265625
0.0288328583333333, 227.776280533477, -0.00153860769761487, 0.57375,171.740310668945
0.0294994633333333, 227.787416620056, -0.00165002510122385, 0.58625,173.859985351563
0.0301662816666667, 227.798805446713, -0.00132655284891099, 0.6,173.859985351563
0.0308329733333333, 227.809612280202, -0.00111396402703452, 0.6125,178.002334594727
0.0314994516666667, 227.820930344353, -0.00114521495735368, 0.62625,175.098007202148
0.0321666183333333, 227.831699580847, -0.000891753188474589, 0.64,175.284881591797
0.0328327583333333, 227.843249269349, -0.000758541879524299, 0.6525,175.117279052734
0.03349952, 227.854361683593, -0.000860638751297376, 0.66625,175.117279052734
0.0341664816666667, 227.866236521358, -0.000964330043008673, 0.67875,174.82666015625
0.03483287, 227.87725823646, -0.000905790983345138, 0.69125,175.057861328125
0.0354994416666667, 227.888371475269, -0.000568345432847299, 0.705,168.229888916016
0.0361662083333333, 227.898920277961, -0.000345519625154508, 0.71875,171.34342956543
0.0368327933333333, 227.910120259303, -0.000220026928501137, 0.73125,171.34342956543
0.0374997766666667, 227.920001037581, -0.000118701017956351, 0.745,216.308029174805
0.038166105, 227.931255057534, -7.74275910955452E-05, 0.75875,182.952880859375
0.0388328716666667, 227.941454780672, 4.51207534228781E-05, 0.77125,169.227508544922
0.0394997533333333, 227.952906719366, 1.16919324663562E-05, 0.785,174.789855957031
0.0401660933333333, 227.963511809808, -0.000374088690151802, 0.7975,174.789855957031
0.04083286, 227.975495541879, -0.00070888837351345, 0.81,186.165802001953
0.0414994466666667, 227.9862383781, -0.000929102812352579, 0.82375,176.563903808594
0.0421661166666667, 227.997952482057, -0.00160196751507563, 0.8375,185.855834960938
0.042832955, 228.008856766998, -0.00185867512091598, 0.85,176.893005371094
0.04349976, 228.020106667, -0.00192927657467091, 0.865,176.893005371094
0.0441663116666667, 228.030651636438, -0.00172051706045483, 0.87625,175.285461425781
0.044832785, 228.041747515507, -0.00129422647258214, 0.89,176.202987670898
0.0454997233333333, 228.052580941616, -0.000723856121705306, 0.90375,174.261474609375
0.0461663466666667, 228.063736125928, -0.000340865358944797, 0.91625,175.216857910156
0.0468328616666667, 228.075148316461, -6.76915801574331E-05, 0.93,175.216857910156
0.0474994916666667, 228.086841071971, -0.000352204789367549, 0.94375,177.635650634766
0.0481661566666667, 228.098209130275, -0.000779549824287017, 0.95625,175.839111328125
0.0488327933333333, 228.110066147753, -0.00104034772467644, 0.9725,173.863265991211
0.0494994816666667, 228.123534845066, -0.00131731481291726, 0.98375,173.798416137695
0.0501662466666667, 228.136518285546, -0.00124588690064611, 0.9975,173.798416137695
0.05083281, 228.149155908968, -0.00090520001300273, 1.01,175.950881958008
0.0514996266666667, 228.162183256484, -0.000859395313690772, 1.02375,174.664291381836
0.0521661216666667, 228.174391118857, -0.000794633066594161, 1.0375,179.876159667969
0.0528328333333333, 228.184940621205, -0.000865446009689948, 1.05125,179.876159667969
0.0534996983333333, 228.195020095735, -0.000742144702993565, 1.065,172.86491394043
0.0541661083333333, 228.205866995791, -0.000756034005369445, 1.0775,214.861511230469
0.0548327966666667, 228.215866338582, -0.000829492815622678, 1.09125,176.547485351563
0.055499565, 228.226935458295, -0.00105328907459566, 1.105,175.912200927734
0.0561661133333333, 228.237284495484, -0.00121411099667953, 1.11875,181.879959106445
0.0568328533333333, 228.24865077129, -0.0014166758220687, 1.13125,181.879959106445
0.0574994516666667, 228.259071827456, -0.00158081257763637, 1.145,177.629547119141
0.0581662516666667, 228.270231433626, -0.00169194199571742, 1.1575,178.135375976563
0.058832795, 228.280932783821, -0.00159924365187047, 1.17125,176.380233764648
0.0594996816666667, 228.291889655527, -0.00150324097398928, 1.185,173.821838378906
0.060166275, 228.30204391789, -0.00141689181120402, 1.19875,173.821838378906
0.06083288, 228.312798429112, -0.0011965918766314, 1.21125,172.141357421875
0.061499455, 228.323157519377, -0.000813455621161266, 1.225,175.6259765625
0.0621663433333333, 228.333533229647, -0.000800779757861416, 1.23875,173.869857788086
0.062832845, 228.343648511056, -0.000727433442002191, 1.2525,174.848876953125
0.0634996383333333, 228.354414971411, -0.000865931985387891, 1.26625,174.848876953125
0.0641661416666667, 228.36460032992, -0.000835459515982796, 1.2775,177.330291748047
0.0648327916666667, 228.374868325305, -0.000966989409421985, 1.29125,176.439529418945
0.0654997433333333, 228.385042611227, -0.00118899475829616, 1.30625,178.21842956543
0.066166335, 228.395335323749, -0.00138134059694059, 1.31875,172.91813659668
0.0668330666666667, 228.404917985329, -0.00135204706832899, 1.3325,172.91813659668
0.067499485, 228.414897185029, -0.00175425186598962, 1.345,171.772064208984
0.06816625, 228.424790650661, -0.00187937258126346, 1.35875,184.923645019531
0.0688328166666667, 228.434500210815, -0.00183628574545905, 1.3725,176.705780029297
0.06949964, 228.443941915327, -0.00165979861025079, 1.385,180.681732177734
0.0701662966666667, 228.453849517473, -0.00171780069687169, 1.39875,180.681732177734
0.0708328616666667, 228.463466926716, -0.00174933061317237, 1.41125,214.193115234375
0.071499455, 228.472607264371, -0.00190414833687105, 1.425,177.674575805664
0.0721663166666667, 228.481196113528, -0.00187091300622631, 1.43875,178.429397583008
0.0728327866666667, 228.490084720672, -0.00206651368139967, 1.45125,184.283004760742
0.0734994916666667, 228.498267367038, -0.00225354828681824, 1.465,184.283004760742
0.07416614, 228.506443072675, -0.00198432230978288, 1.4775,177.896514892578
0.0748328083333333, 228.51442181506, -0.00190390684897837, 1.49125,174.380355834961
0.0754996716666667, 228.522766914141, -0.00189878610621548, 1.50375,178.426864624023
0.0761664433333333, 228.530606751101, -0.00149407793425823, 1.5175,181.230239868164
0.0768328333333333, 228.539090256316, -0.00137483392377404, 1.53125,181.230239868164
0.0774995533333333, 228.547298798733, -0.00168892264740482, 1.54375,178.517272949219
0.07816621, 228.555725580851, -0.00164540533323291, 1.5575,177.28190612793
0.0788327666666667, 228.563611141298, -0.0014110541044276, 1.57,177.093154907227
0.0794994416666667, 228.571731672006, -0.00158560933672816, 1.58375,186.079467773438
0.0801660966666667, 228.579733817677, -0.00162162852751168, 1.5975,186.079467773438
0.0808329033333333, 228.587706470854, -0.00168399989468441, 1.61,178.831588745117
0.0814994683333333, 228.595640965495, -0.00166321393875463, 1.62375,176.615432739258
0.0821662866666667, 228.60367357247, -0.00191929307620626, 1.63625,186.1474609375
0.0828327683333333, 228.612152900496, -0.00206895855864457, 1.64875,181.173294067383
0.0834995016666667, 228.619607142415, -0.00205892256276205, 1.66375,181.173294067383
0.084166195, 228.627165811191, -0.00205665017690854, 1.67625,174.905914306641
0.0848328716666667, 228.634366367665, -0.00205589571480617, 1.68875,175.476806640625
0.0854996833333333, 228.641423710363, -0.0019774046573511, 1.70125,183.071166992188
0.08616634, 228.648093709028, -0.00165703424921427, 1.715,178.198333740234
0.0868327783333333, 228.655436173678, -0.00193391434181845, 1.72875,178.198333740234
0.0874994866666667, 228.662091180268, -0.00165464186934474, 1.7425,204.429397583008
0.08816615, 228.669224343957, -0.00161696226194925, 1.755,168.909622192383
0.0888329283333333, 228.676078785716, -0.00177143050315571, 1.77,172.05712890625
0.08949945, 228.682530796091, -0.00225824005120179, 1.7825,175.924438476563
0.0901661133333333, 228.68879002418, -0.00196584923768675, 1.79625,175.924438476563
0.090832925, 228.694851878162, -0.00206542173626407, 1.80875,170.853256225586
0.0914994516666667, 228.700381092968, -0.00232864201496858, 1.8225,175.876388549805
0.0921661166666667, 228.706123182056, -0.00214974600074361, 1.83625,170.367477416992
0.092832775, 228.711733014313, -0.00193285989468666, 1.84875,174.905502319336
0.09349945, 228.717223032282, -0.00190707318990374, 1.86375,174.905502319336
0.094166255, 228.723254019428, -0.00208856707366275, 1.87625,182.785720825195
0.0948328716666667, 228.729191752636, -0.00186681971180718, 1.88875,173.065826416016
0.0955001633333333, 228.735173041211, -0.00165125503940456, 1.9025,170.880279541016
0.0961662816666667, 228.741386807875, -0.00155829270879887, 1.91625,176.797332763672
0.0968328383333333, 228.747767024963, -0.00163533033929464, 1.93,176.797332763672
0.0974995316666667, 228.753966141683, -0.00140632034224577, 1.9425,175.61491394043
0.09816612, 228.760527165789, -0.00158985562345767, 1.95625,169.743835449219
0.0988327733333333, 228.767793917027, -0.00182088601906031, 1.97,178.27668762207
0.0994994333333333, 228.774899470432, -0.00197400582803695, 1.9825,175.701568603516
0.100166343333333, 228.782175064847, -0.00203882057246642, 1.99625,175.701568603516
0.100833036666667, 228.789840811492, -0.00193957655737593, 2.00875,178.666702270508
0.101499505, 228.797470710918, -0.00181108551133035, 2.02375,178.742462158203
0.1021663, 228.80502179522, -0.00189226293385925, 2.03625,177.836395263672
0.102832853333333, 228.813230407679, -0.00216366830147761, 2.05,171.346115112305
0.103499553333333, 228.821259407957, -0.00195205893038525, 2.06375,171.346115112305
0.104166385, 228.829233739197, -0.00208136893530379, 2.075,207.455780029297
0.104832908333333, 228.837140384039, -0.0019832333645811, 2.08875,177.713562011719
0.105499433333333, 228.84465027011, -0.00186850262737021, 2.10375,171.409790039063
0.106166108333333, 228.851676927602, -0.00132161509694655, 2.11625,170.69548034668
0.106832771666667, 228.858861489873, -0.0012543134774314, 2.13,170.69548034668
0.107499675, 228.866220927588, -0.00131723981671835, 2.1425,176.681091308594
0.108166208333333, 228.873774548289, -0.0012732965239309, 2.15625,169.833480834961
0.108832825, 228.880851756716, -0.00104164965933477, 2.17,171.425186157227
0.109499613333333, 228.887813655344, -0.000544331639091608, 2.18375,169.597854614258
0.11016626, 228.895115158845, -0.000763821614316439, 2.19625,169.597854614258
0.110833168333333, 228.901840784119, -0.000380653860412583, 2.20875,161.049407958984
0.11149951, 228.908814265945, -0.000419273920536436, 2.2225,168.966094970703
0.112166121666667, 228.916277029009, -0.000651756243152712, 2.23625,167.985229492188
0.11283277, 228.924057609397, -0.00112447399900722, 2.24875,167.944305419922
0.113499438333333, 228.931244938578, -0.000921868675680421, 2.2625,167.944305419922
0.114166416666667, 228.938597347269, -0.000770521777688496, 2.275,161.976776123047
0.114832855, 228.945754784042, -0.000743358142112104, 2.28875,165.05224609375
0.1154996, 228.953080135042, -0.000606140534443089, 2.30125,164.407302856445
0.116166331666667, 228.959942682661, -0.000323358238355652, 2.315,158.485900878906
0.11683291, 228.967216926697, -6.98844700813321E-05, 2.32875,158.485900878906
0.117499446666667, 228.974388097272, -0.000477382501896236, 2.34125,161.297378540039
0.11816618, 228.981207771045, 0.000116172184498783, 2.35375,162.727737426758
0.1188328, 228.987567960328, 0.000128737053371538, 2.3675,161.598068237305
0.119499816666667, 228.994589120915, -8.63461432126277E-05, 2.38125,198.855194091797
0.120166458333333, 229.001402175964, -0.000220559401791818, 2.39375,198.855194091797
0.120832786666667, 229.008358146176, 9.16514161672669E-05, 2.40625,167.795043945313
0.121499831666667, 229.015221521707, -0.000401309322940535, 2.42,163.057022094727
0.122166126666667, 229.022533855973, -0.000537078003423461, 2.43375,160.466506958008
0.122832795, 229.029511176388, -0.000728982864229568, 2.4475,170.190505981445
0.123499671666667, 229.036559024618, -0.000767631422959591, 2.46,170.190505981445
0.124166115, 229.043555517801, -0.000660061326103846, 2.4725,162.755310058594
0.124832941666667, 229.051245594357, -0.000520716825248438, 2.48625,165.318161010742
0.12549956, 229.058689249534, -0.000499665382614264, 2.49875,168.630340576172
0.126166381666667, 229.065149664691, -0.00039802898769675, 2.5125,167.684646606445
0.126832815, 229.071340667356, -0.000508340946850494, 2.52625,167.684646606445
0.127499646666667, 229.077972706964, -0.000790940252181988, 2.54,169.923309326172
0.128166698333333, 229.084269422657, -0.000813712108383002, 2.5525,170.602203369141
0.128832833333333, 229.091190252039, -0.000943148106951415, 2.56625,168.895309448242
0.12949949, 229.098904153151, -0.000968658825580368, 2.57875,172.071731567383
0.130166143333333, 229.107258174091, -0.00109261109961654, 2.5925,172.071731567383
0.130832811666667, 229.115709750922, -0.001327413805731, 2.605,168.958206176758
0.13149957, 229.124495966306, -0.00136223755653133, 2.61875,162.378189086914
0.132166186666667, 229.133081837462, -0.00113442449934754, 2.6325,172.332992553711
0.132832783333333, 229.141580295235, -0.000987505378937926, 2.64625,166.512008666992
0.133499548333333, 229.149753223309, -0.000867266918361839, 2.66,166.512008666992
0.134166468333333, 229.158430950925, -0.000323211245700371, 2.6725,170.45654296875
0.134832823333333, 229.166983171013, -0.000491187808420518, 2.68625,161.092208862305
0.135499493333333, 229.175848067913, -0.00047846694738857, 2.7,166.399063110352
0.13616615, 229.184594676659, -0.000268763980552817, 2.7125,198.820175170898
0.136832781666667, 229.194044334776, -0.00014797204782942, 2.72625,198.820175170898
0.137499435, 229.203251373754, -0.000637133477764893, 2.74,163.555770874023
0.138166366666667, 229.212699751094, -0.00059663701182999, 2.75375,163.498092651367
0.138832873333333, 229.221558681176, -0.000378204483458235, 2.76625,166.000274658203
0.139499525, 229.23155756521, -0.00037334472756277, 2.78,160.585067749023
0.140166426666667, 229.241151421965, -0.000383956694522418, 2.79375,160.585067749023
0.140832751666667, 229.250990486991, 0.000146233674574877, 2.80625,163.345016479492
0.141499431666667, 229.260966685728, 0.000286059651227492, 2.82,163.061721801758
0.142166241666667, 229.271299592848, 5.93205401077248E-05, 2.83375,161.347290039063
0.142832773333333, 229.281496588102, -0.000209479458354592, 2.8475,165.562561035156
0.143499475, 229.291885899391, -0.000165308177015339, 2.86125,165.562561035156
0.14416627, 229.302188253515, -9.51731998560951E-05, 2.87375,162.536285400391
0.144832775, 229.312075841923, 0.000116707657595763, 2.8875,161.973190307617
0.145499721666667, 229.322359743148, 0.000339170483540457, 2.9,163.194152832031
0.146166193333333, 229.332336406808, 0.000547006044196597, 2.91375,169.099227905273
0.14683278, 229.34299592683, 0.000522734263337276, 2.9275,169.099227905273
0.14749947, 229.353472557813, -7.27161499465545E-06, 2.94,164.375946044922
0.14816638, 229.36472346224, -0.000179008488810139, 2.95375,171.046875
0.148832991666667, 229.375362305844, -0.00049931140032757, 2.9675,160.110855102539
0.149499796666667, 229.386300818825, -0.000804381076991261, 2.98125,159.555389404297
0.150166218333333, 229.396416719103, -0.000862413162121479, 2.99375,159.555389404297
0.150832873333333, 229.406269097314, -0.000868388861964255, 3.00625,167.898300170898
0.151499601666667, 229.415733065246, -0.000991399183283898, 3.02,163.86474609375
0.152166293333333, 229.425690111227, -0.00076979881404111, 3.03375,163.166229248047
0.152833015, 229.435969157993, -0.000584109641024809, 3.0475,202.036605834961
0.153499495, 229.446227699744, -0.000361181838430088, 3.06,202.036605834961
0.154166945, 229.457033352971, -0.000100461934130892, 3.07375,169.834625244141
0.154832858333333, 229.46764389708, -0.000152623314147816, 3.08625,167.754577636719
0.155499508333333, 229.478972025871, -0.00036833647908762, 3.1,163.836456298828
0.156166155, 229.489510131913, -0.000439393909988663, 3.11375,174.158996582031
0.156832753333333, 229.500621418888, -0.000690181313167904, 3.1275,174.158996582031
0.157499663333333, 229.511304012081, -0.00093379007694167, 3.14,165.139068603516
0.158166386666667, 229.522306715018, -0.000662056225836482, 3.1525,167.594009399414
0.158832986666667, 229.532741762644, -0.000658948381962833, 3.16625,170.079666137695
0.159499535, 229.543887153077, -0.000677208464751193, 3.17875,168.02165222168
