Time (min), Depth (µm), Load (N), Position (µm), Acoustic (aJ)
7.33E-06, 227.418443241166, 0.000559636283851811, 0,137.139251708984
0.00066682, 227.418381767891, 0.00051663944353285, 0.0049999999999998,133.021240234375
0.001333245, 227.418444403103, 0.000169415884192353, 0.0162499999999998,141.979751586914
0.00200004, 227.418525686291, 0.000166770017077416, 0.0300000000000005,141.02848815918
0.00266668166666667, 227.420268789348, -0.000254611317373247, 0.0487500000000002,141.02848815918
0.00350020333333333, 227.422354761798, -0.000449658520378039, 0.0637500000000004,152.050079345703
0.00416848833333333, 227.425417781463, -0.000624789723713209, 0.0787499999999998,172.415878295898
0.00483326833333333, 227.429389463803, -0.000665995653975869, 0.0937500000000001,178.656784057617
0.00549989333333333, 227.434420482892, -0.000926700559031033, 0.10625,227.935836791992
0.00616670666666667, 227.438724282669, -0.000966727548500191, 0.12,227.935836791992
0.00683325666666667, 227.442798367235, -0.00128713695465025, 0.13375,191.761779785156
0.00750010666666667, 227.44677330339, -0.00131852737793892, 0.14625,184.827163696289
0.00816684166666667, 227.449782852809, -0.00122661049485484, 0.16,192.373016357422
0.00883319333333333, 227.454058801779, -0.00102952639417036, 0.1725,191.431518554688
0.00950012666666667, 227.459413638749, -0.000922598265044229, 0.18625,191.431518554688
0.0101667166666667, 227.46630733204, -0.000562577348527219, 0.200000000000001,193.266937255859
0.0108332633333333, 227.474410857339, -0.000505077736666429, 0.2125,200.591674804688
0.011500005, 227.483938390847, -0.00043184241519179, 0.22625,197.417419433594
0.0121666733333333, 227.493540002368, -0.000622500838627502, 0.24,189.776123046875
0.0128331783333333, 227.50338218166, -0.000497218131475604, 0.25625,193.45085144043
0.01366649, 227.513899779413, -0.00067261632143957, 0.27,190.419082641602
0.014333365, 227.524493017164, -0.000740316920909753, 0.28375,190.419082641602
0.0150001433333333, 227.535142289501, -0.00104381017677057, 0.2975,192.335968017578
0.01566666, 227.545731986928, -0.0012091018743413, 0.31,190.891677856445
0.0163331666666667, 227.556714332342, -0.0016630660721725, 0.32375,193.210220336914
0.0170001266666667, 227.566679050346, -0.00177957422007756, 0.3375,195.808456420898
0.017666915, 227.577334765947, -0.00174336753870112, 0.35125,195.808456420898
0.0183332033333333, 227.588203825684, -0.00156393305150911, 0.36375,196.53498840332
0.01900019, 227.599518458174, -0.00127045179274036, 0.37625,188.701141357422
0.0196665816666667, 227.610282844555, -0.000722638808832366, 0.39,190.833053588867
0.020333365, 227.621639011783, -0.00081407721596804, 0.40375,190.833053588867
0.02099996, 227.632596365869, -0.000603298803186372, 0.4175,195.548583984375
0.0216666666666667, 227.643681495727, -0.000665616173038083, 0.43,157.514495849609
0.0223331783333333, 227.654890916019, -0.000658610024938982, 0.44375,231.540634155273
0.02300005, 227.666597615746, -0.000992224767788261, 0.4575,191.473159790039
0.0236667466666667, 227.678318908303, -0.000910175888989784, 0.47,195.65998840332
0.0243332216666667, 227.690034870681, -0.00107824394707728, 0.485,195.65998840332
0.0250000883333333, 227.701816974616, -0.00096029137173809, 0.49625,190.452789306641
0.0256666683333333, 227.712958393965, -0.00128761843042621, 0.51,188.300247192383
0.0263333683333333, 227.724142174743, -0.00122657899639987, 0.52375,191.180313110352
0.0270002633333333, 227.735723502571, -0.00156110269365006, 0.5375,191.180313110352
0.0276746116666667, 227.747230485655, -0.00164790933346333, 0.55,193.34797668457
0.0283413033333333, 227.758168342644, -0.00159116868347811, 0.56375,184.69450378418
0.0290081766666667, 227.769603852668, -0.00136419108435697, 0.57625,182.686859130859
0.02967462, 227.78122943791, -0.00114092279885895, 0.59,185.00927734375
0.0303415033333333, 227.792553873367, -0.000645917662428188, 0.60375,185.00927734375
0.031008085, 227.803811920007, -0.000474474773816997, 0.61625,184.838043212891
0.03167484, 227.815722312784, -0.000724029239009236, 0.62875,187.345428466797
0.0323414333333333, 227.826784290698, -0.000671194392850233, 0.6425,185.032485961914
0.0330079166666667, 227.83778510532, -0.000689215987658474, 0.65625,178.847503662109
0.0336747633333333, 227.848729251836, -0.000584213761848697, 0.66875,178.847503662109
0.0343413583333333, 227.859716122296, -0.000603826776703844, 0.6825,188.770477294922
0.03500793, 227.870374986423, -0.000453072348914968, 0.695,177.575485229492
0.035674925, 227.881763934563, -0.000558434556687798, 0.70875,179.819961547852
0.0363413866666667, 227.892517509363, -0.00064487371493725, 0.7225,180.685806274414
0.0370085533333333, 227.908830709007, -0.000710837401693411, 0.73875,186.896087646484
0.0378418133333333, 227.920289562223, -0.0008696974222965, 0.75125,218.54833984375
0.0385079366666667, 227.931519919321, -0.00125546904536824, 0.765,218.54833984375
0.0391746916666667, 227.942918113565, -0.00135302714513191, 0.7775,185.791519165039
0.03984138, 227.954480624853, -0.00136085525191027, 0.79125,192.553604125977
0.0405091066666667, 227.965630346459, -0.00155810734410666, 0.805,187.394012451172
0.0411757833333333, 227.976591996749, -0.00120100378104283, 0.8175,194.06413269043
0.0418429333333333, 227.98777923651, -0.00087933893791219, 0.83125,194.06413269043
0.04250795, 227.998906163841, -0.0010318122793435, 0.84375,193.056274414063
0.0431753366666667, 228.010294802459, -0.000881329337977887, 0.8575,193.685623168945
0.0438414066666667, 228.021791260876, -0.00110951437647744, 0.87125,191.692108154297
0.04450851, 228.033175802711, -0.00121050580379529, 0.88375,190.777221679688
0.0451747666666667, 228.044064539134, -0.00141563850023042, 0.8975,190.777221679688
0.0458415666666667, 228.055398349062, -0.00140705593130719, 0.91,196.159591674805
0.0465083883333333, 228.066757848474, -0.00143301512735397, 0.92375,185.222900390625
0.0471753083333333, 228.077449485779, -0.001039269904773, 0.9375,192.878799438477
0.0478415583333333, 228.088591682631, -0.00111213324491061, 0.95,190.954956054688
0.0485082966666667, 228.100451768068, -0.00130034229134947, 0.96625,190.954956054688
0.0491755233333333, 228.115498195318, -0.00146064973925675, 0.9775,191.993057250977
0.0498413316666667, 228.129525012602, -0.00167121516277316, 0.99,183.541564941406
0.0505080033333333, 228.143466055657, -0.00195795126033148, 1.00375,187.356719970703
0.0511751383333333, 228.157059323659, -0.00204122857738625, 1.0175,186.419647216797
0.0518418866666667, 228.170214578521, -0.00195429744384752, 1.03125,186.419647216797
0.0525080616666667, 228.179434300475, -0.00159352206520689, 1.045,182.774871826172
0.05317527, 228.189194137269, -0.00126072928105812, 1.0575,194.697937011719
0.0538412483333333, 228.200155377787, -0.00139251566152776, 1.07125,186.610290527344
0.05450909, 228.21098992599, -0.00118025982295383, 1.085,221.888320922852
0.0551755816666667, 228.22144556584, -0.000755665649878782, 1.09875,221.888320922852
0.0558415283333333, 228.232144705854, -0.00100882743383472, 1.1125,185.908218383789
0.056508625, 228.243136885768, -0.00126534904900656, 1.125,188.785797119141
0.0571749683333333, 228.253495818663, -0.000970528357575669, 1.13875,192.259063720703
0.0578412733333333, 228.26450390939, -0.00124094227495094, 1.1525,191.677795410156
0.0585091433333333, 228.275241429294, -0.001001086322693, 1.165,191.677795410156
0.05917537, 228.286344151064, -0.00107104580869707, 1.17875,183.717407226563
0.0598417266666667, 228.297068022571, -0.00128933584427177, 1.19125,192.83935546875
0.060508, 228.308377327274, -0.00157727188152272, 1.205,189.588180541992
0.0611749366666667, 228.318523464258, -0.00123753744602419, 1.21875,190.379867553711
0.06184131, 228.329764201317, -0.00192529790054649, 1.2325,190.379867553711
0.062508045, 228.340393827046, -0.00174765732325958, 1.245,182.464111328125
0.0631748666666667, 228.351361911803, -0.00198663431966843, 1.25875,183.9619140625
0.0638415983333333, 228.361465127528, -0.00170678887600891, 1.27125,191.124862670898
0.0645081233333333, 228.371929448058, -0.00181534742321644, 1.285,183.141387939453
0.0651752416666667, 228.381748225359, -0.00163703937944256, 1.3,183.141387939453
0.065842765, 228.391638062933, -0.00169961773618294, 1.31125,189.152755737305
0.0665082066666667, 228.401705988775, -0.00101563109209687, 1.325,182.945907592773
0.0671754083333333, 228.412226540693, -0.00124758544128069, 1.33875,193.349487304688
0.0678412933333333, 228.422595293421, -0.0013999462883605, 1.3525,182.490478515625
0.0685086416666667, 228.432843819817, -0.00121975133938977, 1.36625,182.490478515625
0.0691750666666667, 228.443693280538, -0.00137222168095102, 1.37875,194.409301757813
0.0698417766666667, 228.453616814728, -0.0017752169389422, 1.39125,192.495803833008
0.0705081283333333, 228.463718129716, -0.00212357444132285, 1.405,196.666000366211
0.0711751883333333, 228.473845598286, -0.00193669882789103, 1.41875,233.530456542969
0.071841515, 228.483554374888, -0.00241702420165787, 1.4325,233.530456542969
0.0725081616666667, 228.492344354392, -0.00254560074339443, 1.445,194.28369140625
0.07317487, 228.501404338588, -0.00249365835240415, 1.45875,193.407379150391
0.0738413333333333, 228.509783875592, -0.00214961163352361, 1.47125,194.979965209961
0.0745080966666667, 228.517693403619, -0.00229690423515215, 1.485,189.91828918457
0.0751753816666667, 228.525573264316, -0.00210863669161906, 1.49875,189.91828918457
0.07584123, 228.533275854215, -0.00188830375873081, 1.51125,187.749176025391
0.0765081583333333, 228.540939403836, -0.00182195159153296, 1.52375,186.075286865234
0.077175515, 228.548109912217, -0.0021205835915314, 1.5375,190.866058349609
0.0778415666666667, 228.555761604519, -0.0019262338535229, 1.55,188.957885742188
0.078508185, 228.563693282895, -0.00206249750914392, 1.565,188.957885742188
0.0791753533333333, 228.571869727572, -0.00190695082207898, 1.57625,187.70849609375
0.079841855, 228.579759048564, -0.00202502489133733, 1.59,187.223449707031
0.0805094916666667, 228.588344204859, -0.00196552437996128, 1.60375,190.533737182617
0.0811754133333333, 228.596403291831, -0.0021957568156326, 1.61625,191.158813476563
0.0818417816666667, 228.604514870037, -0.00221687875469248, 1.63,191.158813476563
0.08250813, 228.612662431858, -0.00243566826511471, 1.64375,189.491668701172
0.08317503, 228.62111182536, -0.00222083255612085, 1.65625,190.127029418945
0.0838415333333333, 228.629183316242, -0.00235869663133519, 1.67,185.141128540039
0.0845081616666667, 228.637675909872, -0.00237045904054593, 1.6825,189.66259765625
0.0851756216666667, 228.646208307462, -0.00218313794948133, 1.69625,189.66259765625
0.0858415883333333, 228.654567898689, -0.00233267293849656, 1.70875,194.717971801758
0.0865086083333333, 228.662632125033, -0.00229662074933366, 1.72375,189.051284790039
0.0871755016666667, 228.670719048917, -0.00192285452324724, 1.73625,182.152694702148
0.0878428283333333, 228.678623204174, -0.00210673178724434, 1.75,210.893417358398
0.0885084583333333, 228.685867719756, -0.00206255450622873, 1.76375,210.893417358398
0.0891749266666667, 228.69324664655, -0.00187988018175182, 1.77625,178.9755859375
0.0898413883333333, 228.700045932717, -0.00186298803021052, 1.79,181.918914794922
0.090508165, 228.707189884725, -0.00210232200871236, 1.80375,174.691665649414
0.0911748083333333, 228.713661742539, -0.00189653234532484, 1.81625,184.892700195313
0.0918412683333333, 228.720792008709, -0.00198270901676121, 1.83,184.892700195313
0.09250839, 228.727200816488, -0.00199988015428403, 1.8425,177.213088989258
0.0931750333333333, 228.734183432135, -0.00210418341525813, 1.85625,182.01286315918
0.09384145, 228.740650695547, -0.00218326694298001, 1.87,171.965942382813
0.09450883, 228.747316470025, -0.00222910164071627, 1.8825,178.649139404297
0.0951753216666667, 228.753278834268, -0.0023542583542183, 1.89625,178.649139404297
0.09584186, 228.759675726456, -0.00254226341091705, 1.90875,178.176422119141
0.0965086883333333, 228.764960418588, -0.00251018452215726, 1.9225,182.081161499023
0.0971752783333333, 228.770742486014, -0.00242439333135629, 1.93625,178.197540283203
0.0978415066666667, 228.776269412334, -0.00237312140670178, 1.95,182.640182495117
0.0985081216666667, 228.782208211485, -0.00236118350635711, 1.96375,182.640182495117
0.09917522, 228.787573205429, -0.00225338392102516, 1.97625,176.25065612793
0.0998414183333333, 228.7937706295, -0.00255095547436423, 1.99,183.195007324219
0.100508626666667, 228.799619702798, -0.00246744266913563, 2.00375,182.809020996094
0.101175301666667, 228.805299553336, -0.00242454032405408, 2.0175,182.437789916992
0.10184126, 228.810556621406, -0.00250168894893444, 2.03,182.437789916992
0.102508208333333, 228.816126712782, -0.00269567570519484, 2.04375,182.370376586914
0.103175073333333, 228.822056095723, -0.00270414277987525, 2.05625,181.935897827148
0.103842783333333, 228.828130458543, -0.00278500821808576, 2.07,177.783050537109
0.10450832, 228.834696409126, -0.00293017692639797, 2.08375,209.292388916016
0.105175016666667, 228.84131298858, -0.00316195428445969, 2.09625,209.292388916016
0.105841543333333, 228.8484033745, -0.00320578058307993, 2.11,173.291732788086
0.106508386666667, 228.855290348062, -0.00314776949695512, 2.12375,178.819946289063
0.107175091666667, 228.862290995502, -0.00350950632728701, 2.13625,169.259872436523
0.107841628333333, 228.868977227232, -0.003710220245665, 2.15,171.715698242188
0.108508693333333, 228.876924853961, -0.00380875779621278, 2.16375,171.715698242188
0.109174671666667, 228.88447872148, -0.003957199340168, 2.17625,169.928405761719
0.109841811666667, 228.892191723876, -0.00403333251607858, 2.19,164.362548828125
0.110508296666667, 228.899601914661, -0.00380106468267322, 2.20375,162.971069335938
0.11117481, 228.907727149996, -0.00357130022352199, 2.21625,166.892333984375
0.111841353333333, 228.914705698883, -0.00307100635275266, 2.23,166.892333984375
0.11250871, 228.922304363283, -0.00258083997329698, 2.2425,168.16015625
0.113175561666667, 228.930213632231, -0.00235075303031402, 2.25625,156.209228515625
0.11384159, 228.938165491902, -0.00233957409180242, 2.27,164.026351928711
0.114508861666667, 228.945920065048, -0.00229078004264467, 2.2825,166.226715087891
0.11517528, 228.953944158477, -0.00255442929981353, 2.29625,166.226715087891
0.115841748333333, 228.961819091576, -0.00292698208688767, 2.30875,160.801727294922
0.11650857, 228.968922792017, -0.00287558566844394, 2.3225,161.603210449219
0.117174911666667, 228.976366123725, -0.00282680061889637, 2.335,156.72021484375
0.117841616666667, 228.983719419642, -0.00279585567319798, 2.34875,157.421371459961
0.118508153333333, 228.991174257665, -0.00280820905272987, 2.3625,157.421371459961
0.119174808333333, 228.998118355015, -0.00223145652241196, 2.37375,164.053131103516
0.119841568333333, 229.005869089986, -0.00232537730490262, 2.38875,157.851135253906
0.120508735, 229.013294578288, -0.00202295349533261, 2.40125,194.33056640625
0.12117581, 229.021452059999, -0.00218872216896984, 2.41375,158.743515014648
0.121841598333333, 229.029817206293, -0.00202577485362398, 2.4275,158.743515014648
0.122509488333333, 229.0380131371, -0.00237386386951519, 2.44,158.908615112305
0.123175086666667, 229.046724123789, -0.00211322496109126, 2.45375,158.545364379883
0.12384137, 229.055161990202, -0.00207479239153907, 2.46625,156.716690063477
0.12450806, 229.063646318082, -0.00187833675926457, 2.48,162.473449707031
0.125174675, 229.071406706032, -0.00173652338239506, 2.49375,162.473449707031
0.125841548333333, 229.078942675331, -0.00155610194477567, 2.505,165.983322143555
0.126508113333333, 229.085810735886, -0.00186504892670192, 2.51875,165.995742797852
0.127175473333333, 229.093001434151, -0.00184464995133194, 2.53375,166.437896728516
0.12784315, 229.099481825703, -0.00179537592630139, 2.54625,168.311584472656
0.128508015, 229.106686747348, -0.00174208060330807, 2.56,168.311584472656
0.129174726666667, 229.115036532871, -0.0018538159909118, 2.57375,167.268966674805
0.12984156, 229.123036819675, -0.00145880333201878, 2.58625,168.313079833984
0.130508693333333, 229.131857640358, -0.00161111168170198, 2.6,168.449844360352
0.131175026666667, 229.140214820852, -0.00139424207485597, 2.6125,167.578369140625
0.131841183333333, 229.149286083499, -0.00164276309187932, 2.6275,167.578369140625
0.132508168333333, 229.157595279154, -0.00134763491586075, 2.63875,169.575119018555
0.133175595, 229.1665733658, -0.00115101729175069, 2.6525,167.251876831055
0.133841643333333, 229.175148634176, -0.001220744289451, 2.66625,165.225646972656
0.134508438333333, 229.184042635206, -0.0012186368953031, 2.68,165.800933837891
0.135174995, 229.192519658551, -0.000951180829339899, 2.69375,165.800933837891
0.135841358333333, 229.201337322854, -0.000990975330526552, 2.70625,160.703323364258
0.136508381666667, 229.209624748157, -0.00122666299216645, 2.72,161.127166748047
0.137175253333333, 229.218008940508, -0.00127017280671634, 2.73375,197.029891967773
0.13784136, 229.227124803822, -0.00159979475014527, 2.74625,160.283157348633
0.1385082, 229.235631785752, -0.00192665833210777, 2.76125,160.283157348633
0.139175305, 229.244989392909, -0.00217154653163131, 2.77375,160.475814819336
0.139841433333333, 229.254054245596, -0.00236284842276354, 2.7875,161.132873535156
0.140508641666667, 229.263690630795, -0.00233274943461987, 2.8,168.601379394531
0.14117537, 229.273257955931, -0.00249542826345504, 2.81375,158.464614868164
0.141841271666667, 229.283171226203, -0.00256642569731619, 2.8275,158.464614868164
0.142508148333333, 229.292690272468, -0.00239303590648951, 2.84,165.639450073242
0.143175336666667, 229.303002708068, -0.00251768714538262, 2.85375,160.803009033203
0.143841531666667, 229.312884567682, -0.00251365834775534, 2.8675,164.082092285156
0.144508791666667, 229.322401542368, -0.00238622774843289, 2.88125,163.519470214844
0.145175451666667, 229.332089735344, -0.00213984862379746, 2.89375,163.519470214844
0.145841565, 229.341374788861, -0.00243967906364916, 2.9075,159.571090698242
0.146508161666667, 229.350759597249, -0.00228146251070008, 2.92125,169.841842651367
0.147175351666667, 229.359665034806, -0.00229404537866568, 2.93375,159.33821105957
0.147841363333333, 229.369536538124, -0.00221715474082518, 2.9475,159.230834960938
0.148508533333333, 229.378365820147, -0.00205885119221821, 2.96125,159.230834960938
0.149175686666667, 229.388052661844, -0.00194485841794125, 2.97375,161.512634277344
0.149841411666667, 229.397188566414, -0.002115443349645, 2.9875,162.486083984375
0.150508116666667, 229.40685750889, -0.00230463484675927, 3,160.926452636719
0.151174925, 229.415487840936, -0.00206106208117119, 3.01375,169.132904052734
0.15184183, 229.425088000994, -0.00218701075492816, 3.0275,169.132904052734
0.152508176666667, 229.433962547084, -0.0020243754239432, 3.04,165.134826660156
0.153174868333333, 229.443704189909, -0.00178531293182211, 3.05375,166.406280517578
0.153841548333333, 229.452795177422, -0.00158879130287387, 3.0675,202.773422241211
0.154508565, 229.462336914076, -0.00168574343307235, 3.08125,165.926467895508
0.155175276666667, 229.471797665115, -0.00149738289422626, 3.09375,165.926467895508
0.155841538333333, 229.481327015411, -0.0016341970222308, 3.10625,163.047927856445
0.1565083, 229.490787077698, -0.00182574640086831, 3.12,165.157287597656
0.157175476666667, 229.500817688376, -0.00181933722280923, 3.13375,165.981216430664
0.157841543333333, 229.510674983349, -0.00160425852597702, 3.1475,168.329162597656
0.158508503333333, 229.52039803018, -0.00162186164179174, 3.16,168.329162597656
0.159174718333333, 229.530150154992, -0.00128791541556432, 3.1725,166.613067626953
0.159841358333333, 229.54006637503, -0.000756931586351435, 3.18625,170.731643676758
