Time (min), Depth (µm), Load (N), Position (µm), Acoustic (aJ)
6.66833333333333E-06, 227.39461823259, -0.000900882256175087, 0,244.308685302734
0.00066561, 227.394312043425, -0.000546220570486098, 0.0049999999999998,243.931777954102
0.00133314166666667, 227.394178912175, -0.000335232168202957, 0.0162499999999998,240.431945800781
0.00200066666666667, 227.394596017149, -0.000420649877763757, 0.03125,238.767318725586
0.00266744166666667, 227.395400124833, -0.000405368645350367, 0.0449999999999999,244.245086669922
0.00333370166666667, 227.396735863773, -0.000757001983180335, 0.0600000000000002,244.245086669922
0.00400035833333333, 227.399712880064, -0.000953585109029112, 0.0750000000000004,269.72705078125
0.00466742333333333, 227.40379351041, -0.00102115971484942, 0.0899999999999998,267.176483154297
0.00533362166666667, 227.408638462944, -0.000924246582685421, 0.103750000000001,269.196380615234
0.00600027166666667, 227.414974414915, -0.00116417903110918, 0.1175,269.541168212891
0.006666895, 227.420272444906, -0.00066558457500756, 0.13,269.541168212891
0.00733354, 227.425380100758, -0.000729920843467375, 0.1425,271.382354736328
0.00799902, 227.429451881394, -0.00105049674126871, 0.155,272.251831054688
0.00866709333333333, 227.432891740621, -0.00118478949586253, 0.17,271.590637207031
0.009334075, 227.436481405273, -0.00119712037648586, 0.1825,334.436798095703
0.01000029, 227.441216941475, -0.00157817623644736, 0.195,334.436798095703
0.010667125, 227.446683216309, -0.00163167404932013, 0.21,278.281921386719
0.0113340983333333, 227.453817222681, -0.00144724031322064, 0.22375,271.50634765625
0.01200036, 227.462150580737, -0.0014854538937887, 0.23625,269.876617431641
0.012667, 227.471064511333, -0.0012012436693718, 0.25,278.852691650391
0.0133335516666667, 227.480505707646, -0.000711923247449586, 0.26375,278.852691650391
0.0140002683333333, 227.490820801015, -0.000906692964333505, 0.27625,273.600952148438
0.0146670116666667, 227.501038890386, -0.0010355289930556, 0.29,275.867553710938
0.0153321566666667, 227.512160425215, -0.00120067219806789, 0.30375,277.599578857422
0.016000255, 227.523521317925, -0.0016428229892799, 0.3175,278.222137451172
0.0166669966666667, 227.534447643763, -0.00186504882712637, 0.33,278.222137451172
0.0173336333333333, 227.544968017643, -0.00158430642854618, 0.34375,278.566528320313
0.0180002233333333, 227.556297958026, -0.0015991226843308, 0.36,279.160766601563
0.0188322266666667, 227.566813731403, -0.00152669432235514, 0.37375,279.044647216797
0.019499695, 227.577479339279, -0.00151989216403865, 0.3875,279.145080566406
0.02016692, 227.587823874852, -0.00189774268501903, 0.4,274.865783691406
0.02083375, 227.598403944457, -0.00197137848635184, 0.41375,274.865783691406
0.0215004266666667, 227.608464622776, -0.00194513280465902, 0.4275,279.520385742188
0.02216638, 227.618908527856, -0.00180456736510557, 0.44,279.254455566406
0.022833505, 227.628992606783, -0.00151891421315769, 0.45375,270.892272949219
0.02350041, 227.639854973211, -0.00108991476132387, 0.4675,280.491516113281
0.0241672666666667, 227.65077079244, -0.00109488251181888, 0.48,280.491516113281
0.0248335616666667, 227.667519561863, -0.00102030625769393, 0.49625,275.466827392578
0.02566639, 227.678472142496, -0.000941125234885839, 0.51,331.133239746094
0.0263325716666667, 227.690597676239, -0.0012035520534535, 0.52375,274.538787841797
0.0270004766666667, 227.701885688345, -0.00137721933031604, 0.5375,278.981658935547
0.027666955, 227.713220655893, -0.00138987119480419, 0.55,275.737213134766
0.0283329766666667, 227.724778882905, -0.00144657284673366, 0.56375,275.737213134766
0.0289996733333333, 227.735804833569, -0.00141238956371729, 0.57625,268.449645996094
0.0296669366666667, 227.746626339474, -0.000960721750508788, 0.59,270.216766357422
0.030333735, 227.758120025995, -0.000676462028607839, 0.60375,269.068572998047
0.0310002966666667, 227.76913333967, -0.000395584636788842, 0.61625,271.112457275391
0.03166698, 227.780546075865, -0.000326649599343491, 0.6325,271.112457275391
0.032500295, 227.791607087862, -0.000345940130409429, 0.645,274.139892578125
0.03316696, 227.803185324011, -0.000746336018963424, 0.65875,269.119140625
0.0338336666666667, 227.813608665681, -0.00106850633666047, 0.6725,270.371215820313
0.03450025, 227.825220170537, -0.00136366751101591, 0.68625,268.257049560547
0.0351669233333333, 227.835933529266, -0.00131850327955167, 0.69875,265.977600097656
0.0358330216666667, 227.847354494781, -0.00133966271672162, 0.71125,265.977600097656
0.0365003933333333, 227.858258267993, -0.00124838180164829, 0.725,271.860717773438
0.0371669833333333, 227.870188309199, -0.00109413554925352, 0.73875,275.418426513672
0.03783361, 227.880829921969, -0.00119829631734554, 0.75125,275.504211425781
0.0385002966666667, 227.892110642304, -0.00110938078350248, 0.765,271.550231933594
0.0391664533333333, 227.903079555634, -0.0013191347477892, 0.7775,271.550231933594
0.0398321916666667, 227.914343455117, -0.00122768584122521, 0.79125,276.562347412109
0.040498905, 227.925241226532, -0.00130742783588765, 0.80375,276.215667724609
0.0411671716666667, 227.936330359659, -0.00145642135208704, 0.8175,281.788238525391
0.041833815, 227.947543715001, -0.00159517638256695, 0.83125,281.788238525391
0.0424988316666667, 227.95848020657, -0.00143031216351491, 0.84375,327.931854248047
0.0431654616666667, 227.969310915412, -0.0014865638380384, 0.85625,278.691314697266
0.043833635, 227.980347816909, -0.00127370352978118, 0.87,278.947631835938
0.0445004166666667, 227.992013743721, -0.001050379747144, 0.88375,280.223388671875
0.0451672283333333, 228.003520718726, -0.000890222291677044, 0.8975,276.520111083984
0.04583387, 228.01485331717, -0.00055214677284482, 0.91,276.520111083984
0.046500475, 228.026614061218, -0.000451876809292469, 0.92375,277.820007324219
0.0471670466666667, 228.038523831824, -0.000602088264341094, 0.9375,277.299987792969
0.0478330583333333, 228.049631595506, -0.000621204804112492, 0.95,270.555236816406
0.0484988833333333, 228.060837591671, -0.000555443607257042, 0.96625,272.215362548828
0.049165585, 228.074769744258, -0.00105004676386271, 0.9775,272.215362548828
0.049832115, 228.087861075049, -0.00159374395450679, 0.99,278.392272949219
0.0504987883333333, 228.100524522364, -0.00155051012611086, 1.00375,274.875030517578
0.0511655883333333, 228.113675939791, -0.00160861420761243, 1.0175,282.924072265625
0.0518321416666667, 228.126160798233, -0.00194473082481268, 1.03125,277.652374267578
0.0524992533333333, 228.136158875246, -0.00168467688707606, 1.045,277.652374267578
0.0531654683333333, 228.146157202821, -0.00126433500040688, 1.0575,279.483795166016
0.0538321183333333, 228.156972987188, -0.00125884677605893, 1.07125,277.638916015625
0.0544988883333333, 228.16776474595, -0.00147996716940766, 1.085,278.34228515625
0.0551654883333333, 228.17851138095, -0.00145756279477046, 1.09875,278.683563232422
0.0558322316666667, 228.1898547653, -0.0014902836511961, 1.11,278.683563232422
0.0564992933333333, 228.200960796519, -0.00138000169055168, 1.125,274.392547607422
0.0571654966666667, 228.211749914684, -0.00165827371323588, 1.1375,280.588287353516
0.0578321666666667, 228.222169469011, -0.00170218850748092, 1.15125,276.932434082031
0.0584989233333333, 228.233097150974, -0.00175163952359106, 1.165,329.835968017578
0.0591655683333333, 228.243469057947, -0.00169934315039909, 1.1775,329.835968017578
0.0598331983333333, 228.25420180786, -0.00180762871130146, 1.19125,277.560028076172
0.0604989266666667, 228.263951898619, -0.00148876422752055, 1.205,278.939666748047
0.061165455, 228.274347330094, -0.00130511345208709, 1.21875,279.609527587891
0.06183216, 228.284491316051, -0.00131878676530639, 1.2325,276.795562744141
0.0624988683333333, 228.294927288892, -0.00137987419693489, 1.245,276.795562744141
0.063166485, 228.304964612837, -0.00159784774835423, 1.25875,283.528411865234
0.06383213, 228.315409043931, -0.00148855423804033, 1.27125,278.669128417969
0.0644988033333333, 228.325192645618, -0.00157914818758819, 1.28625,276.613830566406
0.0651654983333333, 228.335069609523, -0.00163501738134634, 1.29875,281.573425292969
0.0658321916666667, 228.344386281192, -0.00210770063898208, 1.31125,281.573425292969
0.066499, 228.354045965326, -0.00217472027266691, 1.325,279.601623535156
0.067165565, 228.363288792519, -0.00230350980371125, 1.33875,281.655242919922
0.0678321166666667, 228.373152682342, -0.00204964905489838, 1.3525,280.640380859375
0.068498825, 228.38200963455, -0.00194588426689133, 1.365,279.570617675781
0.0691655883333333, 228.390807854797, -0.00138552891293412, 1.37875,279.570617675781
0.0698321466666667, 228.399739779483, -0.00111016074438346, 1.39125,274.261199951172
0.0704988733333333, 228.408872417641, -0.00119417152462021, 1.405,279.454803466797
0.07116548, 228.417354186127, -0.00122554994851366, 1.41875,284.956390380859
0.07183215, 228.426654699584, -0.001337244838201, 1.4325,280.53515625
0.0724988283333333, 228.435500082506, -0.00177943462746875, 1.44375,280.53515625
0.0731655733333333, 228.443861714898, -0.00185828866671442, 1.45875,283.307250976563
0.07383215, 228.45197154911, -0.00156781475690556, 1.47125,287.340576171875
0.0744988566666667, 228.460364444971, -0.00174589631207329, 1.485,278.890350341797
0.0751655783333333, 228.468392868879, -0.00180891564669451, 1.49875,341.444580078125
0.07583209, 228.47721296548, -0.00170151054154438, 1.51,341.444580078125
0.0764988616666667, 228.486551913075, -0.00170874617814094, 1.52375,281.568481445313
0.0771654933333333, 228.495723392049, -0.00202721618176128, 1.53625,288.687866210938
0.0778321183333333, 228.504643475777, -0.00200932058062417, 1.55,278.655029296875
0.0784987916666667, 228.513885180232, -0.00155769926507217, 1.56375,275.878936767578
0.0791654883333333, 228.52270419602, -0.00155785825708017, 1.57625,275.878936767578
0.07983234, 228.531490985973, -0.00136824978093928, 1.59,283.224945068359
0.0804988833333333, 228.540648384821, -0.00127741434347748, 1.60375,282.078796386719
0.0811654816666667, 228.549412562073, -0.00113924878337307, 1.61625,281.378662109375
0.081832165, 228.55852598416, -0.00140195158807343, 1.63,277.790649414063
0.082498785, 228.56721829327, -0.00126762583512149, 1.64375,277.790649414063
0.0831657066666667, 228.575378341005, -0.00151400495971441, 1.65625,284.424438476563
0.0838321416666667, 228.583258290295, -0.00132178661466551, 1.67,287.318359375
0.08449883, 228.591544270638, -0.00146048764784565, 1.6825,281.846954345703
0.0851655783333333, 228.599472567578, -0.00170960263503896, 1.695,287.609283447266
0.0858321466666667, 228.608345724516, -0.00186976009052717, 1.70875,287.609283447266
0.08649893, 228.616863841437, -0.0018559382848132, 1.7225,277.521545410156
0.087165565, 228.625499391809, -0.00198988755667616, 1.73625,263.377197265625
0.087832115, 228.633546928315, -0.0019716484728507, 1.75,275.185882568359
0.0884987833333333, 228.640924096344, -0.00148117010909788, 1.76375,269.751098632813
0.0891655416666667, 228.647440552719, -0.000990591250303772, 1.775,269.751098632813
0.08983221, 228.654324313937, -0.000761123776205635, 1.78875,271.093048095703
0.0904992083333333, 228.661094944741, -0.000719334375243837, 1.8025,272.391845703125
0.091165475, 228.667940059878, -0.000658209445441496, 1.81625,275.193786621094
0.091832225, 228.674477709085, -0.000557405508716568, 1.83,327.61572265625
0.0924988866666667, 228.681468676801, -0.000727742952872525, 1.8425,327.61572265625
0.0931654733333333, 228.687941703967, -0.000711980244619418, 1.855,272.457702636719
0.0938331266666667, 228.693850776779, -0.000495493118581262, 1.86875,273.732086181641
0.0944988066666667, 228.700681256726, -0.000414665178480832, 1.8825,268.490814208984
0.0951654683333333, 228.707293519599, -0.000398425494203727, 1.895,274.057983398438
0.0958321966666667, 228.713526262272, -0.000455685118117488, 1.90875,274.057983398438
0.0964988116666667, 228.719255069559, -0.000527745998550581, 1.9225,271.818572998047
0.09716554, 228.72542589041, -0.000627927466520632, 1.93625,272.188537597656
0.0978321916666667, 228.730698661242, -0.000640631828384143, 1.95,274.262298583984
0.0984988133333333, 228.736281123909, -0.000607799977488897, 1.96375,274.660308837891
0.099165455, 228.741760270243, -0.000522109281601687, 1.975,274.660308837891
0.0998321166666667, 228.74771097366, -0.000170759429547697, 1.99,270.170135498047
0.100498918333333, 228.753427623621, -0.000277990543424543, 2.00375,268.660736083984
0.101165615, 228.759266756945, -0.000489745407184019, 2.01625,274.939758300781
0.101832113333333, 228.765121480435, -0.000501932295064645, 2.03,273.317291259766
0.102498748333333, 228.771400482124, -0.000754257121054783, 2.0425,273.317291259766
0.10316556, 228.777654280772, -0.00119185714086216, 2.05625,281.946868896484
0.10383312, 228.783660437634, -0.000886164995464846, 2.07,271.776062011719
0.104498893333333, 228.790259572807, -0.000850382792800801, 2.0825,272.582794189453
0.105165536666667, 228.797033915205, -0.00100203417551035, 2.09625,274.320159912109
0.105832215, 228.804197357912, -0.00117949476182635, 2.11,274.320159912109
0.106498793333333, 228.811683893872, -0.00104777887778241, 2.12375,275.216613769531
0.107166706666667, 228.819643374176, -0.00127330454984741, 2.13625,269.524169921875
0.107832141666667, 228.827267830133, -0.001565837856202, 2.15,320.408264160156
0.10849892, 228.834998283591, -0.00190200847070202, 2.16375,267.206146240234
0.109165455, 228.842578046836, -0.00177105604832812, 2.17625,267.206146240234
0.109832123333333, 228.85044193951, -0.00166418491632931, 2.18875,266.455657958984
0.110498958333333, 228.858148075638, -0.00169051159400367, 2.2025,269.017028808594
0.11116547, 228.865450302153, -0.00120171314579504, 2.21625,261.656707763672
0.111832133333333, 228.87336771384, -0.00114827682982281, 2.22875,265.741363525391
0.112498748333333, 228.88074374093, -0.000905434527504122, 2.2425,265.741363525391
0.113167088333333, 228.88846928532, -0.0013518781031234, 2.255,262.273620605469
0.113832308333333, 228.896417478824, -0.00130245408563127, 2.26875,261.177368164063
0.114499728333333, 228.90509163637, -0.0014637124858015, 2.2825,254.175354003906
0.115165711666667, 228.913243185139, -0.00117480149749714, 2.295,257.137359619141
0.11583211, 228.921844889035, -0.00113829333125189, 2.30875,257.137359619141
0.116499686666667, 228.929587239817, -0.000612206756065799, 2.32125,258.593719482422
0.117165506666667, 228.937928889066, -0.000567105521447748, 2.335,263.289123535156
0.117832136666667, 228.945914697141, -0.000632961213604367, 2.3475,263.462341308594
0.118498893333333, 228.953994013418, -0.000539374914361908, 2.36125,252.610763549805
0.11916563, 228.961981461141, -0.000509089935570983, 2.375,252.610763549805
0.11983213, 228.970292621929, -0.000547104026172158, 2.3875,262.507202148438
0.120498831666667, 228.978638537288, -0.000414117705946119, 2.40125,258.382141113281
0.121165463333333, 228.98690695509, -0.000292385320430592, 2.415,261.744018554688
0.121832076666667, 228.995071185138, -0.000477141540319288, 2.4275,260.264984130859
0.122498856666667, 229.003377870426, -0.000332440808463412, 2.44,260.264984130859
0.123166321666667, 229.011925918331, -0.000774861586153024, 2.45375,267.156921386719
0.12383211, 229.019900822647, -0.000963153128476567, 2.46625,268.067108154297
0.124498936666667, 229.027531822592, -0.000857151952822933, 2.48,318.623657226563
0.125165591666667, 229.035339365279, -0.000800300308431875, 2.49375,318.623657226563
0.125832075, 229.042346621196, -0.0008090868670952, 2.505,272.602600097656
0.126498811666667, 229.049078381691, -0.000283750254195758, 2.51875,264.39306640625
0.127165521666667, 229.056204802676, -0.000293262776397785, 2.5325,253.175231933594
0.127832245, 229.063423886806, -0.000271464371325772, 2.54625,251.62028503418
0.128498821666667, 229.070532406162, -0.000362865280372619, 2.55875,252.394683837891
0.129165463333333, 229.078667497981, -0.000594783631349507, 2.5725,252.394683837891
0.129832116666667, 229.086999865946, -0.000878626374223843, 2.58625,263.893310546875
0.130498788333333, 229.094862068565, -0.000754947086514076, 2.6,248.597686767578
0.131165796666667, 229.103280451269, -0.000767115975238101, 2.6125,255.727691650391
0.131832115, 229.111953832095, -0.000688674415245828, 2.62625,251.143646240234
0.132498826666667, 229.120791226629, -0.000895187042323245, 2.63875,251.143646240234
0.133165548333333, 229.12950630951, -0.000855625029440351, 2.6525,253.21369934082
0.133832138333333, 229.138719580325, -0.000900361782343395, 2.66625,254.380416870117
0.134498856666667, 229.147970664759, -0.00079427811089009, 2.68,250.271331787109
0.135165515, 229.157119894927, -0.00088127074132936, 2.69375,250.451538085938
0.135832083333333, 229.16590771518, -0.000685812559016822, 2.70625,250.451538085938
0.136498858333333, 229.175143798325, -0.000856742473397082, 2.72,258.801544189453
0.137165465, 229.183833833518, -0.000997034926666635, 2.7325,253.395416259766
0.13783223, 229.192481119034, -0.0010758634671762, 2.74625,245.285415649414
0.138500083333333, 229.201718415603, -0.00101083873328777, 2.76125,249.420944213867
0.139165486666667, 229.209924457441, -0.00117749686224491, 2.7725,249.420944213867
0.139832151666667, 229.21848108064, -0.000868059404975039, 2.78625,246.624801635742
0.140498911666667, 229.22692261374, -0.000389974918670494, 2.8,249.045196533203
0.141166121666667, 229.235698131475, -0.000561338311245804, 2.81375,297.425567626953
0.141832113333333, 229.243755052409, -0.000230903408684038, 2.8275,246.979949951172
0.14249897, 229.252762638873, 1.13644225031826E-05, 2.84,246.979949951172
0.143165693333333, 229.261729216785, 6.87050423347194E-05, 2.85375,257.018096923828
0.143832185, 229.271172988694, -0.000407735526547552, 2.8675,255.073944091797
0.144498871666667, 229.279924115583, -0.000238212541533851, 2.88125,252.156661987305
0.14516635, 229.288917793082, -0.00042333474301945, 2.89375,254.564468383789
0.145832156666667, 229.298329328906, -0.000458039999834431, 2.90625,254.564468383789
0.146498806666667, 229.307163880786, -0.00081251269504861, 2.92,249.466659545898
0.147165528333333, 229.316493794545, -0.000676988502285923, 2.93375,252.634262084961
0.147832293333333, 229.325949387531, -0.000949166331078237, 2.9475,247.727630615234
0.148498813333333, 229.335813654372, -0.000976607452754249, 2.96125,250.095428466797
0.149165553333333, 229.345131866959, -0.00112304509736665, 2.97375,250.095428466797
0.149832141666667, 229.354503908324, -0.000909163340399531, 2.9875,247.138916015625
0.150498783333333, 229.364046493185, -0.00124249459751534, 3.00125,252.669647216797
0.15116562, 229.373551081329, -0.00106845833918584, 3.015,250.219284057617
0.151832978333333, 229.382572368893, -0.0010467439298379, 3.0275,254.360977172852
0.152498978333333, 229.392322307959, -0.00122835930749482, 3.04,254.360977172852
0.153165581666667, 229.401815475785, -0.00160596534075496, 3.05375,252.79963684082
0.153832125, 229.411396198797, -0.00168890367485209, 3.06625,257.862426757813
0.154498803333333, 229.421073116383, -0.00202812213629214, 3.08,250.729293823242
0.155165491666667, 229.431079258324, -0.00203686519716902, 3.095,260.147064208984
0.155832213333333, 229.440737986808, -0.00186779068957315, 3.10625,260.147064208984
0.156498791666667, 229.450624833746, -0.00175036008799006, 3.12,255.746688842773
0.157165446666667, 229.460418570237, -0.00137338252318241, 3.13375,261.534149169922
0.157832155, 229.470970195643, -0.000900405280342376, 3.14625,307.03173828125
0.158499201666667, 229.481129695092, -0.000947667906365588, 3.16,262.577270507813
0.159166263333333, 229.491339027236, -0.000766442509159784, 3.1725,262.577270507813
0.159832205, 229.501653292219, -0.00072032582552944, 3.18625,252.969680786133
0.160499611666667, 229.511981640076, -0.000895337034891096, 3.19875,254.60173034668
