Time (min), Depth (µm), Load (N), Position (µm), Acoustic (aJ)
7.89666666666667E-06, 227.336751154662, 0.000765418483813081, 0,171.694732666016
0.000665961666666667, 227.336688935319, 0.000650660748005441, 0.00375000000000028,175.090606689453
0.001333185, 227.336696335761, 0.000227038526113737, 0.0162499999999998,175.723083496094
0.00199903833333333, 227.337646970356, 0.000367006995627171, 0.0300000000000005,185.756881713867
0.00266617, 227.33798595726, 0.000301251798448079, 0.0449999999999999,185.756881713867
0.00333368166666667, 227.338998732209, -0.00010008754268309, 0.0600000000000002,199.99186706543
0.003999055, 227.340226577847, -0.000244189804553287, 0.0750000000000004,225.836532592773
0.00466568666666667, 227.342264361929, -0.000169223569998477, 0.0899999999999998,237.202575683594
0.005332675, 227.344397414752, -0.000518587521823742, 0.103750000000001,238.187896728516
0.00599904833333333, 227.348040135153, -0.00106723446386998, 0.11625,238.187896728516
0.00666566666666667, 227.351117425386, -0.000877772980320613, 0.12875,238.765930175781
0.00733251, 227.355141268659, -0.0005337787588367, 0.1425,244.09700012207
0.007999175, 227.35909903501, -0.000526291134919137, 0.15625,248.248001098633
0.00866566833333333, 227.364536133795, -0.000323291331410518, 0.17,251.329940795898
0.00933402166666667, 227.36994531159, 4.47766809327412E-05, 0.18375,251.329940795898
0.00999908833333333, 227.377502740276, -0.00013913958118386, 0.19625,256.121429443359
0.0106659016666667, 227.386165796237, -0.000683787724069631, 0.21,252.583877563477
0.01133257, 227.395174007393, -0.000567282576034639, 0.2225,243.633193969727
0.01199906, 227.403857863382, -0.000538491522183154, 0.23625,296.662414550781
0.0126662716666667, 227.413461343388, -0.000591062381625929, 0.25,296.662414550781
0.0133325433333333, 227.423425855271, -0.000206604692522731, 0.26375,250.33772277832
0.0139990083333333, 227.433542034006, 0.000118821961627647, 0.27625,248.859756469727
0.0146660783333333, 227.444104355164, 0.000248272959461347, 0.29,249.619079589844
0.01533252, 227.455270452371, 0.000173726703824465, 0.30375,252.431716918945
0.0159991166666667, 227.466208315541, -8.25654228711663E-05, 0.3175,252.431716918945
0.016665885, 227.477005168665, -0.000385203721694603, 0.33,247.003921508789
0.0173330266666667, 227.487914075338, -0.000357938091258788, 0.3425,250.819137573242
0.0179990366666667, 227.499063225219, -0.000465074709876975, 0.35625,249.427551269531
0.01866597, 227.509470693593, -0.000451032415233217, 0.370000000000001,246.319549560547
0.0193327333333333, 227.520728612352, -0.00030673366320243, 0.385,246.319549560547
0.0199990816666667, 227.531379561235, 0.000215801090444136, 0.39625,248.197296142578
0.0206657416666667, 227.542583916544, 0.000262778730851983, 0.41,249.830474853516
0.021332455, 227.553646757976, -1.03830485401556E-05, 0.423750000000001,246.278305053711
0.0219990333333333, 227.56515622749, 9.88693328863454E-06, 0.4375,245.560760498047
0.0226657183333333, 227.576217051046, 0.000130005399891206, 0.45,245.560760498047
0.0233329183333333, 227.587625944698, -0.000488641526139241, 0.46375,242.256301879883
0.0239990416666667, 227.598245173811, -0.000748126992484523, 0.47625,249.238265991211
0.0246657366666667, 227.609000396286, -0.000559302976891553, 0.49,247.76057434082
0.0253323816666667, 227.619435710453, -0.000486841616472758, 0.50375,244.768249511719
0.0259990933333333, 227.630232476106, -0.000607290066486554, 0.5175,244.768249511719
0.0266657166666667, 227.641229606651, -0.000501869361683252, 0.53,242.831024169922
0.0273326566666667, 227.652133135819, -0.000228833576026004, 0.5425,246.681854248047
0.0279991516666667, 227.66329087035, -0.000365409215986662, 0.55625,238.729461669922
0.0286658633333333, 227.674322976499, -0.00034546171794708, 0.57,294.137817382813
0.02933248, 227.684676960192, -6.01370495072767E-05, 0.58375,294.137817382813
0.0299994633333333, 227.695506314852, -5.13444911250842E-05, 0.59625,243.517395019531
0.0306661116666667, 227.706267560256, -0.000341969893277419, 0.60875,236.186813354492
0.03133295, 227.717072725468, -0.00019884558224567, 0.6225,233.645248413086
0.03199898, 227.727781893061, -0.000413307810063125, 0.63625,238.031051635742
0.0326656733333333, 227.739062938883, -0.000684675679528901, 0.65,238.031051635742
0.03333241, 227.749590177318, -0.000688302497373601, 0.6625,236.375823974609
0.03399914, 227.760734578199, -0.000615682145010569, 0.675,241.192932128906
0.0346667616666667, 227.771908089372, -0.000718083501501269, 0.68875,240.459991455078
0.03533263, 227.783068786153, -0.000775548615058276, 0.7025,237.040283203125
0.0359990766666667, 227.793883127125, -0.000872212759728827, 0.715,237.040283203125
0.0366656866666667, 227.804569206676, -0.000704609678248853, 0.7275,234.995132446289
0.0373324066666667, 227.814936427183, -0.000701911313801056, 0.74125,245.262023925781
0.037999105, 227.824951742034, -0.000616970580285508, 0.755,242.25993347168
0.0386658216666667, 227.835792405708, -0.000633318259162156, 0.76875,238.844604492188
0.039332435, 227.846270044856, -0.000382949334933932, 0.78125,238.844604492188
0.0399990483333333, 227.856817326697, -0.000361363919190944, 0.79375,243.9609375
0.040665705, 227.867813257326, -0.000355713703007437, 0.8075,244.875366210938
0.0413324583333333, 227.878613200044, -0.000306214689273887, 0.82,250.950408935547
0.04199902, 227.889637907185, 0.000382198232470095, 0.83375,248.587707519531
0.0426658416666667, 227.900508910297, 0.000160348875755112, 0.8475,248.587707519531
0.043332345, 227.912043489695, -3.22759489133364E-05, 0.86,255.956329345703
0.0439990783333333, 227.923106603139, 1.96574425517839E-05, 0.8725,246.559494018555
0.0446657383333333, 227.934762828302, -0.00018180943798291, 0.88625,298.064514160156
0.0453325866666667, 227.945668914671, -0.000473517785766938, 0.9,250.67643737793
0.0459990666666667, 227.95719108224, -0.000205235261330016, 0.91375,250.67643737793
0.0466657033333333, 227.968196034759, -7.93667143461424E-06, 0.92625,244.513793945313
0.0473325866666667, 227.979932407669, -0.00031493525122096, 0.94,239.937881469727
0.0479997966666667, 227.990707763376, -0.000378902538192557, 0.9525,232.179763793945
0.0486657233333333, 228.002033843174, -0.000415569696445811, 0.97,243.134323120117
0.0493324233333333, 228.014299245524, -0.000814365165363972, 0.98125,243.134323120117
0.04999913, 228.025897115879, -0.00112915735364615, 0.99375,236.175384521484
0.050666255, 228.036634588865, -0.000809073431134099, 1.0075,233.968307495117
0.0513324233333333, 228.048450859716, -0.00071352673037777, 1.02,231.490921020508
0.0519990783333333, 228.059351715039, -0.000800018386023844, 1.03375,237.899200439453
0.0526661183333333, 228.070140080678, -0.000661237856807824, 1.0475,237.899200439453
0.053332685, 228.08091909679, -0.000509022502395126, 1.06125,232.897842407227
0.053999155, 228.092035456234, -0.000538829005237649, 1.075,232.354431152344
0.0546659033333333, 228.102454613904, -0.000415575696079662, 1.08875,229.157775878906
0.0553326116666667, 228.113056381272, -0.000497690571509374, 1.10125,236.857208251953
0.0559990616666667, 228.123060239516, -0.000605568152931549, 1.115,236.857208251953
0.056665725, 228.133801394259, -0.000781651808432821, 1.1275,228.035095214844
0.0573325283333333, 228.143700998118, -0.000464135756945487, 1.14125,232.672958374023
0.057999135, 228.154566810026, -0.000520111445357518, 1.15375,230.849227905273
0.0586657116666667, 228.165531259783, -0.000661039866701577, 1.16875,233.911499023438
0.0593323733333333, 228.176560929709, -0.000315289233401383, 1.18125,233.911499023438
0.0599991, 228.187682008095, -5.97845671237324E-05, 1.195,228.880477905273
0.0606658, 228.19904302377, -0.000355913192910562, 1.2075,238.723342895508
0.0613324066666667, 228.209941506172, -0.000646003122008426, 1.22125,279.637634277344
0.0619991383333333, 228.220255692623, -0.00070468017471706, 1.235,232.052017211914
0.0626657383333333, 228.230236074181, -0.000948858909870335, 1.24875,232.052017211914
0.0633324383333333, 228.239961429027, -0.00105819741791633, 1.26125,233.195236206055
0.0639991683333333, 228.249825694684, -0.000975484072500941, 1.275,233.663589477539
0.064665685, 228.259433253022, -0.000693027260009011, 1.28875,242.356353759766
0.06533242, 228.269344642917, -0.000621291863192679, 1.3025,233.379592895508
0.065999015, 228.279182301969, -0.000525170691241125, 1.315,233.379592895508
0.0666657666666667, 228.28887031571, -0.000384045779800238, 1.32875,231.877090454102
0.0673324983333333, 228.298650597891, -0.000372616353870783, 1.3425,238.29670715332
0.067999105, 228.307919165551, -0.000573927242246284, 1.355,232.755004882813
0.0686657866666667, 228.3175455566, -0.000599671949082146, 1.36875,237.220764160156
0.0693328433333333, 228.326692463634, -0.000411804885470995, 1.3825,237.220764160156
0.0699990266666667, 228.336441593352, -0.000548823003236884, 1.395,241.205383300781
0.0706657066666667, 228.345250590748, -0.000814482159467427, 1.40875,242.819564819336
0.0713324566666667, 228.354982689867, -0.00076792599794442, 1.42125,239.774963378906
0.0719990883333333, 228.364240836374, -0.000657591539945881, 1.435,244.200805664063
0.07266573, 228.374107350209, -0.000832410758962666, 1.4475,244.200805664063
0.0733323833333333, 228.383687461424, -0.000570568910933529, 1.46125,246.507293701172
0.0739990066666667, 228.39392840585, -0.000552827802031205, 1.47375,244.383544921875
0.0746656883333333, 228.403773379272, -0.000753883703215645, 1.4875,245.293441772461
0.075332645, 228.413827908867, -0.000637834532199243, 1.50125,239.34944152832
0.0759990266666667, 228.42343610056, -0.000724552676408954, 1.51375,239.34944152832
0.076665765, 228.433463808142, -0.00115848388053085, 1.52625,245.647338867188
0.0773326966666667, 228.44316409475, -0.00102815242696617, 1.54,236.890060424805
0.077999055, 228.452583051555, -0.000645673138512185, 1.55375,286.733703613281
0.0786658616666667, 228.462192763938, -0.000693673727511832, 1.5675,239.816940307617
0.0793328816666667, 228.471989346792, -0.000768042992047874, 1.58,239.816940307617
0.0799989983333333, 228.481107314215, -0.000727239041610304, 1.5925,238.83186340332
0.0806657933333333, 228.490910302761, -0.000734983152622078, 1.60625,239.571182250977
0.0813326616666667, 228.5003348458, -0.00103258020461224, 1.62,242.166748046875
0.0819990233333333, 228.510166745803, -0.00109506556603962, 1.63375,239.882385253906
0.08266573, 228.519539363544, -0.00120149722008201, 1.64625,239.882385253906
0.0833328166666667, 228.528654531313, -0.00086811346559083, 1.65875,242.410583496094
0.0839991366666667, 228.537720860482, -0.000886409546607375, 1.6725,241.128372192383
0.0846663966666667, 228.546608688986, -0.000419099019119284, 1.685,240.298126220703
0.0853324433333333, 228.554839338723, -0.000228055115026918, 1.69875,244.894165039063
0.0859990966666667, 228.563867927716, -0.00013094849257239, 1.7125,244.894165039063
0.0866659383333333, 228.572691692438, -0.000471989362438699, 1.725,232.579086303711
0.087332505, 228.581246630755, -0.000641117867270581, 1.73875,218.196655273438
0.0879992666666667, 228.590016388974, -0.000893156207678442, 1.7525,210.808227539063
0.0886658566666667, 228.598363746023, -0.000821656299057184, 1.765,216.73698425293
0.0893323583333333, 228.606564900527, -0.000854797134443264, 1.77875,216.73698425293
0.089999075, 228.614335341327, -0.00042512121661856, 1.7925,215.854278564453
0.090667015, 228.621729141679, -0.00023873907840043, 1.805,218.687408447266
0.0913326816666667, 228.629057752817, -0.000156801194050303, 1.81875,222.272796630859
0.091999105, 228.635984564259, -0.00026258938041742, 1.8325,224.058883666992
0.0926657283333333, 228.642552254988, -7.60647493384714E-05, 1.845,224.058883666992
0.09333333, 228.649671309287, -0.000373124828307249, 1.85875,218.657592773438
0.0939990516666667, 228.656566351368, -0.000566021139313942, 1.8725,219.837066650391
0.0946657283333333, 228.66392218658, -0.00100304368809854, 1.885,255.107238769531
0.09533247, 228.671242036109, -0.000969653865240265, 1.9,216.141036987305
0.0959991, 228.678449525142, -0.00123846136334585, 1.9125,211.177978515625
0.0966657966666667, 228.685380139435, -0.00101595953936667, 1.92625,211.177978515625
0.0973323666666667, 228.692504779624, -0.000796763549367389, 1.93875,218.521987915039
0.0979990316666667, 228.699040372432, -0.000729656920045913, 1.9525,218.771072387695
0.09866593, 228.705655985534, -0.00072693455678641, 1.96625,215.620300292969
0.0993324966666667, 228.712032190148, -0.000610631898545857, 1.98,215.620300292969
0.0999990033333333, 228.718621470639, -0.000619308962748999, 1.9925,215.739227294922
0.100666168333333, 228.725164362969, -0.000812116778194645, 2.00625,216.027679443359
0.10133279, 228.731172020184, -0.000590639402816686, 2.02,211.860824584961
0.101999186666667, 228.737352293725, -0.00058060340693416, 2.0325,214.453277587891
0.10266573, 228.743511299431, -0.000619898433188258, 2.04625,214.453277587891
0.103332436666667, 228.749600842911, -0.000596978084407558, 2.05875,217.368347167969
0.103999233333333, 228.755237245457, -0.000293288338471168, 2.0725,220.532669067383
0.10466571, 228.761069058769, 1.60996212933957E-05, 2.08625,211.687286376953
0.105333031666667, 228.767125268154, 0.000115429132074871, 2.1,214.959335327148
0.106000195, 228.773234532378, 0.000292679728953165, 2.1125,214.959335327148
0.106665713333333, 228.779647337408, -0.000163606352279367, 2.125,209.973785400391
0.107332363333333, 228.785982734594, -0.000311740411604398, 2.13875,212.348571777344
0.107998998333333, 228.792658707564, -0.000555677658907494, 2.1525,208.460098266602
0.108665811666667, 228.799969655811, -0.000919388390094141, 2.16625,205.641830444336
0.109332515, 228.807653093361, -0.00110917685718468, 2.17875,205.641830444336
0.109999021666667, 228.814953181162, -0.000660372400172095, 2.1925,201.63737487793
0.110665733333333, 228.82307055334, -0.000459274501146872, 2.205,200.352462768555
0.111332385, 228.831333817471, -0.000791705803471948, 2.21875,242.29768371582
0.111999068333333, 228.839394147516, -0.000411263412718911, 2.2325,195.577133178711
0.112665718333333, 228.847753039226, -0.000387378612440646, 2.24625,195.999801635742
0.113332501666667, 228.856178082757, -0.000784459667468326, 2.25875,195.999801635742
0.113999028333333, 228.8644900762, -0.000698417989228246, 2.2725,190.872268676758
0.114665721666667, 228.872685411517, -0.000333481819570342, 2.285,190.228881835938
0.115332478333333, 228.881026866866, -0.000730417381909652, 2.29875,193.47590637207
0.115998978333333, 228.888925886267, -0.000467348595591126, 2.31125,193.47590637207
0.116665803333333, 228.896921198181, -0.000115574264867251, 2.32375,190.017288208008
0.117332573333333, 228.904377993242, -0.000193348358351296, 2.3375,195.411666870117
0.117999018333333, 228.912420363676, -0.000275323740832759, 2.35125,189.972854614258
0.118665795, 228.919638440043, -4.91132336063662E-06, 2.36375,188.951721191406
0.11933242, 228.927389401485, -4.06800267475604E-05, 2.37875,188.951721191406
0.119999056666667, 228.934715685522, 1.95329488050594E-05, 2.39,192.118759155273
0.120665715, 228.942800598287, 0.00027396516892184, 2.40375,193.858428955078
0.121332346666667, 228.950431042862, 0.000192214775164628, 2.4175,191.707443237305
0.121999045, 228.958017129942, 0.000234640144179677, 2.43,194.319808959961
0.12266569, 228.965801296705, 0.00012956442207414, 2.44375,194.319808959961
0.123332466666667, 228.973450382568, 2.53481567579409E-05, 2.45625,192.546264648438
0.123999013333333, 228.980962743037, -0.000282089900942322, 2.46875,206.887893676758
0.124666108333333, 228.988589997161, -0.000135410768458484, 2.48375,202.397842407227
0.125332345, 228.996435127361, -0.000265458736289696, 2.49625,207.022232055664
0.125999626666667, 229.003241516379, -0.000219496544915396, 2.50875,207.022232055664
0.126665685, 229.010452714244, -0.00030537623129867, 2.5225,200.266571044922
0.127332515, 229.017358054952, -0.000317806106953878, 2.53625,234.008224487305
0.127999013333333, 229.024637155013, -0.000452512840789265, 2.55,190.085571289063
0.128665735, 229.031745213751, -0.000425047720322801, 2.5625,198.006896972656
0.129333185, 229.03907163331, -0.000230741480121997, 2.57625,200.142120361328
0.129998996666667, 229.046887854275, -2.25369380414013E-05, 2.58875,200.142120361328
0.130666116666667, 229.054587051291, 0.000131511324268381, 2.6025,195.183776855469
0.13133259, 229.063013225508, 0.000131743812593394, 2.615,195.9912109375
0.131999016666667, 229.071910818187, 0.00011559712362929, 2.63,199.512985229492
0.13266591, 229.081391262171, 4.25432930287E-05, 2.64375,199.512985229492
0.133332508333333, 229.090554313533, 2.19681961913993E-06, 2.655,196.771621704102
0.133999158333333, 229.100090308717, -2.13744964375896E-05, 2.66875,190.746490478516
0.134665766666667, 229.109090542072, 4.68150784730717E-05, 2.6825,191.344619750977
0.135333101666667, 229.117970509402, 0.000211793291779754, 2.69625,190.304336547852
0.135999168333333, 229.126627696454, 8.4202200567414E-05, 2.71,190.304336547852
0.136665948333333, 229.135779787158, -0.000195745237972784, 2.7225,188.647689819336
0.137332348333333, 229.144526270791, -0.000199448551940796, 2.73625,191.014007568359
0.137999158333333, 229.153385400663, -0.000125443769119762, 2.75,193.073608398438
0.138665931666667, 229.162497509067, 0.000121652319529201, 2.76375,190.520950317383
0.139332536666667, 229.171550209206, 5.47841782303511E-05, 2.77625,190.520950317383
0.139999041666667, 229.180405848593, 0.000359567369290512, 2.79,192.323715209961
0.140665836666667, 229.190008389481, 0.000389619859756423, 2.80375,189.831207275391
0.141332545, 229.199413372341, 0.000122273288295912, 2.81625,190.532211303711
0.141999048333333, 229.20917119524, -8.93465822460162E-05, 2.83,188.705078125
0.142665868333333, 229.218266067841, -1.32074066590802E-05, 2.84375,188.705078125
0.14333239, 229.227441582484, -0.000266558181089825, 2.85625,190.434097290039
0.143999061666667, 229.236081985915, -0.000453225304987083, 2.87,228.989151000977
0.144665768333333, 229.244654723328, -7.77131665764633E-05, 2.88375,189.906631469727
0.145332338333333, 229.253097212696, 0.000120524376144156, 2.89625,190.059432983398
0.145999073333333, 229.262592153961, 0.000184923641428908, 2.91,187.100738525391
0.146666045, 229.271703572798, 0.000327089500596942, 2.92375,187.100738525391
0.147332785, 229.281615865379, 0.000567981900808818, 2.93625,196.647079467773
0.147999103333333, 229.291443842253, 6.4026713954775E-05, 2.95,192.008071899414
0.148665888333333, 229.301148511528, -0.000161846940656788, 2.965,191.271041870117
0.149332341666667, 229.3106591387, -0.000160185024120421, 2.97625,191.271041870117
0.149999045, 229.320323663257, -1.41508592787622E-05, 2.99,192.298965454102
0.150665828333333, 229.329445115822, -9.46713147702536E-05, 3.00375,193.665344238281
0.151332488333333, 229.338993692581, 0.000248122967021021, 3.0175,200.498489379883
0.151999031666667, 229.348473635393, 0.000239081421187888, 3.03,197.847106933594
0.15266615, 229.358400647153, 0.000219120423764914, 3.04375,197.847106933594
0.153332391666667, 229.368078842616, -4.35808810323053E-05, 3.05625,198.061477661133
0.153999023333333, 229.378535266778, 5.19058227266386E-05, 3.07,197.684112548828
0.154666258333333, 229.38869032112, -0.000187657644230155, 3.08375,201.462387084961
0.155332461666667, 229.398696072935, -0.000448602537232349, 3.09625,201.635818481445
0.155999085, 229.408724257183, -0.000758471972836629, 3.11,201.635818481445
0.156665721666667, 229.418983345062, -0.000773321226979373, 3.1225,200.280258178711
0.157332573333333, 229.428600694664, -0.00105084928701078, 3.13625,198.369567871094
0.157999911666667, 229.438022086805, -0.000636163616265235, 3.15,200.284545898438
0.15866647, 229.44774388409, -0.000242925368196324, 3.1625,201.456085205078
