Time (min), Depth (µm), Load (N), Position (µm), Acoustic (aJ)
8.835E-06, 226.762849127647, -3.00518078261305E-05, 0,255.438903808594
0.00066527, 226.762533061507, 5.98161782042834E-05, 0.00500000000000001,256.941314697266
0.001331665, 226.762703091517, -0.000164538052710476, 0.0174999999999999,256.941314697266
0.00199886333333333, 226.762258049878, -0.000170204768062419, 0.0325,254.802444458008
0.00266480833333333, 226.762964731161, -0.000290396730939496, 0.0475,258.453582763672
0.00333224333333333, 226.76365564862, -9.54275240674359E-05, 0.0612499999999999,313.418212890625
0.00399794333333333, 226.765970057288, -0.000439220755681313, 0.075,263.796356201172
0.00466475166666667, 226.768669968602, -0.000484378987447942, 0.0887499999999999,261.918029785156
0.00533167333333333, 226.772302288899, -0.000656724830698673, 0.10375,261.918029785156
0.00599784833333333, 226.777596221159, -0.000895478338350183, 0.11625,266.10888671875
0.00666471333333333, 226.785478606417, -0.00127066799292909, 0.13375,268.820892333984
0.007497885, 226.790168514981, -0.00129161444081252, 0.14625,265.775299072266
0.008164775, 226.794823374567, -0.00130613221161964, 0.15875,263.788604736328
0.008831395, 226.799458342859, -0.0013223268981859, 0.17375,263.788604736328
0.00949798, 226.804134039973, -0.00104711322189129, 0.1875,270.404907226563
0.010164675, 226.810926491944, -0.000793222474569107, 0.2,267.496612548828
0.0108315466666667, 226.818436091708, -0.000456600382717435, 0.2125,267.268615722656
0.0114980916666667, 226.828654426993, -0.000187713388618475, 0.22625,210.544021606445
0.01216458, 226.839266440321, -0.000227093910584813, 0.24,210.544021606445
0.0128312866666667, 226.850350981196, 5.7815278731526E-05, 0.25375,269.407318115234
0.0134978316666667, 226.860867209566, 0.00035547982740485, 0.2675,270.742248535156
0.0141651333333333, 226.872606553037, 0.000315250348034981, 0.28,258.097991943359
0.01483134, 226.883522458899, 0.000538670125918987, 0.29375,261.294708251953
0.0154977833333333, 226.895043693542, 0.000644572306562005, 0.3075,261.294708251953
0.0161646066666667, 226.906972231695, 0.000257189764341102, 0.32,268.010833740234
0.016831425, 226.919061699485, -4.0635276222116E-05, 0.33375,260.776123046875
0.017498275, 226.930682725053, -0.00022718690587656, 0.3475,263.170501708984
0.0181648416666667, 226.942281619575, -0.000675236900786779, 0.36,266.289031982422
0.018831545, 226.953709229985, -0.000749624164394407, 0.37375,266.289031982422
0.0194974433333333, 226.964734714952, -0.000522484573395207, 0.3875,264.157043457031
0.0201648166666667, 226.976326484787, -0.00016685393637168, 0.40125,321.354522705078
0.0208313216666667, 226.98724468336, 1.72918141573651E-05, 0.4175,271.633422851563
0.021664815, 226.998402995492, 2.29690290226386E-05, 0.43,264.761596679688
0.0223313816666667, 227.009521013277, 9.15095862861705E-05, 0.44375,265.803436279297
0.0229977566666667, 227.02104379315, -0.000291169192155953, 0.4575,265.803436279297
0.02366456, 227.031896373526, -0.000240044260114221, 0.47125,263.455108642578
0.0243313033333333, 227.043085664396, -0.000107708907185467, 0.485,268.646850585938
0.0249982633333333, 227.054856637221, 2.4089472721905E-05, 0.4975,272.860870361328
0.0256647333333333, 227.066011534801, 0.000289024165295641, 0.51125,269.254577636719
0.02633148, 227.077453191725, 0.000432467960246538, 0.52375,269.254577636719
0.026997855, 227.089380049146, 4.25025478206505E-05, 0.5375,267.061187744141
0.0276647333333333, 227.107150100526, -0.000261662674257843, 0.55375,269.9765625
0.02849794, 227.118823045459, -0.000480399687304714, 0.5675,278.60009765625
0.0291646016666667, 227.129970377181, -0.000618020774723221, 0.58,268.797943115234
0.0298316233333333, 227.141154756136, -0.000450668180639845, 0.59375,270.460693359375
0.0304974183333333, 227.151953748801, -0.000337870846346075, 0.6075,270.460693359375
0.031164565, 227.163580221449, -0.000507236339318688, 0.62,269.931091308594
0.0318316966666667, 227.174808563859, -0.000599358712067264, 0.63375,263.2470703125
0.0324979983333333, 227.186128519389, -0.000578418263881439, 0.64625,265.081512451172
0.033164575, 227.196926145587, -0.000593377012505621, 0.66,262.880920410156
0.0338317533333333, 227.208012907957, -0.000912368989839556, 0.6725,262.880920410156
0.034497915, 227.218261904418, -0.000884971365992493, 0.68625,266.958892822266
0.0351651083333333, 227.228432939374, -0.000891031061623105, 0.7,264.769500732422
0.035831335, 227.238302795738, -0.00066710130937823, 0.7125,272.204925537109
0.0364977983333333, 227.248372995094, -0.000668485739836232, 0.725,314.384216308594
0.0371647266666667, 227.257953486658, -0.000390060724841644, 0.73875,314.384216308594
0.0378312383333333, 227.26765985532, -0.000240554234411329, 0.7525,264.683807373047
0.0384981116666667, 227.277764076878, 9.30771526232376E-06, 0.76625,267.488922119141
0.03916475, 227.28753128416, -0.000119286825545828, 0.7775,263.469116210938
0.0398313966666667, 227.297777647016, -0.000331740654204747, 0.7925,266.714752197266
0.0404982316666667, 227.307607599643, -0.000459352744358733, 0.805,266.714752197266
0.041164595, 227.317313819195, -0.000274650521748554, 0.81875,267.329193115234
0.0418319583333333, 227.327048040272, -0.000493381535119066, 0.83125,268.071563720703
0.0424979583333333, 227.336693995273, -0.00071735028541968, 0.84375,265.620025634766
0.0431650866666667, 227.345319762861, -0.000361890639778124, 0.8575,269.718017578125
0.04383203, 227.354462451708, -0.000172822136507423, 0.87,269.718017578125
0.0444979366666667, 227.363006044999, -0.00055065915814692, 0.88375,274.735382080078
0.0451655233333333, 227.371548958958, -0.000322772604667374, 0.8975,276.058624267578
0.0458325983333333, 227.380440615014, -9.31566380320592E-05, 0.91125,277.062194824219
0.0464978566666667, 227.389489645624, -0.000216991917922273, 0.925,276.107208251953
0.0471652783333333, 227.39841617013, -0.000452541586495818, 0.9375,276.107208251953
0.0478313433333333, 227.407495953656, -0.000410746185836407, 0.95125,284.908660888672
0.0484984383333333, 227.416433878676, -0.000544047490272146, 0.965,285.719940185547
0.0491651416666667, 227.425298882499, -0.00101328092114277, 0.9775,284.261962890625
0.0498327966666667, 227.434482271821, -0.00119771915699421, 0.99125,278.232147216797
0.0504988216666667, 227.443627712642, -0.0010816369877047, 1.005,278.232147216797
0.0511653666666667, 227.452595095388, -0.00103949360451997, 1.0175,286.871398925781
0.051831455, 227.461971262151, -0.000917816716207369, 1.0325,286.524871826172
0.05249804, 227.470852413388, -0.000631116616877237, 1.04375,336.099243164063
0.05316471, 227.479874064205, -0.000588629750919146, 1.0575,280.198059082031
0.05383142, 227.488993914167, -0.000603880984844471, 1.07,280.198059082031
0.054498055, 227.497752501376, -0.000632855029515662, 1.085,281.428100585938
0.055164855, 227.506605557506, -0.000807258769387728, 1.09875,272.308044433594
0.0558315883333333, 227.515553497488, -0.000947318734311014, 1.11125,285.848419189453
0.0564980166666667, 227.524478611723, -0.00097534182676176, 1.125,280.281158447266
0.0571649016666667, 227.533890665553, -0.00102696323388724, 1.13875,280.281158447266
0.057831285, 227.543533305571, -0.000967938198653288, 1.1525,281.916595458984
0.058497865, 227.553146298713, -0.00122298538788167, 1.165,279.216888427734
0.05916521, 227.563064513883, -0.00132757363455615, 1.17875,275.403594970703
0.0598315916666667, 227.572949790404, -0.00117680270764135, 1.19125,282.006927490234
0.0604978933333333, 227.582575197966, -0.00102318642362347, 1.205,282.006927490234
0.0611647716666667, 227.592730710803, -0.000783627456439885, 1.21875,281.337799072266
0.061831365, 227.602483242564, -0.000350621705887342, 1.2325,282.60498046875
0.0624984233333333, 227.613164322863, 3.02571629945684E-05, 1.245,282.715759277344
0.063164835, 227.623541569787, -3.87093728632509E-05, 1.25875,283.1220703125
0.0638314216666667, 227.634358643611, -0.000222885121901615, 1.2725,283.1220703125
0.064497875, 227.644890229682, -0.000179682791854392, 1.28625,285.417510986328
0.0651647283333333, 227.655709918381, -0.000156592951637378, 1.29875,280.395141601563
0.0658319866666667, 227.666115475721, -0.000213329101806878, 1.3125,280.409423828125
0.0664978683333333, 227.676455165998, -9.38181047151499E-05, 1.325,282.62060546875
0.0671651733333333, 227.686866453793, -9.9676704587707E-07, 1.33875,282.62060546875
0.0678314183333333, 227.697734007517, -0.000346672404125908, 1.3525,281.117980957031
0.0684979916666667, 227.70851801368, -0.000689012208759233, 1.365,280.498504638672
0.0691647966666667, 227.71916445632, -0.000629561194952247, 1.3775,335.762542724609
0.0698313683333333, 227.730120587909, -0.000570821145397422, 1.39125,277.867492675781
0.070497925, 227.740712219361, -0.000597359312391385, 1.405,275.931396484375
0.0711648, 227.751674265108, -0.000404379005596856, 1.4175,275.931396484375
0.07183147, 227.761892523469, 4.98221803538275E-05, 1.43125,273.203857421875
0.07249839, 227.772261840806, 7.48080712661484E-06, 1.44375,270.505279541016
0.073164835, 227.783056279763, -0.000293170091479931, 1.4575,273.611206054688
0.0738314133333333, 227.793695125986, -0.000257311392628812, 1.47125,273.611206054688
0.07449789, 227.804205318927, -0.000637428299743834, 1.48375,266.354644775391
0.075165085, 227.814815624414, -0.00115581426172584, 1.4975,275.752502441406
0.0758314516666667, 227.824778149198, -0.00118417933698304, 1.51,267.344177246094
0.0764982833333333, 227.83481742838, -0.00129774463272006, 1.52375,267.434997558594
0.0771655183333333, 227.844255445371, -0.00144184089493515, 1.5375,267.434997558594
0.0778319666666667, 227.853692913414, -0.00130372933210925, 1.55,270.841857910156
0.07849805, 227.863330326243, -0.0010613040089022, 1.56375,269.824768066406
0.0791647783333333, 227.872867350302, -0.00119118248525459, 1.57625,273.386535644531
0.0798318083333333, 227.881665577438, -0.000885848821853415, 1.59,274.307434082031
0.080497875, 227.891050219238, -0.000731472076035557, 1.60375,274.307434082031
0.0811649716666667, 227.900351312541, -0.000683762472476413, 1.61625,274.376861572266
0.0818318183333333, 227.909385922284, -0.000778343221789519, 1.62875,275.136291503906
0.08249782, 227.918519998692, -0.000977998193305012, 1.6425,275.871429443359
0.083165, 227.927771831613, -0.0009476307186294, 1.655,278.429840087891
0.0838318866666667, 227.936771960816, -0.00105950859909394, 1.66875,278.429840087891
0.084497835, 227.945181287184, -0.000780503113249021, 1.6825,285.903564453125
0.0851653683333333, 227.953687017409, -0.00056028267471228, 1.695,275.538940429688
0.08583152, 227.95998022822, -0.000347581358463061, 1.70875,338.165161132813
0.0864984233333333, 227.966678667603, 1.42649663715254E-05, 1.7225,288.621032714844
0.0871649216666667, 227.973552571987, 0.000184966892199982, 1.735,287.440704345703
0.087831585, 227.980613944661, 0.000333027455293016, 1.74875,287.440704345703
0.0884981333333333, 227.987964440552, 0.000327674224183863, 1.7625,285.825897216797
0.0891651016666667, 227.997245210912, 0.000637975638058789, 1.775,288.227722167969
0.0898317866666667, 228.005633655914, 0.000453498404172862, 1.78875,291.176544189453
0.09049841, 228.014494138608, 0.00049984757608571, 1.8025,291.176544189453
0.0911650516666667, 228.022626837689, 0.000219534155927355, 1.815,289.796630859375
0.0918319766666667, 228.031068960625, 0.000407843697322484, 1.82875,290.270477294922
0.0924982016666667, 228.039431467719, 0.000368631166931819, 1.8425,289.439758300781
0.0931650516666667, 228.048377624795, 0.000229198170494111, 1.855,291.344116210938
0.0938322316666667, 228.056395481575, 0.000419688602332896, 1.86875,291.344116210938
0.0944983716666667, 228.064628880392, 0.000435049330803422, 1.8825,290.258544921875
0.0951647733333333, 228.072451749012, 0.000278314703419815, 1.89625,288.959533691406
0.09583268, 228.080503871063, 6.59885140746643E-06, 1.90875,290.865081787109
0.09649791, 228.087903428061, -9.82953798665303E-05, 1.9225,287.977996826172
0.09716517, 228.095486955372, -0.000276268940413465, 1.93625,287.977996826172
0.0978319766666667, 228.103468289561, -0.000393797037125274, 1.94875,285.873840332031
0.0984978316666667, 228.111057506923, -9.49955456055024E-05, 1.9625,287.787811279297
0.099164805, 228.118833420472, 0.000197920241535689, 1.975,292.599578857422
0.09983153, 228.12643762934, 8.50389114540819E-05, 1.98875,289.962524414063
0.100498715, 228.133698134209, 0.000108205247815661, 2.0025,289.962524414063
0.10116476, 228.140706129503, 0.000426579256210438, 2.01625,292.232543945313
0.101831398333333, 228.147731831613, 0.000193729452030347, 2.03,297.738006591797
0.102497856666667, 228.155273931739, 2.50239259439462E-05, 2.0425,351.966491699219
0.10316482, 228.162757943401, 0.000456123272282391, 2.05625,286.129516601563
0.103831655, 228.171000069246, 0.000447552702754389, 2.07,288.133422851563
0.104497885, 228.178870499821, 0.00035592080534944, 2.0825,288.133422851563
0.105164731666667, 228.187856444047, 0.000319246147495424, 2.09625,292.612701416016
0.105831461666667, 228.1963208286, 0.000426622754081895, 2.10875,295.740814208984
0.106497926666667, 228.205137702842, 0.000203160978314598, 2.12375,293.524841308594
0.10716489, 228.21329375626, 0.000267449249193509, 2.1375,293.524841308594
0.107831306666667, 228.222053126426, 0.000335176847324204, 2.15,296.838165283203
0.108497896666667, 228.229570249345, 0.000384198884969995, 2.16375,295.808349609375
0.109164673333333, 228.237807028719, 0.000281268055079928, 2.17625,291.628601074219
0.109831458333333, 228.246110113357, 2.53224109639568E-05, 2.18875,292.635833740234
0.110498148333333, 228.254485110582, -9.00247952616879E-05, 2.2025,292.635833740234
0.111164741666667, 228.262739925123, 0.000145665866227017, 2.21625,295.218841552734
0.111831521666667, 228.271355363245, 8.3282645632342E-06, 2.22875,293.464477539063
0.112497941666667, 228.279063231805, -3.59163668859506E-06, 2.2425,292.636779785156
0.113164746666667, 228.2870508606, 0.00021107608079336, 2.255,294.740661621094
0.11383154, 228.294826643296, 0.000412310473003041, 2.26875,294.740661621094
0.114498068333333, 228.302621564862, 0.000514966816663549, 2.2825,290.131225585938
0.115164688333333, 228.310739371412, 0.000454702843659965, 2.295,287.645660400391
0.11583155, 228.318782336445, 0.000614101337230093, 2.30875,293.979553222656
0.116498095, 228.326419152453, 0.000582781410409634, 2.32125,288.666625976563
0.117164938333333, 228.334515548283, 0.000285073363992378, 2.335,288.666625976563
0.117832121666667, 228.342160918031, -8.12232373118218E-05, 2.3475,293.003540039063
0.118498208333333, 228.349578371457, -5.46654249022469E-06, 2.3625,291.067108154297
0.119165068333333, 228.356758486012, -0.000424388000494463, 2.375,340.654724121094
0.119831816666667, 228.364355381327, -0.000637149313698558, 2.3875,292.380187988281
0.120498001666667, 228.371286743766, -0.00067981167081183, 2.40125,294.143432617188
0.121164813333333, 228.378956981225, -0.000895845819680202, 2.41375,294.143432617188
0.121831625, 228.386284651817, -0.000727153792870922, 2.4275,288.525817871094
0.122498231666667, 228.393635162824, -0.000439871722766056, 2.44,293.447906494141
0.123164805, 228.400807172315, -0.000280773214097833, 2.45375,291.808471679688
0.123831766666667, 228.408336133202, -2.0953264610624E-05, 2.4675,291.808471679688
0.124497876666667, 228.41528532871, 0.000189526663193542, 2.48,291.063262939453
0.125164693333333, 228.423121485774, -3.95461843669163E-06, 2.49375,298.219757080078
0.125831398333333, 228.430398981127, -6.26316711665804E-05, 2.50625,298.933929443359
0.126498066666667, 228.437953828817, 0.00010444343683843, 2.51875,297.641387939453
0.127164578333333, 228.445595703945, 0.000232626998296327, 2.5325,297.641387939453
0.127831641666667, 228.454597755851, 9.46624281044579E-05, 2.545,296.560699462891
0.128497998333333, 228.462758229872, 0.000272012020035875, 2.56,290.588897705078
0.129164845, 228.472013501292, -5.5391534818063E-05, 2.5725,287.377716064453
0.129831443333333, 228.480800956634, -0.000372960083680765, 2.58625,283.795104980469
0.130497885, 228.489461782389, -0.000532517569258894, 2.6,283.795104980469
0.131164831666667, 228.496543857401, -0.000801737546575377, 2.6125,282.090637207031
0.131831996666667, 228.504018298704, -0.000991556012196486, 2.6275,280.746551513672
0.132499208333333, 228.510615862517, -0.000602994529245843, 2.64,287.887542724609
0.133164785, 228.517450914287, -0.000421770631964442, 2.65375,284.797332763672
0.133831951666667, 228.524565560494, -0.000597231818732092, 2.66625,284.797332763672
0.13449785, 228.531760154659, -0.000453456540424313, 2.68,288.244903564453
0.13516476, 228.538502085883, -0.000303141590570609, 2.69375,336.208557128906
0.135831508333333, 228.545459776179, -0.000594867937447475, 2.70625,286.328277587891
0.13649784, 228.552648926276, -0.000624753936283371, 2.72,281.969299316406
0.137164825, 228.559968954162, -0.000718700217467628, 2.73375,283.093109130859
0.137831375, 228.567072823553, -0.000636723335083016, 2.7475,283.093109130859
0.13849793, 228.574295578839, -0.000561710602935468, 2.76125,283.7890625
0.139164863333333, 228.581748093278, -0.000165793489436003, 2.77375,281.093292236328
0.139831528333333, 228.588377347977, -5.26091746036837E-05, 2.78625,284.23779296875
0.140498176666667, 228.595088195659, 0.000317746222837117, 2.8,284.23779296875
0.141164966666667, 228.602156044485, 0.000440273568413895, 2.81375,286.583282470703
0.141831766666667, 228.609470076428, 0.00047427086076176, 2.8275,287.842987060547
0.14249792, 228.617039505456, 0.000586828207108501, 2.84,282.561981201172
0.143164855, 228.625116831893, 0.000488098666194598, 2.85375,281.900604248047
0.143831476666667, 228.632981097037, 0.000306898767661142, 2.8675,281.900604248047
0.144498033333333, 228.641293315185, 6.74612943967297E-05, 2.88125,288.003509521484
0.14516594, 228.649523997349, -0.000330371222905761, 2.89375,282.172088623047
0.145831431666667, 228.658185289599, -0.000439636234613491, 2.9075,281.761871337891
0.14649801, 228.667141547382, -0.000371929635445695, 2.92,284.334930419922
0.14716503, 228.676256042288, -0.000129604807194913, 2.935,284.334930419922
0.147831366666667, 228.686055022614, 0.000112615026368895, 2.94875,285.352752685547
0.148498618333333, 228.69604246442, 0.000169429172649872, 2.96125,293.716064453125
0.149164941666667, 228.706794574722, -0.000181256212787204, 2.97375,285.501617431641
0.149831506666667, 228.717469875714, -0.000387389358948089, 2.98875,283.850067138672
0.150498615, 228.729152267633, -0.000982169483729349, 3.00125,283.850067138672
0.151164885, 228.740317407684, -0.00112911860262703, 3.015,283.140228271484
0.151831875, 228.751368050503, -0.00100361540652409, 3.0275,342.606231689453
0.152498088333333, 228.761927429457, -0.00084080308441703, 3.04125,293.040710449219
0.153164611666667, 228.772862147309, -0.000679192201969522, 3.05375,286.970764160156
0.153831365, 228.783394802521, -0.000381377660898381, 3.0675,295.214141845703
0.154498076666667, 228.794669998991, -0.000452999063460065, 3.08125,295.214141845703
0.155164673333333, 228.806042652579, -0.000562642056223686, 3.09375,297.946136474609
0.155831688333333, 228.817424357564, -0.00049330053920129, 3.1075,292.62158203125
0.156497968333333, 228.829114103408, -0.000763405472085728, 3.12,285.545104980469
0.157164688333333, 228.840066568895, -0.000925082351206979, 3.13375,285.545104980469
0.157831746666667, 228.851227872387, -0.00108097702075473, 3.14625,292.581848144531
0.158498006666667, 228.862264732137, -0.000877950218564343, 3.16,284.969757080078
0.159165295, 228.873440924806, -0.00100942161488804, 3.1725,289.661499023438
0.15983143, 228.884383081207, -0.000768481217116516, 3.18625,290.03662109375
0.16049802, 228.895431992185, -0.00040051669959959, 3.2,290.03662109375
