Time (min), Depth (µm), Load (N), Position (µm), Acoustic (aJ)
8.825E-06, 226.62638125178, -0.000476350573354313, 0,533.022338867188
0.000667403333333333, 226.625946659037, -0.000340251909460162, 0.00500000000000001,528.673400878906
0.00133323666666667, 226.625663373325, -0.000283353767370095, 0.0174999999999999,527.808410644531
0.00199989166666667, 226.625017059928, -3.14144220366105E-05, 0.03125,527.808410644531
0.00266647666666667, 226.624872847562, -0.000107973576562729, 0.0462499999999998,536.757019042969
0.00333326666666667, 226.62458506512, -3.03884735747494E-05, 0.0599999999999999,537.581115722656
0.0039999, 226.625454848505, -4.36508074225436E-05, 0.075,547.479309082031
0.00466649666666667, 226.627009050889, 4.74861148443133E-05, 0.0887499999999999,541.464660644531
0.00533324166666667, 226.629839990529, -3.35068169404749E-05, 0.10375,541.464660644531
0.00599982833333333, 226.634710771302, -0.00012294732440969, 0.1175,542.348754882813
0.00666677666666667, 226.64052665013, -0.000168854018581069, 0.13,542.0234375
0.007499895, 226.649630252213, -0.000158954515840494, 0.14625,529.565551757813
0.00816669833333333, 226.656672411565, -0.000152434343311811, 0.15875,533.916015625
0.0088336, 226.663712231775, 2.15824160004523E-05, 0.1725,535.064697265625
0.00949981333333333, 226.672023084436, 8.03659637668006E-06, 0.18625,535.064697265625
0.0101667133333333, 226.681229850678, -0.000124529744952684, 0.2025,534.469665527344
0.0109998483333333, 226.691754434681, 5.824207499301E-06, 0.21625,528.743469238281
0.01166672, 226.702560963125, 5.93490189900729E-05, 0.23,525.998413085938
0.0123332166666667, 226.714348475677, -0.000175102704771509, 0.24375,523.097534179688
0.0129998916666667, 226.725111414614, -0.000172183851372671, 0.25625,534.127624511719
0.01366671, 226.736760102297, -0.000174517734105459, 0.27,534.127624511719
0.01433325, 226.748391328464, -0.000499485411324679, 0.2825,535.366821289063
0.01499992, 226.760361482852, -0.0005895408879055, 0.29625,530.244812011719
0.0156665466666667, 226.771744145067, -0.000368221004547375, 0.31,532.371826171875
0.0163331333333333, 226.783225483089, -0.000250419921594172, 0.32375,526.923095703125
0.0170000416666667, 226.794156137229, -0.000104883731696903, 0.3375,526.923095703125
0.0176665866666667, 226.805384605733, 0.000161601883028613, 0.35,527.907104492188
0.0183331333333333, 226.816719091108, 0.000239132988695567, 0.36375,422.3427734375
0.0190000283333333, 226.828195824275, 0.000284570206422457, 0.3775,525.480163574219
0.0196668633333333, 226.839815673161, 0.000160667429934096, 0.39125,538.339721679688
0.02033323, 226.851331921787, 0.000245603663655181, 0.405,538.339721679688
0.02116663, 226.868116312809, 0.00041375721749742, 0.42125,535.058471679688
0.0218333416666667, 226.879770851533, -2.00239933339829E-06, 0.43375,533.678161621094
0.0224998966666667, 226.891100530884, -0.000367969017226373, 0.4475,542.427612304688
0.0231665633333333, 226.90243136442, -0.000347565542061931, 0.46,534.957214355469
0.0238333166666667, 226.913619466848, -0.000670872802711695, 0.47375,530.461486816406
0.0244999283333333, 226.924904795573, -0.000870929754073532, 0.4875,530.461486816406
0.0251670366666667, 226.936196251912, -0.000860151295462614, 0.50125,539.801879882813
0.0258332216666667, 226.947465760832, -0.00037197981578207, 0.5125,539.804138183594
0.02649993, 226.958829231361, -0.000425201642500876, 0.52625,534.173034667969
0.0271668083333333, 226.970025662455, -0.00028012442955602, 0.54,536.05908203125
0.027833765, 226.981140225753, -4.80380869822038E-05, 0.55375,536.05908203125
0.0284999133333333, 226.992177190562, 0.000334577694613728, 0.5675,656.066040039063
0.0291665533333333, 227.003394221736, -0.00015536219621456, 0.58,540.767822265625
0.0298333766666667, 227.014620485674, -6.88180432143721E-05, 0.5925,545.845275878906
0.0304999983333333, 227.026071441132, -0.000115542196334306, 0.60625,538.650329589844
0.03116695, 227.037231014085, -0.000461511818661138, 0.62,538.650329589844
0.031833475, 227.048243430248, -0.000625140099792347, 0.63375,534.053100585938
0.0324998816666667, 227.058468123271, -0.000646011551455622, 0.64625,536.784057617188
0.0331665933333333, 227.068915264089, -0.000912641158902597, 0.65875,542.45751953125
0.0338332666666667, 227.079182822653, -0.000835077054856263, 0.6725,536.489440917969
0.0345001733333333, 227.089565990797, -0.000909113336089766, 0.68625,536.489440917969
0.0351665916666667, 227.099858921917, -0.000822989162007506, 0.69875,533.712341308594
0.035833245, 227.110471842369, -0.000802188206812439, 0.7125,534.820373535156
0.03649991, 227.120713594547, -0.000826755472842964, 0.72625,541.608703613281
0.037166595, 227.131292234135, -0.000833479635111744, 0.73875,540.024169921875
0.03783355, 227.141308411093, -0.000799242354795596, 0.7525,540.024169921875
0.0384998983333333, 227.151669072484, -0.000871537223499359, 0.765,543.02587890625
0.039166915, 227.161654990298, -0.00068571455716866, 0.7775,535.432250976563
0.03983328, 227.171164461603, -0.000647820460541, 0.79125,540.485778808594
0.0404998566666667, 227.180514450423, -0.000587731978735105, 0.805,544.560302734375
0.0411669316666667, 227.19014074778, -0.000673605665357004, 0.8175,544.560302734375
0.0418331966666667, 227.199227826257, -0.000768685889560157, 0.8325,539.802917480469
0.0424999233333333, 227.208296134508, -0.000824460588059643, 0.84375,536.675903320313
0.04316684, 227.217593460592, -0.000550602843638123, 0.85625,538.783142089844
0.0438334783333333, 227.226818692471, -0.000617844466155893, 0.87,544.582641601563
0.0444999666666667, 227.235879037159, -0.000523890685349619, 0.88375,544.582641601563
0.04516662, 227.245267418666, -0.000554135166245418, 0.8975,677.348937988281
0.0458332366666667, 227.254873868403, -0.000442275284831209, 0.91,567.159423828125
0.0464998316666667, 227.264101807787, -0.000513217221510692, 0.92375,567.384887695313
0.0471665616666667, 227.273984239118, -0.000654306134723392, 0.9375,566.767395019531
0.047833325, 227.283501908378, -0.000704925592177463, 0.95125,566.767395019531
0.0485000583333333, 227.292832742079, -0.000384252199204903, 0.96375,571.463623046875
0.049166655, 227.30316994377, -0.000706992488323964, 0.9775,571.418212890625
0.04983337, 227.313345180816, -0.000653172191661988, 0.99,576.583923339844
0.0504999866666667, 227.323208469804, -0.000767193464460104, 1.00375,572.518798828125
0.051166575, 227.333559403104, -0.000553104717946585, 1.0175,572.518798828125
0.0518335933333333, 227.343936726934, -0.000931864193264118, 1.03125,565.050048828125
0.0524999966666667, 227.353580839408, -0.000697227978779682, 1.04375,567.386352539063
0.0531666766666667, 227.363197881904, -0.000394970660860944, 1.0575,562.544860839844
0.0538333883333333, 227.372751505661, 0.000167760573691095, 1.07125,569.854309082031
0.05449989, 227.382520303095, 0.000150305950413555, 1.08375,569.854309082031
0.05516665, 227.392196617331, 0.000203043301486346, 1.09875,569.962097167969
0.0558333283333333, 227.402079577933, 0.000325228664192911, 1.11125,572.810180664063
0.0564999433333333, 227.412325714698, 0.000159609983059767, 1.125,566.659851074219
0.0571667116666667, 227.422037526516, 3.45207661771429E-05, 1.1375,569.851379394531
0.0578332533333333, 227.431712223578, 0.0001635877833211, 1.15125,569.851379394531
0.0584998783333333, 227.440916473561, 0.000241243382756033, 1.165,572.381591796875
0.0591667133333333, 227.450682291726, 3.15764141272118E-05, 1.1775,572.264099121094
0.059833215, 227.459656662768, -4.09104449214226E-05, 1.19125,566.229919433594
0.060499935, 227.469383107504, 3.88990462754E-05, 1.205,682.526550292969
0.06116668, 227.479353122131, -0.000166859118699654, 1.21875,682.526550292969
0.061833225, 227.489863124096, -0.000127337603818157, 1.23125,576.597473144531
0.0624999516666667, 227.499340669882, 9.63791591402022E-05, 1.24375,570.831665039063
0.0631665516666667, 227.510008730248, -5.74936119931444E-05, 1.25875,575.371215820313
0.0638333766666667, 227.519912530875, -0.000184895712688166, 1.27125,574.070068359375
0.0644999133333333, 227.529926392289, -0.0001953636869051, 1.285,574.070068359375
0.065166645, 227.540172774455, -0.000534285163228286, 1.29875,572.623962402344
0.0658338833333333, 227.550380338267, -0.000698358921992279, 1.3125,576.622680664063
0.0664998316666667, 227.561278109711, -0.000722144727259929, 1.325,576.923034667969
0.067166545, 227.571838953599, -0.000805815024593376, 1.33875,575.860107421875
0.067833225, 227.582750009424, -0.000910043289304802, 1.3525,575.860107421875
0.068499845, 227.593144275674, -0.000428045499552026, 1.365,571.99072265625
0.06916665, 227.603642501512, -0.000214555222960424, 1.3775,566.396301269531
0.069833245, 227.61371619347, -4.44517670751373E-05, 1.39125,573.417724609375
0.070499835, 227.624171866152, 0.00020215384618769, 1.40375,565.404479980469
0.0711666283333333, 227.633885937812, 0.000182504833125611, 1.4175,565.404479980469
0.07183331, 227.643624409306, 0.000151129409102231, 1.43125,571.088623046875
0.0724999366666667, 227.653641368687, -8.43602624951838E-05, 1.44375,564.852905273438
0.0731671116666667, 227.662947373788, 0.000121399402425528, 1.4575,557.501708984375
0.0738332716666667, 227.672552056123, 4.9593509140989E-05, 1.47,567.991638183594
0.07449988, 227.681790582911, 0.000348472996750984, 1.48375,567.991638183594
0.0751665916666667, 227.691765552276, 0.000262683305853159, 1.4975,567.560424804688
0.075833175, 227.70077689429, 0.000223194789329787, 1.51,558.019226074219
0.0764999766666667, 227.710428170994, 6.99744854181285E-05, 1.52375,559.656555175781
0.0771670833333333, 227.719312772805, 0.000176374641069299, 1.5375,674.351501464844
0.0778333566666667, 227.728733498453, -0.000225680164129748, 1.55,674.351501464844
0.078499885, 227.736873387243, -0.000153598284733755, 1.5625,560.102233886719
0.0791665816666667, 227.745797310046, -0.000399255945624945, 1.57625,563.771667480469
0.0798332483333333, 227.75376391811, -0.00053695052938172, 1.59,564.129150390625
0.08049999, 227.762435466821, -0.00083531704273953, 1.6025,564.637329101563
0.0811667433333333, 227.77023686487, -0.000630985306105769, 1.61625,564.637329101563
0.081833235, 227.778597579202, -0.000726136026755875, 1.62875,567.422790527344
0.082499895, 227.786105448605, -0.000225035196487568, 1.6425,568.582275390625
0.0831667116666667, 227.793639306243, 0.000162167354741182, 1.655,567.898742675781
0.0838340233333333, 227.801118609096, 0.000546764536792629, 1.66875,569.094299316406
0.0844998916666667, 227.808872072606, 0.000480031388711326, 1.68125,569.094299316406
0.0851666633333333, 227.81596986402, 0.000602927715776322, 1.69375,571.85595703125
0.0858332833333333, 227.821268364811, 0.000637115498544655, 1.7075,570.193664550781
0.0864999716666667, 227.827044752971, 0.000518855438639039, 1.72125,590.755432128906
0.087166585, 227.833037503169, 0.000499498910920611, 1.735,589.0771484375
0.0878332983333333, 227.839039972479, 0.000486071585388459, 1.74875,589.0771484375
0.0885000016666667, 227.845689950317, 0.000259789951232939, 1.7625,594.802062988281
0.0891665216666667, 227.854551409803, -0.000426029600707712, 1.775,598.736511230469
0.0898333583333333, 227.862638536471, -0.00104122070031794, 1.78875,596.050659179688
0.0904999416666667, 227.870288701107, -0.00121822230974529, 1.80125,597.335327148438
0.09116671, 227.877820706484, -0.000946780943962501, 1.815,597.335327148438
0.0918332283333333, 227.885170430026, -0.000850325288826511, 1.82875,598.3359375
0.0924999233333333, 227.892763170747, -0.00054438565590266, 1.84125,597.720703125
0.09316658, 227.900512821843, -7.69401352182755E-05, 1.855,600.225402832031
0.0938335366666667, 227.908529100033, -0.000322144818812157, 1.86875,718.553039550781
0.0944999683333333, 227.915852018674, -0.000252962293776506, 1.8825,718.553039550781
0.0951665266666667, 227.923285683366, -0.000122737334844455, 1.895,590.130676269531
0.0958332466666667, 227.930750792682, 0.00015532619832644, 1.90875,592.77197265625
0.0964999683333333, 227.938643948212, 0.000131220909118388, 1.9225,593.038330078125
0.0971668383333333, 227.946136078599, 0.000738502905989974, 1.935,595.686096191406
0.0978334016666667, 227.954263652995, 0.000963902584405091, 1.94875,595.686096191406
0.0984999066666667, 227.962542746446, 0.00122364153797452, 1.9625,590.858703613281
0.0991667383333333, 227.970961618942, 0.00107915379546893, 1.975,590.350769042969
0.09983324, 227.979331068096, 0.00096899032885236, 1.98875,588.501647949219
0.100500085, 227.987806078694, 0.000772972674609881, 2.0025,589.149963378906
0.101166556666667, 227.996866540413, 0.000394117204109285, 2.01625,589.149963378906
0.101833195, 228.005175266567, 0.000140170959584177, 2.03,594.162719726563
0.10250015, 228.013757735955, 3.32818284925274E-05, 2.0425,593.660461425781
0.10316687, 228.021687796523, -0.000153218803774714, 2.055,592.473693847656
0.103833386666667, 228.029788635801, -0.000257751553203764, 2.06875,600.201782226563
0.104499953333333, 228.037694540805, -0.000149738978564042, 2.0825,600.201782226563
0.1051667, 228.045957604139, -0.000304400710103535, 2.0975,593.163208007813
0.10583318, 228.053561899366, -0.000293454259916944, 2.10875,594.614929199219
0.106500085, 228.061920370963, -3.18134002062934E-06, 2.1225,593.745544433594
0.107166971666667, 228.0697732009, 8.29323345695532E-05, 2.13625,595.299499511719
0.107833221666667, 228.077825444075, 0.000132396850041829, 2.15,595.299499511719
0.108499958333333, 228.085623431393, 0.000195897660481505, 2.16375,595.295959472656
0.10916655, 228.093572635702, 0.000468448970492738, 2.17625,597.586486816406
0.109833225, 228.100929049911, 0.000508772945014995, 2.18875,596.999267578125
0.110499955, 228.108390218511, 0.000498427964620382, 2.2025,719.516357421875
0.111166743333333, 228.115496238466, 0.000340565393872984, 2.21625,719.516357421875
0.111833363333333, 228.122919550833, 0.000445056145439996, 2.22875,598.073913574219
0.11249984, 228.130119066451, 0.00043780700954506, 2.2425,599.199829101563
0.113166536666667, 228.137785382115, 0.000482138782837969, 2.255,593.221069335938
0.113833523333333, 228.145512676832, 0.000296398612370704, 2.26875,592.123413085938
0.11450078, 228.153284194906, 0.000529108923560037, 2.2825,592.123413085938
0.115166683333333, 228.161286425528, 0.000492687752908918, 2.295,590.18505859375
0.115833288333333, 228.169394029407, 0.000307033078175146, 2.3075,595.97998046875
0.116499903333333, 228.177423302032, 0.000217741063179345, 2.32125,584.671813964844
0.117166528333333, 228.185517671086, 0.000297258069138787, 2.33375,593.859252929688
0.11783335, 228.193396736722, 8.06074512556592E-05, 2.3475,593.859252929688
0.118499906666667, 228.200936880836, 0.000206458629947679, 2.36125,596.079345703125
0.119167188333333, 228.208188351603, 0.000128855527845606, 2.37375,585.150756835938
0.11983336, 228.215266821483, -1.70511434005217E-05, 2.3875,589.371032714844
0.120499901666667, 228.222457494318, -0.000199891959507446, 2.40125,601.538146972656
0.121166683333333, 228.228907160449, -0.000111202914249279, 2.41375,601.538146972656
0.121833355, 228.235827556847, -4.5630707889893E-05, 2.42875,592.276123046875
0.122499928333333, 228.242521386709, 0.000295045680303916, 2.44,594.838500976563
0.123166606666667, 228.249588217045, 0.000564243158818112, 2.45375,595.830017089844
0.123833211666667, 228.256218884886, 0.000642090748619171, 2.46625,598.464416503906
0.124500118333333, 228.263768814652, 0.000624430635634623, 2.48,598.464416503906
0.12516672, 228.271219950086, 0.000258425019707163, 2.49375,596.941101074219
0.125833308333333, 228.279277662287, -3.82480787443204E-05, 2.50625,600.507751464844
0.126499926666667, 228.286568270239, -9.64421557100896E-05, 2.51875,597.471801757813
0.12716683, 228.294797568764, -0.000145420695569439, 2.5325,715.194152832031
0.127833335, 228.304324271097, -0.00042235478545214, 2.545,592.244201660156
0.128499965, 228.313731374759, -1.68561532068441E-05, 2.55875,592.244201660156
0.12916664, 228.32273769023, -0.000149549988174248, 2.5725,591.819458007813
0.129833195, 228.331957425869, -0.000426635570464185, 2.58625,586.942138671875
0.130499963333333, 228.340733528314, -0.00022209684424152, 2.59875,591.166931152344
0.131166603333333, 228.348123749347, -0.000371853822089688, 2.6125,591.166931152344
0.131833253333333, 228.355516172833, -0.000661909252883768, 2.62625,588.558532714844
0.132499936666667, 228.363222604595, -0.000541097821121875, 2.63875,595.02783203125
0.133166845, 228.370923906251, -0.000527402009015269, 2.6525,584.809204101563
0.133833361666667, 228.378198984486, -0.000503886190140206, 2.66625,584.091430664063
0.134499893333333, 228.385519010193, -0.00044227978456191, 2.68,584.091430664063
0.13516686, 228.39255249393, -0.000287910538366069, 2.69375,582.800842285156
0.135833483333333, 228.399651844567, -0.00027399723722099, 2.7075,583.221374511719
0.13649993, 228.406533919259, -0.000143455794197344, 2.72,590.101989746094
0.137166501666667, 228.413994594494, -0.000619362389928293, 2.73375,584.242858886719
0.137833245, 228.421391357326, -0.000423955205024211, 2.7475,584.242858886719
0.13850001, 228.428659169832, -0.000664499622732022, 2.76125,576.284729003906
0.13916655, 228.436517640221, -0.000726851490845008, 2.77375,587.349487304688
0.13983325, 228.444038520586, -0.000897859401294237, 2.78625,583.51513671875
0.140499881666667, 228.451775182753, -0.000520230869146793, 2.8,585.021423339844
0.141166578333333, 228.459592730589, -0.000667136490236778, 2.81375,585.021423339844
0.141833251666667, 228.467064744352, -0.000438744462127063, 2.8275,585.0966796875
0.142499878333333, 228.47424064891, -0.000421213342726211, 2.84,583.435546875
0.14316657, 228.482364303341, -0.000535212116679532, 2.85375,703.385192871094
0.143833576666667, 228.489813932267, -0.000474067687923711, 2.8675,583.357421875
0.144499943333333, 228.497185493264, -0.000207874558520592, 2.88,587.476440429688
0.145166871666667, 228.505142132946, -0.0005838801721449, 2.8925,587.476440429688
0.145833508333333, 228.512610167148, -0.000783608639956153, 2.9075,578.038818359375
0.146499873333333, 228.519831056351, -0.000547826483057595, 2.92125,584.694519042969
0.147166573333333, 228.527521577357, -0.000801576237443368, 2.93375,589.622741699219
0.147833291666667, 228.536024278245, -0.00145308651276028, 2.9475,589.622741699219
0.14850007, 228.544092793703, -0.00138711682637026, 2.96,583.067932128906
0.149167403333333, 228.552955474193, -0.00130008069810205, 2.97375,591.548278808594
0.149834041666667, 228.562110300448, -0.00160671929592534, 2.9875,592.121032714844
0.150499941666667, 228.571201158737, -0.00141636835705606, 3,590.773071289063
0.151166565, 228.58049829032, -0.000924634556343916, 3.01375,590.773071289063
0.151833175, 228.590534775543, -0.000820517286038331, 3.02875,593.876403808594
0.152499953333333, 228.600777483981, -0.000901040741463645, 3.04,589.603820800781
0.153166803333333, 228.610986362071, -0.000443733211563716, 3.05375,596.367126464844
0.153833305, 228.62131259426, -0.000218774510986919, 3.0675,596.136901855469
0.1545, 228.631681647595, -0.000100200966796006, 3.08125,596.136901855469
0.155166621666667, 228.642431408024, 0.000226977599354935, 3.095,600.798461914063
0.155833185, 228.652825118144, 0.000246592114155739, 3.1075,600.988037109375
0.156500138333333, 228.664116382273, -5.04529656115144E-05, 3.12125,598.646911621094
0.157166636666667, 228.674682197677, -0.000337600042498833, 3.13375,598.177062988281
0.157833196666667, 228.685527678543, -0.00057496911973485, 3.14625,598.177062988281
0.15849993, 228.695602738712, -0.000609033908680861, 3.16,595.142822265625
0.159166505, 228.705891847597, -0.000367151558214057, 3.1725,594.181701660156
0.159834488333333, 228.715648833454, -0.000184706722192101, 3.18625,708.786437988281
0.160500008333333, 228.726280407311, -0.000492884242771949, 3.19875,597.806701660156
