Time (min), Depth (µm), Load (N), Position (µm), Acoustic (aJ)
7.73833333333333E-06, 227.323794714962, -0.00026827447528967, 0,142.936370849609
0.000666196666666667, 227.323438946627, 0.000162826370994432, 0.00375000000000028,142.06965637207
0.001331455, 227.323729413865, 0.000437546572096604, 0.0150000000000003,142.037094116211
0.00199746833333333, 227.324335601435, 0.000687966493775793, 0.0300000000000005,152.093200683594
0.00266437666666667, 227.325364838908, 0.000688231980416424, 0.0449999999999999,150.668304443359
0.00333131333333333, 227.326700105532, 0.000640162394894227, 0.0587499999999998,150.668304443359
0.00399779333333333, 227.329126021887, 0.000177294644232478, 0.07375,167.355316162109
0.00466443333333333, 227.33298456574, -0.000191121350593591, 0.0887500000000003,201.867523193359
0.00533116666666667, 227.337670467016, -0.00113317303233876, 0.1025,168.726684570313
0.00599744166666667, 227.342507018667, -0.00129816924475953, 0.115000000000001,179.525848388672
0.00666433, 227.347577293692, -0.00153163251814808, 0.12875,176.857833862305
0.00733116333333333, 227.353150184403, -0.00149209150424934, 0.14125,176.857833862305
0.007998995, 227.357694777711, -0.00166477183066325, 0.155,180.499465942383
0.00866426833333333, 227.361438007602, -0.00120319401524336, 0.168750000000001,177.427520751953
0.00933082666666667, 227.365176483994, -0.00122921470823318, 0.18125,180.486419677734
0.00999772666666667, 227.369223925331, -0.00124283852392592, 0.195,180.486419677734
0.0106641383333333, 227.373509112118, -0.00121018066428271, 0.20875,183.102798461914
0.01133112, 227.379302429055, -0.00116351200842946, 0.2225,176.642807006836
0.01199811, 227.386018983145, -0.00130306049904621, 0.235,181.789810180664
0.012665295, 227.394155543639, -0.00089995124680039, 0.24875,180.881423950195
0.013331935, 227.40374104358, -0.000838649325918464, 0.2625,180.881423950195
0.0139980716666667, 227.413486449317, -0.000814296549141367, 0.275,178.939483642578
0.0146644133333333, 227.423047129147, -0.000673588616769603, 0.28875,179.957244873047
0.0153316716666667, 227.432755928492, -0.000362520741354579, 0.3025,179.62336730957
0.0159980483333333, 227.442999183301, -0.000791928172668591, 0.315,181.822204589844
0.016664455, 227.452898755565, -0.000601059759773915, 0.33,181.822204589844
0.017331965, 227.462852125267, -0.000652411180421792, 0.3425,177.955673217773
0.01799848, 227.473468329819, -0.000819187803428046, 0.355,174.07502746582
0.01866473, 227.484088429691, -0.00110305754496289, 0.370000000000001,176.017456054688
0.0193314033333333, 227.494376821574, -0.000773108617929038, 0.38375,176.856353759766
0.0199975733333333, 227.505198369551, -0.00101142264770914, 0.39625,176.856353759766
0.0206641966666667, 227.516086047353, -0.000796370949537442, 0.41,179.880447387695
0.0213318833333333, 227.526606846742, -0.000827323394794087, 0.423750000000001,214.46305847168
0.0220004316666667, 227.537355616777, -0.000817026412001632, 0.43625,179.554626464844
0.0226646416666667, 227.548045733879, -0.00118892073213522, 0.44875,177.891082763672
0.0233312616666667, 227.558767288103, -0.00113688384588628, 0.4625,177.891082763672
0.0239977583333333, 227.569938699336, -0.00148645628722485, 0.47625,180.264190673828
0.02466426, 227.580988867296, -0.00140297498038747, 0.49,179.793197631836
0.0253308083333333, 227.592101784089, -0.00136136407042966, 0.50375,183.321197509766
0.02599785, 227.603374130416, -0.00121800727115791, 0.515,177.79411315918
0.026664505, 227.614799577638, -0.00114288354454076, 0.52875,177.79411315918
0.0273308066666667, 227.625989349949, -0.0010463033956793, 0.5425,179.88591003418
0.0279974766666667, 227.63753089663, -0.00095067869883275, 0.555,173.755020141602
0.0286642283333333, 227.649304969126, -0.000957947333744929, 0.56875,182.941497802734
0.0293307683333333, 227.661008538771, -0.00103995721444516, 0.5825,172.045532226563
0.029997845, 227.672546845223, -0.00106456947816527, 0.595,172.045532226563
0.0306644683333333, 227.684070200785, -0.00153704124641765, 0.60875,175.237045288086
0.0313309166666667, 227.695126978606, -0.00168469832976119, 0.6225,169.004943847656
0.0319975866666667, 227.706738804321, -0.001959412531187, 0.635,178.380767822266
0.0326642333333333, 227.718215078893, -0.0020827888341248, 0.64875,175.060821533203
0.033331005, 227.729241644118, -0.00218446722690435, 0.66125,175.060821533203
0.0339975133333333, 227.740093524926, -0.00173504480088885, 0.675,172.769897460938
0.0346643766666667, 227.751220688416, -0.00178043252108918, 0.68875,176.31608581543
0.035331825, 227.761978451082, -0.00178598074243452, 0.70125,178.200180053711
0.0359983366666667, 227.772902463559, -0.00159567630122174, 0.71375,177.36213684082
0.036664185, 227.78387803531, -0.00167278442816446, 0.7275,177.36213684082
0.037330775, 227.795207697708, -0.00183825461676043, 0.74,173.917617797852
0.03799749, 227.806287931696, -0.00192323134848291, 0.75375,215.475250244141
0.0386650683333333, 227.817736564587, -0.0020230213360987, 0.7675,176.339004516602
0.0393323866666667, 227.828338220565, -0.00199284435186481, 0.78,180.800384521484
0.0399975, 227.839382138836, -0.00181457530612541, 0.79375,180.800384521484
0.0406641366666667, 227.850185232719, -0.00150475386818705, 0.80625,177.09375
0.0413308333333333, 227.861596556487, -0.00121702182067619, 0.82,190.009124755859
0.0419983316666667, 227.872328975947, -0.000900161236280608, 0.83375,182.34587097168
0.0426641866666667, 227.884371319762, -0.00111332152943973, 0.84625,175.896423339844
0.0433311666666667, 227.895547381219, -0.00150082256564598, 0.85875,175.896423339844
0.0439974416666667, 227.907249182333, -0.00178616823302743, 0.8725,178.739852905273
0.0446641666666667, 227.918531713354, -0.00197597919898402, 0.88625,181.627227783203
0.0453314266666667, 227.929672760087, -0.00187522925953761, 0.89875,181.889739990234
0.0459982483333333, 227.940898096012, -0.00181276189724557, 0.9125,177.935989379883
0.0466641, 227.952244320461, -0.00155769370907554, 0.925,177.935989379883
0.0473308433333333, 227.963188447038, -0.00133747327051754, 0.93875,175.612182617188
0.0479979666666667, 227.974505598383, -0.00119671584064047, 0.9525,172.303192138672
0.04866437, 227.986780774697, -0.00140861169731511, 0.97,171.735092163086
0.0493308616666667, 227.999332790904, -0.00151925213995567, 0.98,174.314727783203
0.04999744, 228.011742384155, -0.00153390790380789, 0.9925,174.314727783203
0.0506642916666667, 228.023407970744, -0.00135218453159393, 1.00625,171.204055786133
0.051330795, 228.03539731406, -0.00140653580155843, 1.02,173.177856445313
0.051997845, 228.046118236765, -0.00120101012488713, 1.03375,180.069595336914
0.052664995, 228.056239512121, -0.00092210363407408, 1.0475,173.19450378418
0.053330865, 228.066970626512, -0.000881658165632651, 1.06,173.19450378418
0.0539974316666667, 228.07817285328, -0.00121200757248218, 1.07375,175.431777954102
0.0546642183333333, 228.088678141249, -0.00109080016061406, 1.0875,210.330749511719
0.0553308716666667, 228.100010750128, -0.00115436996757629, 1.10125,174.534851074219
0.05599751, 228.110785326955, -0.000907051890115642, 1.11375,172.980911254883
0.05666433, 228.121626330139, -0.000617971410311204, 1.1275,172.980911254883
0.0573311516666667, 228.132797851009, -0.00051967834750492, 1.14,174.987411499023
0.0579974333333333, 228.143782012758, -0.000578863874671276, 1.15375,175.643264770508
0.0586642166666667, 228.154420563112, -0.00043766546693463, 1.1675,171.836517333984
0.0593311066666667, 228.164652072048, -0.000677692410617047, 1.18,175.943832397461
0.059997525, 228.175467756492, -0.000891655163501946, 1.19375,175.943832397461
0.0606641583333333, 228.185679006429, -0.000795688483806435, 1.2075,175.733856201172
0.06133118, 228.196290818426, -0.000874149542752188, 1.22125,175.405715942383
0.0619978583333333, 228.206765157643, -0.00112363951115258, 1.235,176.120941162109
0.0626641716666667, 228.217342565768, -0.00124534639795325, 1.2475,174.748336791992
0.0633313266666667, 228.226830821042, -0.00110074316122609, 1.26,174.748336791992
0.06399743, 228.237089780436, -0.00119887273229368, 1.275,173.925674438477
0.06466421, 228.246890359392, -0.00136627182403355, 1.2875,183.922225952148
0.0653310766666667, 228.256624347305, -0.00132744027446257, 1.3025,176.021636962891
0.0659978283333333, 228.266659463959, -0.00124526540199297, 1.31375,176.443374633789
0.0666644016666667, 228.276913360207, -0.00143563583990074, 1.3275,176.443374633789
0.0673307983333333, 228.2868682317, -0.00150440888548929, 1.34125,173.590423583984
0.0679974466666667, 228.296682672027, -0.00136600633728665, 1.355,177.001876831055
0.068664305, 228.306612925785, -0.00115230757118174, 1.36875,179.920654296875
0.0693309933333333, 228.316524678269, -0.00130697980214955, 1.38125,179.865615844727
0.0699990933333333, 228.326452838583, -0.00142638730445745, 1.39375,179.865615844727
0.0706641266666667, 228.336003800046, -0.00147632129631046, 1.4075,211.608657836914
0.0713318983333333, 228.345206280376, -0.00136256551015297, 1.42125,173.581878662109
0.0719976566666667, 228.35424769002, -0.00159548281095246, 1.43375,183.593505859375
0.0726644833333333, 228.363412294363, -0.00162716571956353, 1.44625,179.659912109375
0.0733321066666667, 228.372461036414, -0.00145313246106157, 1.46,179.659912109375
0.0739979266666667, 228.381736995267, -0.00113373550403249, 1.47375,173.413879394531
0.0746644616666667, 228.391616217425, -0.00124545139261897, 1.48625,179.531311035156
0.07533078, 228.401899897902, -0.00123373848093479, 1.5,177.991592407227
0.0759979666666667, 228.412194873807, -0.00107063967320295, 1.5125,182.093505859375
0.0766646783333333, 228.422015271354, -0.00107353902756329, 1.52625,182.093505859375
0.0773308216666667, 228.432108035991, -0.00144624930669978, 1.54,183.60188293457
0.0779975083333333, 228.442159498499, -0.00191809110661777, 1.5525,187.443801879883
0.0786642033333333, 228.451596304131, -0.00208354779589411, 1.56625,182.507583618164
0.079330795, 228.460657403495, -0.00196097395266083, 1.57875,183.465835571289
0.0799975766666667, 228.470486690328, -0.00184706067437724, 1.5925,183.465835571289
0.0806641466666667, 228.479377481875, -0.00151191600833908, 1.60625,180.429931640625
0.0813311916666667, 228.488461406301, -0.0008496242745837, 1.61875,183.159362792969
0.0819974433333333, 228.497677293272, -0.000702246177242927, 1.6325,183.604934692383
0.0826642266666667, 228.506889600533, -0.000777893377519324, 1.645,183.643463134766
0.0833313783333333, 228.515204545671, -0.000808866821760122, 1.65875,183.643463134766
0.083997465, 228.52365275674, -0.000828473836896402, 1.67125,188.963821411133
0.0846641, 228.53179443427, -0.000959372261970532, 1.685,185.897537231445
0.0853310133333333, 228.539988047189, -0.00089495649749609, 1.69875,180.042694091797
0.0859978366666667, 228.548283679886, -0.00100748684520357, 1.71,183.634552001953
0.08666435, 228.556783675201, -0.00129008765045947, 1.725,183.634552001953
0.0873314566666667, 228.565384119431, -0.00155682975230045, 1.73875,198.753402709961
0.0879974983333333, 228.573783113693, -0.00184450180283518, 1.75125,170.789764404297
0.0886646133333333, 228.581836728811, -0.00167016855941007, 1.765,170.194473266602
0.0893307766666667, 228.589140072886, -0.00158438036850041, 1.7775,172.178741455078
0.0899975116666667, 228.596881618194, -0.00134240052290488, 1.79125,172.178741455078
0.0906642883333333, 228.60416131813, -0.00139147205809849, 1.805,173.065933227539
0.0913308516666667, 228.611929710556, -0.00160720922185, 1.81875,174.234252929688
0.09199745, 228.618907244759, -0.00181388834059994, 1.83125,167.54736328125
0.09266416, 228.626312953632, -0.00186838810314412, 1.845,169.106597900391
0.0933308333333333, 228.633121413015, -0.00208608266856069, 1.85875,169.106597900391
0.0939976333333333, 228.639931110976, -0.00190448528999661, 1.87125,174.221740722656
0.0946641316666667, 228.646043926848, -0.00179677420024696, 1.885,170.750137329102
0.09533121, 228.652739946779, -0.00175633323153623, 1.89875,172.85302734375
0.0959974516666667, 228.658666746701, -0.00162794268044692, 1.9125,175.554550170898
0.0966643083333333, 228.664908203336, -0.00160525931980695, 1.925,175.554550170898
0.0973312666666667, 228.671312689249, -0.0017108330169419, 1.93875,163.98225402832
0.0979984833333333, 228.677556674062, -0.00136134607131557, 1.9525,172.329727172852
0.098664255, 228.683534088224, -0.00114297054004988, 1.96625,172.332748413086
0.09933143, 228.690018688596, -0.00130033513581038, 1.97875,164.36701965332
0.099997485, 228.695982136879, -0.00122457394119432, 1.9925,164.36701965332
0.100664521666667, 228.702611687808, -0.00109243207857735, 2.005,170.811431884766
0.101330776666667, 228.709019228043, -0.0015061667971237, 2.02,170.698379516602
0.101997861666667, 228.71525564046, -0.00160597028412288, 2.0325,170.334732055664
0.102664825, 228.721303396157, -0.0015718274991079, 2.045,171.802062988281
0.10333079, 228.727634532374, -0.00152828768604869, 2.05875,202.719268798828
0.103997933333333, 228.73356171717, -0.00167955058827403, 2.07125,202.719268798828
0.104664206666667, 228.739874585649, -0.00158083154683095, 2.085,171.272094726563
0.105331205, 228.746442516329, -0.0016786086356, 2.09875,169.051727294922
0.105997435, 228.753203022456, -0.00155387490084346, 2.1125,171.754257202148
0.106664178333333, 228.759769464059, -0.00128821724457983, 2.125,171.754257202148
0.10733194, 228.766403982483, -0.0012503141483845, 2.13875,169.532867431641
0.107997676666667, 228.773108885473, -0.00109846177578366, 2.1525,166.960433959961
0.108664278333333, 228.779831388749, -0.00103538694393827, 2.165,168.827590942383
0.10933118, 228.787407872209, -0.000950738695723864, 2.17875,176.705001831055
0.109997608333333, 228.795197767423, -0.00113391099514516, 2.19125,176.705001831055
0.110664308333333, 228.803287465356, -0.000884337031020697, 2.205,161.091186523438
0.111331583333333, 228.811595987716, -0.000915506965400831, 2.21875,163.718078613281
0.111997938333333, 228.820230887236, -0.000983242063132289, 2.23125,168.809875488281
0.112664155, 228.828583630225, -0.00112673535560975, 2.245,161.864410400391
0.113330756666667, 228.837249638047, -0.00123021815776523, 2.25875,161.864410400391
0.113997891666667, 228.845296136257, -0.00133375795704803, 2.27125,160.502639770508
0.114664518333333, 228.853379512092, -0.0009613491627166, 2.285,157.611999511719
0.115330811666667, 228.861774296795, -0.000958035829135943, 2.2975,166.40673828125
0.115997648333333, 228.869826049099, -0.00108545742891197, 2.31,164.786346435547
0.116664203333333, 228.877406088301, -0.000826907915564352, 2.32375,164.786346435547
0.117331281666667, 228.885086786352, -0.000668982348013271, 2.3375,166.796493530273
0.117998385, 228.892545118418, -0.000634131598552428, 2.35,158.614196777344
0.118665355, 228.899977975299, -0.000583642634563949, 2.36375,158.964981079102
0.11933171, 228.907197595883, -0.000321658293759011, 2.37625,160.836685180664
0.119998726666667, 228.915129436955, -0.000534539600979128, 2.39,193.897186279297
0.12066459, 228.922998211553, -0.000756645444852085, 2.40375,193.897186279297
0.121330863333333, 228.930891768733, -0.00104029919723036, 2.41625,156.772598266602
0.121997563333333, 228.938730646044, -0.00106422149563996, 2.43,165.758666992188
0.122664103333333, 228.946790608652, -0.00121091412742217, 2.4425,165.246795654297
0.12333118, 228.954798142394, -0.00121696932323706, 2.455,165.246795654297
0.123997823333333, 228.96294128095, -0.00164247095074612, 2.46875,169.0556640625
0.124664133333333, 228.970979277, -0.00164619376375262, 2.4825,169.110961914063
0.125330775, 228.978714558354, -0.00163097852797047, 2.495,165.751403808594
0.12599753, 228.986192689361, -0.00170015955308172, 2.5075,169.451187133789
0.126664225, 228.993528929137, -0.00195275586545261, 2.52125,169.451187133789
0.127331798333333, 229.00095550918, -0.00178544376932812, 2.535,159.988952636719
0.127997731666667, 229.008533992728, -0.00189989402063309, 2.54875,161.863540649414
0.128664576666667, 229.01598946847, -0.00183595073243069, 2.5625,157.646194458008
0.129331211666667, 229.024176777454, -0.00170363337863728, 2.575,158.390686035156
0.129997868333333, 229.032081382138, -0.00150396940755412, 2.5875,158.390686035156
0.13066409, 229.040633549689, -0.00113808828541589, 2.60125,164.733627319336
0.131331708333333, 229.049038132635, -0.00113196859280915, 2.615,162.534042358398
0.131998511666667, 229.057756767301, -0.000872510125145632, 2.62875,168.233520507813
0.132665496666667, 229.066127284038, -0.000748470855494068, 2.64125,172.803161621094
0.133331975, 229.075279335324, -0.000726811943391557, 2.655,172.803161621094
0.133998671666667, 229.083799263677, -0.000595484539789317, 2.66875,153.665802001953
0.134665393333333, 229.092849127004, -0.000596744476458086, 2.68125,157.24267578125
0.135331458333333, 229.102198831658, -0.00108019419328826, 2.695,158.264724731445
0.135998328333333, 229.111209035701, -0.00118215157207058, 2.70875,158.390060424805
0.136665321666667, 229.119418645166, -0.00115270655107301, 2.72125,159.779830932617
0.137330765, 229.128299411189, -0.00119414046992998, 2.735,159.779830932617
0.137998055, 229.136940732298, -0.000989396254021561, 2.74875,157.770477294922
0.138665363333333, 229.144996950395, -0.000847606875942507, 2.7625,156.722137451172
0.139330778333333, 229.153951465905, -0.00103423500182653, 2.775,161.933090209961
0.139998421666667, 229.162940402779, -0.000912289627003236, 2.79,161.933090209961
0.140664345, 229.171812281896, -0.00113065765858314, 2.8025,159.062393188477
0.141331241666667, 229.180268020083, -0.00109109714564591, 2.81625,153.882232666016
0.14199745, 229.189018930871, -0.000899789254837313, 2.83,156.334121704102
0.142664458333333, 229.197452899907, -0.00067804039301484, 2.8425,158.882934570313
0.143331241666667, 229.205920381761, -0.000788578840774731, 2.85625,158.882934570313
0.143997448333333, 229.214367005541, -0.000526140022811844, 2.87,155.703247070313
0.144664203333333, 229.223202732094, -0.00078152469511598, 2.88375,157.705581665039
0.14533085, 229.232257000268, -0.00118832076218263, 2.89625,158.74739074707
0.14599747, 229.241097875936, -0.00103828629827736, 2.90875,157.785675048828
0.146664318333333, 229.250474407523, -0.00105155313189836, 2.9225,157.785675048828
0.147330818333333, 229.259101698729, -0.00124758578538487, 2.93625,151.967849731445
0.147997965, 229.267961104452, -0.0010681227996292, 2.95,158.115753173828
0.148664706666667, 229.276404305965, -0.000656714464236124, 2.96375,155.620239257813
0.149330905, 229.285391601688, -0.000924932491881198, 2.97625,153.132827758789
0.149997863333333, 229.293529221295, -0.000719828294052235, 2.99,153.132827758789
0.150664155, 229.302503753083, -0.00057791442224771, 3.00375,157.955184936523
0.151330835, 229.311555163933, -0.000451829255370036, 3.01625,162.88850402832
0.151997598333333, 229.320657722119, -0.000695859497986134, 3.03,157.118392944336
0.152664358333333, 229.329491107545, -0.000804896521184568, 3.04375,193.350692749023
0.153330823333333, 229.338692427898, -0.000804250053681747, 3.05625,165.021682739258
0.153998221666667, 229.348095177386, -0.000997023370866118, 3.06875,165.021682739258
0.15466454, 229.357431516853, -0.00115380299600308, 3.08375,160.266357421875
0.155331531666667, 229.367365300763, -0.00106296605861687, 3.09625,158.878036499023
0.155997506666667, 229.377333316211, -0.000920525713261787, 3.10875,157.778106689453
0.156664305, 229.387796893663, -0.00120085413266417, 3.1225,157.778106689453
0.15733086, 229.397643948779, -0.00109783180736426, 3.135,159.114135742188
0.15799765, 229.407615421808, -0.00108051967692628, 3.14875,162.337265014648
0.158664501666667, 229.417554142186, -0.00132570636149108, 3.1625,161.768325805664
0.159330835, 229.42698247251, -0.00123421245713124, 3.175,156.666229248047
