Time (min), Depth (µm), Load (N), Position (µm), Acoustic (aJ)
7.68E-06, 227.445756267003, 0.00055226915204054, 0,159.566833496094
0.000666311666666667, 227.445802040338, 0.000709311263990577, 0.0049999999999998,152.581665039063
0.001333365, 227.445605414464, 0.000365288543900493, 0.0200000000000001,155.366973876953
0.00216618666666667, 227.446451380814, 0.000451636206740092, 0.0337499999999999,154.18766784668
0.00283279833333333, 227.447668994829, -0.000201147504628977, 0.0487500000000002,154.18766784668
0.00349945, 227.449349537381, -0.000360052522985418, 0.0637500000000004,178.729232788086
0.004166095, 227.452313433472, -0.000742738801049557, 0.0787499999999998,194.091918945313
0.00483311333333333, 227.456899594045, -0.000712900799794565, 0.0924999999999997,212.097137451172
0.0054996, 227.462124520641, -0.00106889291868429, 0.10625,212.097137451172
0.00616615, 227.468590517358, -0.0010890129080515, 0.12,215.655242919922
0.00683293833333333, 227.476045989144, -0.00139017678088898, 0.13375,170.696243286133
0.00749967666666667, 227.483109905134, -0.00124850889670784, 0.14625,209.695648193359
0.00816627166666667, 227.489917629023, -0.00114257071785789, 0.15875,223.921463012695
0.008832855, 227.495863136008, -0.00120643151021811, 0.1725,218.018188476563
0.00949968333333333, 227.500889372994, -0.00090176681318581, 0.18625,218.018188476563
0.0101660816666667, 227.505320569786, -0.00047910904283418, 0.200000000000001,222.036849975586
0.01083276, 227.510015786688, -0.000454105298738544, 0.2125,220.593505859375
0.0114994516666667, 227.515336740013, -0.00060971948240163, 0.22625,223.821670532227
0.0121661916666667, 227.521592227227, -0.000552360863456, 0.24,223.821670532227
0.0128328483333333, 227.529091040312, -0.000564444256531547, 0.25375,268.395111083984
0.0134994816666667, 227.537479947163, -0.000522956340438566, 0.26625,226.431716918945
0.01416634, 227.547102302491, -0.000679414981689466, 0.28,227.594955444336
0.014832725, 227.557307286041, -0.000889027953061024, 0.2925,230.424270629883
0.01549981, 227.567357551735, -0.000593751284505277, 0.30625,230.424270629883
0.0161663316666667, 227.577365830224, -0.000532890341461671, 0.32,224.435195922852
0.016833095, 227.587836853277, -0.0003704155023666, 0.33375,178.101608276367
0.0174980916666667, 227.597906351936, 2.48526721161185E-06, 0.34625,224.031143188477
0.018166095, 227.60801466711, 0.000321171259967282, 0.36,225.725463867188
0.018832795, 227.61921330471, 7.00118754510169E-05, 0.37375,221.562683105469
0.0194993766666667, 227.630208544849, -6.83471749226717E-05, 0.3875,221.562683105469
0.02016617, 227.64048716049, -0.000507456118913521, 0.4,223.260971069336
0.0208327533333333, 227.651394848004, -0.000988153473996132, 0.41375,221.693130493164
0.0214996216666667, 227.661971345041, -0.00137591549713357, 0.42625,223.88493347168
0.0221661783333333, 227.676951589401, -0.00107281972132463, 0.44125,223.88493347168
0.022999475, 227.687683046451, -0.00074211633218841, 0.45625,226.266784667969
0.023666135, 227.698906552194, -0.000679668468892362, 0.47,226.266784667969
0.0243328666666667, 227.709519165929, -0.000561799889298505, 0.48375,227.202285766602
0.02499948, 227.720503197585, -0.000364693289747974, 0.49625,221.077682495117
0.0256661866666667, 227.731918822907, -0.000843478240897619, 0.51,221.645523071289
0.0263328716666667, 227.743408059091, -0.00135286765484235, 0.52375,219.081008911133
0.0269994816666667, 227.753568003303, -0.00137649746797206, 0.53625,219.081008911133
0.0276661733333333, 227.764716442274, -0.00158889129967611, 0.55,212.401412963867
0.02833275, 227.775419500533, -0.00163685139067436, 0.56375,217.222732543945
0.02899948, 227.786819485375, -0.00163872929632479, 0.57625,260.051513671875
0.029666165, 227.798027624736, -0.00148033125248042, 0.59,260.051513671875
0.0303328983333333, 227.809550368968, -0.0013554310260726, 0.6025,210.08903503418
0.0309994116666667, 227.820870429219, -0.00104519260902261, 0.615,168.625259399414
0.0316664133333333, 227.831953638929, -0.000943806701544206, 0.62875,206.196441650391
0.032332765, 227.842925020941, -0.000653527781971532, 0.6425,210.731063842773
0.0329994883333333, 227.853979108564, -0.000362215414293727, 0.655,216.507308959961
0.0336662166666667, 227.865386054215, -0.000755186675755095, 0.66875,216.507308959961
0.03433283, 227.876637618514, -0.000865203149737635, 0.68125,207.175918579102
0.0349994033333333, 227.88788729341, -0.000716266630665574, 0.695,211.948776245117
0.0356661866666667, 227.89876327075, -0.000571244914944893, 0.7075,211.410354614258
0.0363327466666667, 227.90957474408, -0.000503052340185425, 0.72375,206.995300292969
0.0371663466666667, 227.920743949891, -0.000259128592223213, 0.7375,213.8154296875
0.03783277, 227.931457923328, -0.000128912632858836, 0.75125,213.8154296875
0.0384994416666667, 227.942841171892, 0.000133062708399682, 0.765,218.921203613281
0.0391662133333333, 227.954118575053, 7.33132095301774E-05, 0.7775,212.063949584961
0.0398345033333333, 227.965990303405, -0.000243233890643874, 0.79,220.072479248047
0.0404995016666667, 227.977655598328, -0.000528717551070422, 0.80375,224.314834594727
0.04116625, 227.989353170655, -0.000897502527363455, 0.8175,224.314834594727
0.0418328633333333, 228.001236519528, -0.00118341366637246, 0.83,223.027481079102
0.0424995466666667, 228.012950900356, -0.00133784440946883, 0.84375,222.62272644043
0.0431662983333333, 228.024284186018, -0.00132786241084357, 0.8575,223.299835205078
0.0438328566666667, 228.035643075552, -0.00108001785981111, 0.87,226.413452148438
0.0444995366666667, 228.047355270904, -0.000842062312048403, 0.88375,226.413452148438
0.0451661283333333, 228.058755850369, -0.0010054776038931, 0.89625,221.154907226563
0.0458327816666667, 228.070270437478, -0.00105098981788266, 0.91,255.533889770508
0.0464994366666667, 228.08164779294, -0.00117175325204239, 0.9225,218.823425292969
0.0471663366666667, 228.092852852699, -0.00109283321610172, 0.93625,212.759140014648
0.0478329616666667, 228.103898441125, -0.00119977184467742, 0.95,212.759140014648
0.048499585, 228.114670881923, -0.00124573553593361, 0.96625,213.863876342773
0.0491663633333333, 228.128230435074, -0.00112952587304857, 0.97875,208.2763671875
0.04983288, 228.142365644711, -0.00121630251435252, 0.99,212.174667358398
0.0504982083333333, 228.155847733703, -0.00127081577623758, 1.00375,212.281539916992
0.05116616, 228.169226083372, -0.00114401064551882, 1.0175,212.281539916992
0.0518329233333333, 228.182230345567, -0.000990679347201316, 1.03125,207.827758789063
0.052499605, 228.192828469263, -0.000856782572671213, 1.04375,214.924713134766
0.053166235, 228.20302495029, -0.00060064193834031, 1.0575,210.823318481445
0.0538329533333333, 228.214102053077, -0.000883125749471499, 1.07,215.470520019531
0.0544996983333333, 228.224521403751, -0.000873218747108907, 1.085,215.470520019531
0.0551663333333333, 228.235621569442, -0.000827763530289179, 1.09875,215.47412109375
0.05583296, 228.246453631879, -0.00082040190002149, 1.11125,211.948348999023
0.0564997316666667, 228.25732391612, -0.000880823365129925, 1.125,217.846084594727
0.0571662816666667, 228.26779519992, -0.000896364084550095, 1.13875,211.151168823242
0.0578328766666667, 228.278968616815, -0.00127957683616479, 1.15125,211.151168823242
0.05849963, 228.289832018981, -0.00166738535693748, 1.165,208.439727783203
0.0591662733333333, 228.300919512511, -0.0017132680523184, 1.1775,207.173751831055
0.0598329933333333, 228.311589854019, -0.00162094018986282, 1.19125,211.085464477539
0.0604999016666667, 228.322169604827, -0.00130790441333316, 1.205,202.39143371582
0.0611662033333333, 228.332807248647, -0.000757231073078055, 1.21875,202.39143371582
0.0618329833333333, 228.343130081035, -0.000334834289636354, 1.23125,219.581283569336
0.0624995883333333, 228.353545546409, -0.000864028708759852, 1.245,252.455535888672
0.06316631, 228.363778961849, -0.000987462008803722, 1.25875,210.884628295898
0.063841225, 228.373526190501, -0.00121547305605125, 1.27125,210.909423828125
0.0645067616666667, 228.383846137645, -0.00134849987423617, 1.285,210.909423828125
0.065174855, 228.393661616622, -0.00152517899983181, 1.29875,208.932022094727
0.0658412683333333, 228.403376718787, -0.00106381117384962, 1.3125,217.960403442383
0.0665079633333333, 228.413412126181, -0.000920217386415891, 1.325,218.045547485352
0.067175925, 228.424231936504, -0.0010017877892022, 1.33875,218.955490112305
0.0678416283333333, 228.433853642454, -0.00101222876477988, 1.3525,218.955490112305
0.0685079316666667, 228.4443915545, -0.000907172541670332, 1.36625,210.485870361328
0.0691760233333333, 228.454341379696, -0.00111808444780891, 1.37875,220.445709228516
0.069841435, 228.464394546105, -0.00123236670753821, 1.39125,212.732894897461
0.0705077516666667, 228.474180824808, -0.00103217476298008, 1.405,217.859024047852
0.071174565, 228.484408809605, -0.00119255870705318, 1.41875,217.859024047852
0.0718411916666667, 228.493808375451, -0.00166857929701752, 1.4325,217.021286010742
0.0725078633333333, 228.503283538211, -0.00184289304140414, 1.44375,219.461624145508
0.0731748166666667, 228.512264116481, -0.00211419791404498, 1.45875,227.209915161133
0.0738414166666667, 228.521371667939, -0.0023729334180186, 1.47,223.731094360352
0.0745082433333333, 228.529302227177, -0.00234468083715541, 1.485,223.731094360352
0.0751735033333333, 228.537815333921, -0.00172098666465783, 1.4975,217.849273681641
0.07584034, 228.54574927784, -0.00149425955293329, 1.51,214.584655761719
0.0765071816666667, 228.553725266293, -0.00132486706132142, 1.52375,212.083343505859
0.0771735616666667, 228.561361289629, -0.00147864683709926, 1.53625,211.507125854492
0.0778397416666667, 228.569402220584, -0.0015712311866703, 1.55,211.507125854492
0.078507955, 228.57677265089, -0.00187364149692068, 1.56375,254.735946655273
0.079173035, 228.585020002997, -0.00205740326675999, 1.57625,212.060028076172
0.079841535, 228.592355654494, -0.00207315697546667, 1.59,214.031890869141
0.080507775, 228.599817060322, -0.00160013623481895, 1.60375,211.111114501953
0.0811744616666667, 228.607228414396, -0.00156434953233918, 1.61625,211.111114501953
0.0818402566666667, 228.615409229195, -0.0016734705513042, 1.63,217.982803344727
0.0825081233333333, 228.623163708514, -0.00132429708992066, 1.64375,213.133483886719
0.08317333, 228.631490855619, -0.00171372552932516, 1.65625,215.208557128906
0.0838397566666667, 228.639678067418, -0.00204886719549326, 1.67,216.594314575195
0.0845078216666667, 228.647489613277, -0.00189046015210246, 1.6825,216.594314575195
0.085173235, 228.655280216954, -0.00185659035335013, 1.69625,215.067977905273
0.0858396716666667, 228.662607698198, -0.00181677185341553, 1.70875,217.616271972656
0.086507885, 228.670039357996, -0.00139806188479466, 1.7225,200.714050292969
0.08717453, 228.676609221683, -0.00104532760228267, 1.735,202.769226074219
0.0878397916666667, 228.684391975674, -0.00128800191300443, 1.74875,202.769226074219
0.08850787, 228.69117521049, -0.00123377963649611, 1.76375,193.809906005859
0.0891730016666667, 228.698600470721, -0.00143595448143416, 1.775,195.627426147461
0.0898403966666667, 228.705048257029, -0.00140796288741713, 1.78875,197.161468505859
0.0905064416666667, 228.71256931812, -0.00162745886236083, 1.8025,199.226425170898
0.09117367, 228.719424030635, -0.00156135718260208, 1.81625,199.226425170898
0.0918403483333333, 228.72619296546, -0.00134619748987334, 1.83,203.94873046875
0.092506475, 228.733083976763, -0.0015387578177712, 1.8425,196.584564208984
0.0931750033333333, 228.740501649427, -0.00151635494303715, 1.855,198.726333618164
0.0938402683333333, 228.747007153793, -0.00132976881503641, 1.86875,198.442977905273
0.0945069433333333, 228.75326411276, -0.00140330712128302, 1.88375,198.442977905273
0.09517456, 228.759844188823, -0.00175105415432527, 1.895,235.396713256836
0.0958408216666667, 228.76601774945, -0.00173491796483199, 1.90875,199.858703613281
0.096506365, 228.772201088341, -0.00180821628311031, 1.9225,200.459991455078
0.0971744833333333, 228.778374526996, -0.00192752779023515, 1.93625,195.783111572266
0.0978411516666667, 228.7850728738, -0.00177935473281187, 1.95,195.783111572266
0.0985078083333333, 228.791537521646, -0.00144868734188258, 1.96375,196.088195800781
0.0991731, 228.797841365102, -0.00128278517499472, 1.97625,195.334716796875
0.0998417416666667, 228.804430053439, -0.000943046239722976, 1.99,195.305221557617
0.100507855, 228.811503389073, -0.000969999885840404, 2.00375,202.845611572266
0.101172938333333, 228.818775830687, -0.000856152604251812, 2.01625,202.845611572266
0.101841171666667, 228.826294649254, -0.000881894311302629, 2.03,197.670059204102
0.10250805, 228.834163627878, -0.00110783696241549, 2.0425,198.431427001953
0.103172953333333, 228.842236659982, -0.00154109320042839, 2.05625,195.950668334961
0.10383966, 228.850426882602, -0.00170596641902685, 2.07,200.833969116211
0.104507868333333, 228.857896037754, -0.0019577752709585, 2.08375,200.833969116211
0.105174673333333, 228.866339967565, -0.00221120254157632, 2.0975,193.508850097656
0.10584111, 228.873953145282, -0.00197660232532007, 2.10875,195.583419799805
0.10650801, 228.881849095573, -0.00181253606619935, 2.1225,196.774978637695
0.107174563333333, 228.888965042371, -0.00151959328039764, 2.13625,189.180313110352
0.107841463333333, 228.896457249816, -0.00125258269204597, 2.15,189.180313110352
0.108507913333333, 228.903532235641, -0.000920194887528588, 2.16375,186.934234619141
0.109174793333333, 228.911289295965, -0.000783536751725752, 2.17625,187.50260925293
0.109839678333333, 228.918813485211, -0.000456509677960794, 2.18875,184.55778503418
0.110507821666667, 228.926849215555, -0.00036475028693906, 2.20375,190.517166137695
0.111173, 228.934884848241, -0.000350811487079126, 2.21625,190.517166137695
0.11184034, 228.942458861112, -0.000328033631223007, 2.22875,220.145751953125
0.11250782, 228.950427521797, -0.000515926193570267, 2.2425,187.911270141602
0.113174873333333, 228.957675191839, -0.000865521133774888, 2.255,179.366806030273
0.113841471666667, 228.965928391484, -0.00109849393179855, 2.26875,180.60758972168
0.114506381666667, 228.973646677654, -0.00146651244661525, 2.2825,180.60758972168
0.115173045, 228.98162746575, -0.00153880431547021, 2.295,177.764999389648
0.11584316, 228.989098561776, -0.00139250166411786, 2.30875,178.873657226563
0.116507961666667, 228.996923108725, -0.00122161974733976, 2.32125,179.756576538086
0.117174566666667, 229.004118908339, -0.00129752043492532, 2.33375,179.026336669922
0.117841061666667, 229.011493911487, -0.000879560428633603, 2.3475,179.026336669922
0.118507758333333, 229.018846246143, -0.00131885686321737, 2.36125,174.535217285156
0.11917455, 229.026223540831, -0.00158708689030018, 2.37375,177.389877319336
0.119840121666667, 229.033804940262, -0.00190678683214374, 2.3875,180.460723876953
0.120507813333333, 229.041003691137, -0.00165073619329828, 2.4,176.807067871094
0.121174845, 229.048523901837, -0.00173306405805702, 2.41375,176.807067871094
0.121841285, 229.05629690424, -0.00151146368885674, 2.4275,178.179565429688
0.122507866666667, 229.063972442194, -0.00138790439509923, 2.44,183.699935913086
0.123174743333333, 229.070928135913, -0.000740277424721237, 2.45375,186.994995117188
0.123841135, 229.078804696925, -0.000860923864777518, 2.46625,181.03483581543
0.124507813333333, 229.086525574399, -0.000926256083211129, 2.48,181.03483581543
0.125172993333333, 229.094014919953, -0.000816845578751267, 2.49375,182.842620849609
0.125839766666667, 229.101188534735, -0.000744699202605935, 2.505,187.472702026367
0.12650681, 229.108245330559, -0.00096989939103291, 2.51875,186.585510253906
0.127174576666667, 229.114646888408, -0.000788045525353363, 2.5325,190.220565795898
0.127842748333333, 229.121076368429, -0.000674415732845751, 2.54625,190.220565795898
0.128507838333333, 229.12755894211, -0.000864736673248222, 2.55875,223.181091308594
0.129174776666667, 229.134368549958, -0.00100909092246067, 2.5725,184.035202026367
0.12984115, 229.141790938965, -0.00120761045107538, 2.58625,185.617492675781
0.13050797, 229.149238059526, -0.00166610592129397, 2.6,191.20166015625
0.131174541666667, 229.156849093858, -0.00145793887732346, 2.6125,191.20166015625
0.13184148, 229.164097764251, -0.00131013480136714, 2.625,194.341613769531
0.132506748333333, 229.171081570161, -0.000989671397896057, 2.63875,181.758346557617
0.133173023333333, 229.179066983014, -0.0012804332932116, 2.6525,181.197357177734
0.13384122, 229.186864231143, -0.000836827575115886, 2.66625,189.217880249023
0.13450794, 229.194547611177, -0.00107831694536778, 2.68,189.217880249023
0.135174841666667, 229.202984281545, -0.000992599250862568, 2.69375,178.511199951172
0.13584118, 229.21165807373, -0.00125602801912289, 2.70625,183.574264526367
0.136508166666667, 229.219756995196, -0.000988678447813575, 2.71875,173.887115478516
0.137174563333333, 229.227854836607, -0.000922417775983061, 2.7325,178.782653808594
0.137840763333333, 229.236324908522, -0.000883053753206413, 2.74625,178.782653808594
0.138508095, 229.24455688348, -0.0012025842035499, 2.76,176.095428466797
0.139174855, 229.253128757329, -0.00138597999177104, 2.7725,180.980804443359
0.139841476666667, 229.261874815841, -0.00191004616846713, 2.78625,178.798294067383
0.140507918333333, 229.270414118031, -0.00221687225692585, 2.8,178.756164550781
0.14117467, 229.278307915194, -0.00214213701077165, 2.81375,178.756164550781
0.141839916666667, 229.286699329795, -0.00193533189835058, 2.82625,173.49836730957
0.142506393333333, 229.29488862422, -0.00180476195676327, 2.84,174.982772827148
0.143172981666667, 229.303353041889, -0.00121978833938833, 2.85375,178.888549804688
0.14383987, 229.311707637749, -0.00127727595181139, 2.8675,178.191009521484
0.144507893333333, 229.320579633781, -0.00134980930858028, 2.88,178.191009521484
0.14517361, 229.328800059277, -0.00133647497838239, 2.89375,212.498489379883
0.14584118, 229.337791787264, -0.00149392057003941, 2.90625,186.051467895508
0.146507825, 229.346175724803, -0.00150971027693177, 2.92,180.163345336914
0.14717322, 229.355744071147, -0.00143255115258059, 2.93375,177.290954589844
0.147839831666667, 229.364697263649, -0.00138046176897753, 2.9475,177.290954589844
0.14850783, 229.3744385458, -0.00129091476685443, 2.96,182.177764892578
0.149173055, 229.383789287283, -0.00113986485395811, 2.97375,178.659713745117
0.149841283333333, 229.393362325591, -0.00114001334649529, 2.9875,181.883255004883
0.150509155, 229.402241970121, -0.000925459623310491, 3,183.381195068359
0.151174413333333, 229.412061592197, -0.00105313321040752, 3.015,183.381195068359
0.151840258333333, 229.421360767161, -0.0012368874806248, 3.0275,181.829406738281
0.152507825, 229.4303703664, -0.00104166028667037, 3.04,181.713195800781
0.153174856666667, 229.439750661743, -0.000794322710171226, 3.05375,189.235244750977
0.153841475, 229.449758061598, -0.00119322917351648, 3.06625,184.673934936523
0.154507888333333, 229.45914204173, -0.00103979438041516, 3.08,184.673934936523
0.155173168333333, 229.469014738203, -0.00123496307731787, 3.09375,185.167358398438
0.155841151666667, 229.479051539037, -0.00125672848403176, 3.10625,183.118545532227
0.156506726666667, 229.488734870288, -0.00150795236531861, 3.12,188.724731445313
0.157174868333333, 229.498377124113, -0.00141755490588883, 3.13375,191.747894287109
0.15784128, 229.508959283584, -0.00171301906501624, 3.14625,191.747894287109
0.158508276666667, 229.518978391315, -0.00143059975063439, 3.16,183.917327880859
0.159174935, 229.529042027962, -0.00146744689983729, 3.1725,186.434143066406
0.159840518333333, 229.539469171144, -0.00170187762461472, 3.18625,185.859481811523
0.160507948333333, 229.54943724348, -0.00165843230683542, 3.2,228.41242980957
0.161173316666667, 229.559261547088, -0.00159108268973936, 3.2125,228.41242980957
