Time (min), Depth (µm), Load (N), Position (µm), Acoustic (aJ)
8.11E-06, 227.329023417558, -0.000126682361828778, 0,169.65380859375
0.000666453333333333, 227.329042338382, -0.000366505315792352, 0.0024999999999999,143.383483886719
0.00133268333333333, 227.32892686676, -0.000395729847817633, 0.0125000000000004,134.629623413086
0.00199953333333333, 227.329835885403, -0.000689788577587901, 0.0249999999999998,134.629623413086
0.00266635833333333, 227.330858712823, -0.000965672720197034, 0.0400000000000001,143.44303894043
0.003332825, 227.331710891532, -0.00094719214843638, 0.0550000000000004,159.584243774414
0.003999475, 227.33232231094, -0.00112050244322718, 0.0699999999999998,162.938171386719
0.00466614666666667, 227.334116006575, -0.0013560371125992, 0.085,177.206176757813
0.00533315666666667, 227.336252370497, -0.00123169635810008, 0.0987499999999999,177.206176757813
0.005999395, 227.339585979811, -0.00122303729305354, 0.11125,176.659729003906
0.00666618666666667, 227.343808048148, -0.000959410534729474, 0.125,176.701858520508
0.00733343833333333, 227.349952392629, -0.000758276637476065, 0.13875,177.705444335938
0.007999555, 227.355132207462, -0.000502639977829673, 0.15125,176.789978027344
0.00866608666666667, 227.360369509556, -0.000675045818056534, 0.165,176.789978027344
0.009332935, 227.365253055138, -0.000551189539224675, 0.1775,181.517837524414
0.00999941, 227.370680526338, -0.000620957034905121, 0.19125,179.213882446289
0.0106662716666667, 227.375985613915, -0.000682699933625367, 0.205,186.927337646484
0.011332945, 227.382671212143, -0.00087459879473386, 0.21875,175.587692260742
0.01199939, 227.390322372037, -0.000646088272575034, 0.23125,175.587692260742
0.01266606, 227.398831616281, -0.000513685423005625, 0.245,175.033218383789
0.0133328366666667, 227.407944131731, -0.000429103171486218, 0.25875,178.232025146484
0.0140002283333333, 227.417850294475, -0.000610663051940218, 0.2725,174.583099365234
0.0146661466666667, 227.428286725016, -0.000562296481343668, 0.28625,175.920761108398
0.0153329533333333, 227.439088268677, -0.000719533583487383, 0.29875,175.920761108398
0.0159997866666667, 227.450092166237, -0.000807003189971905, 0.3125,185.050857543945
0.0166661733333333, 227.461481329299, -0.00108551970037635, 0.32625,209.350860595703
0.0173345633333333, 227.472812336094, -0.00116805155489643, 0.338750000000001,181.32502746582
0.0180000566666667, 227.483922986805, -0.00146357421109682, 0.3525,176.302627563477
0.0186661766666667, 227.495335017933, -0.00185135123345704, 0.365,176.302627563477
0.0193328966666667, 227.506737526762, -0.00200142169556925, 0.37875,180.021209716797
0.0199995383333333, 227.517736764095, -0.00218320506478059, 0.392500000000001,173.908843994141
0.0206663216666667, 227.529201154279, -0.00238578488943504, 0.405,181.090423583984
0.021332935, 227.540186434199, -0.00260029061503894, 0.41875,173.551513671875
0.0219994683333333, 227.551071148619, -0.00250138858279741, 0.4325,173.551513671875
0.0226660666666667, 227.562465901242, -0.00261154754964076, 0.445,172.316207885742
0.023332825, 227.573588048961, -0.00228681686051977, 0.45875,171.861297607422
0.0239994766666667, 227.584203680168, -0.00209338207654604, 0.4725,174.66081237793
0.0246662233333333, 227.595543734213, -0.00183888985941062, 0.48625,177.170333862305
0.0253326933333333, 227.606654025362, -0.00203071222437454, 0.49875,177.170333862305
0.0259994633333333, 227.617879769203, -0.00196619746488949, 0.5125,170.904251098633
0.0266661183333333, 227.629366583842, -0.0023485987572745, 0.525,169.890670776367
0.02733272, 227.640717096591, -0.00206463152065344, 0.53875,169.757186889648
0.0279996733333333, 227.651940470576, -0.00207167516688388, 0.5525,175.554748535156
0.02866619, 227.663238857963, -0.0019634346036711, 0.565,175.554748535156
0.0293328616666667, 227.674300730631, -0.00187730143004242, 0.57875,175.755310058594
0.0299995216666667, 227.685697338484, -0.00203731939249736, 0.5925,171.561462402344
0.0306660583333333, 227.696961494747, -0.00235291854025727, 0.605,172.572341918945
0.0313328616666667, 227.708149358595, -0.00236417847466539, 0.61875,170.251953125
0.0319996433333333, 227.719336223993, -0.00206900830076353, 0.63125,170.251953125
0.032666105, 227.730255397958, -0.00193450105693754, 0.645,169.521118164063
0.0333327333333333, 227.741182655925, -0.00174157174757272, 0.6575,207.189041137695
0.033999915, 227.752544521392, -0.00171037481457458, 0.67,167.977264404297
0.0346662316666667, 227.763615196753, -0.00145935792289788, 0.68375,170.862197875977
0.0353327383333333, 227.774466282421, -0.00139261577529141, 0.6975,170.862197875977
0.0359994283333333, 227.785423647804, -0.00146668655478619, 0.71,170.160232543945
0.0366662633333333, 227.796234646569, -0.00149037036517316, 0.72375,170.949081420898
0.0373327333333333, 227.806691601707, -0.00130717856671337, 0.7375,171.43391418457
0.0379995433333333, 227.817301508084, -0.0013212733587325, 0.75,173.836090087891
0.0386662366666667, 227.82839274329, -0.00149829146730703, 0.76375,173.836090087891
0.0393331583333333, 227.839045240447, -0.00140659357322834, 0.77625,178.004974365234
0.0399997416666667, 227.850228478431, -0.00128275679339247, 0.79,179.490798950195
0.040666075, 227.861357588238, -0.00173097927965157, 0.8025,172.023803710938
0.0413327633333333, 227.872448657422, -0.00160863492487324, 0.81625,175.989395141602
0.04199963, 227.883586271563, -0.00170136326722951, 0.82875,175.989395141602
0.0426662083333333, 227.894731787464, -0.0017906042847531, 0.8425,183.547012329102
0.0433327533333333, 227.905631632689, -0.00140674206574426, 0.855,175.766906738281
0.043999575, 227.916878718064, -0.000999304030926742, 0.86875,174.266357421875
0.044666045, 227.928445286098, -0.00119389975657988, 0.8825,173.475341796875
0.045332845, 227.939368188631, -0.00108566669301037, 0.895,173.475341796875
0.0459993783333333, 227.950662969006, -0.00101428077864376, 0.90875,182.672943115234
0.0466661066666667, 227.961288277702, -0.00110805156860908, 0.9225,172.480712890625
0.047332875, 227.972447126625, -0.000914477291644588, 0.935,169.679565429688
0.0479997333333333, 227.98288362872, -0.00075619024224856, 0.94875,173.73356628418
0.0486660783333333, 227.99438143348, -0.000590276075922958, 0.9625,173.73356628418
0.0493329333333333, 228.005895462387, -0.000369931143596983, 0.9775,170.659652709961
0.04999956, 228.018836737398, -0.000569685110144346, 0.98875,203.154205322266
0.0506661166666667, 228.030389309356, -0.000673842878408818, 1.0025,173.210784912109
0.0513326616666667, 228.042609261191, -0.000849830538727028, 1.01625,178.535934448242
0.05199949, 228.054230288121, -0.000858087624012241, 1.02875,178.535934448242
0.0526661483333333, 228.06581956858, -0.00106395528348999, 1.04375,173.542190551758
0.0533327333333333, 228.076024151126, -0.000884081318362805, 1.0575,169.145751953125
0.0539994783333333, 228.08742219553, -0.00115498721104862, 1.07,173.61164855957
0.0546660816666667, 228.098369137095, -0.00116064192698408, 1.08375,170.619552612305
0.0553331183333333, 228.109012162437, -0.00106581968979954, 1.09625,170.619552612305
0.05599953, 228.120113983948, -0.00124783254750834, 1.11,172.456466674805
0.0566660466666667, 228.131234069191, -0.00134491367124801, 1.12375,170.849426269531
0.05733317, 228.14219327154, -0.00132073188587414, 1.1375,169.602752685547
0.0579995666666667, 228.153012118841, -0.00129404672628866, 1.15,170.636276245117
0.058666485, 228.163945274895, -0.00130002242615269, 1.16375,170.636276245117
0.0593326716666667, 228.174821389244, -0.00112446674410513, 1.17625,180.427444458008
0.059999415, 228.185372558545, -0.000842363913814872, 1.19,170.74543762207
0.0606661283333333, 228.196300656452, -0.000641645495684928, 1.205,172.27751159668
0.0613327116666667, 228.207319637395, -0.000312032551781164, 1.2175,168.659057617188
0.0619993983333333, 228.218253371593, -0.000385452363978657, 1.23,168.659057617188
0.0626662033333333, 228.228752931977, -0.000270561134856619, 1.24375,178.346389770508
0.0633328933333333, 228.240113692567, -0.000762711914637884, 1.2575,169.534439086914
0.0639995866666667, 228.250742888853, -0.000840186023220023, 1.27,170.804382324219
0.0646660716666667, 228.261811439566, -0.00116493171158505, 1.285,170.999954223633
0.0653327566666667, 228.272083806854, -0.00108052045144762, 1.29625,170.999954223633
0.0659996333333333, 228.282620736069, -0.00128378874148818, 1.31,177.742553710938
0.0666661366666667, 228.292449071262, -0.00111973298179577, 1.325,204.938110351563
0.0673328366666667, 228.302291149738, -0.00126023392459989, 1.33625,179.921249389648
0.067999385, 228.311957130735, -0.00124908498461886, 1.35,174.214889526367
0.0686661033333333, 228.322499313309, -0.00158730749608511, 1.36375,174.214889526367
0.0693329333333333, 228.332775165934, -0.00135797651515017, 1.37625,171.848236083984
0.0699996016666667, 228.34333415456, -0.00140190330879044, 1.39125,178.289749145508
0.0706661083333333, 228.353259432009, -0.00137062387986511, 1.40375,177.654922485352
0.0713327433333333, 228.363194785831, -0.00133312726326807, 1.41625,181.311248779297
0.0719996466666667, 228.372797136755, -0.0010287235531457, 1.43,181.311248779297
0.072666125, 228.382278091074, -0.00128304627878104, 1.44375,175.069931030273
0.0733327533333333, 228.391326379033, -0.000948231596154108, 1.45625,173.590225219727
0.0739994866666667, 228.400510859048, -0.000523193445370679, 1.47,180.804809570313
0.0746661483333333, 228.409917928112, -0.000525993804699152, 1.48375,183.523254394531
0.0753326916666667, 228.419616849744, -0.00081660720745626, 1.49625,183.523254394531
0.0759995033333333, 228.428645553066, -0.000991606417443944, 1.50875,171.179580688477
0.07666615, 228.438471653745, -0.00135841149322712, 1.5225,177.060653686523
0.07733276, 228.44804957832, -0.001590911815, 1.535,181.023208618164
0.07799947, 228.457155991686, -0.00147055186054725, 1.54875,181.809814453125
0.0786660683333333, 228.46664333347, -0.00118494370637397, 1.56125,181.809814453125
0.0793330883333333, 228.476153992963, -0.00094314385170684, 1.575,180.144546508789
0.0799994383333333, 228.485397988054, -0.00100594419725891, 1.58875,178.38069152832
0.0806660083333333, 228.494757595553, -0.00114511620678669, 1.6025,175.224227905273
0.08133274, 228.50439852205, -0.00117753857825608, 1.615,171.01008605957
0.0819994083333333, 228.513192741148, -0.00122354876719003, 1.6275,171.01008605957
0.0826660733333333, 228.522513411156, -0.00133108886555771, 1.64125,207.990325927734
0.0833329116666667, 228.530649915184, -0.0010125618648738, 1.655,178.664672851563
0.0839998366666667, 228.539038860238, -0.000872036923257981, 1.66875,177.982833862305
0.08466606, 228.546971180217, -0.000830312019088032, 1.68125,183.015777587891
0.085332725, 228.555418863816, -0.000998339579259144, 1.69375,183.015777587891
0.085999535, 228.563170957482, -0.000821442964603782, 1.7075,174.470504760742
0.0866663183333333, 228.571353496523, -0.000925831721268864, 1.72125,169.315795898438
0.0873328933333333, 228.579993951134, -0.00108544320416802, 1.735,172.51969909668
0.0879995266666667, 228.588280757108, -0.00119481771039969, 1.74875,171.968124389648
0.0886661116666667, 228.596305865469, -0.001331123363904, 1.76125,171.968124389648
0.0893335766666667, 228.604592005995, -0.00139891545876278, 1.77375,166.97737121582
0.0899995383333333, 228.61255341071, -0.00145504563938835, 1.7875,170
0.0906660983333333, 228.620324130308, -0.00137551063435732, 1.80125,171.367721557617
0.0913329566666667, 228.627718051053, -0.00101038697414901, 1.815,167.477508544922
0.0919994383333333, 228.634957676127, -0.000707978163801783, 1.8275,167.477508544922
0.0926662433333333, 228.642268539523, -0.000735993756630513, 1.84125,167.899612426758
0.0933327433333333, 228.649616715981, -0.00075987705696312, 1.855,174.899215698242
0.09399941, 228.656585202851, -0.00102705563684796, 1.8675,168.319747924805
0.0946660783333333, 228.663627978335, -0.00124600863905141, 1.88125,165.133316040039
0.0953327533333333, 228.670132626947, -0.00134982892430389, 1.895,165.133316040039
0.0959996233333333, 228.676364000285, -0.00152850744944788, 1.9075,170.808456420898
0.0966662933333333, 228.682619782565, -0.00150079334150922, 1.92125,167.901306152344
0.0973326766666667, 228.688863965291, -0.00128605962739603, 1.935,169.572265625
0.0979995683333333, 228.695015541216, -0.00115598766079562, 1.94875,173.194839477539
0.0986660466666667, 228.701283650762, -0.00107510722331982, 1.96125,173.194839477539
0.0993328716666667, 228.707688961748, -0.000833083879916605, 1.975,202.16064453125
0.09999939, 228.713983102191, -0.000875086270207427, 1.98875,174.623748779297
0.100666125, 228.720570484738, -0.0010270661364038, 2.00125,175.159729003906
0.101332676666667, 228.72673281066, -0.0012281085382261, 2.015,170.043579101563
0.101999568333333, 228.732903329688, -0.00127771254666788, 2.02875,170.043579101563
0.102666235, 228.738726028285, -0.00135325025248409, 2.04125,168.081481933594
0.103332803333333, 228.745258102679, -0.00114341529223709, 2.055,170.219528198242
0.103999456666667, 228.750545286897, -0.000991801407658876, 2.06875,165.579376220703
0.104666063333333, 228.757044396935, -0.000843091377171707, 2.08125,172.863220214844
0.105332763333333, 228.762864784703, -0.000803697355906994, 2.095,172.863220214844
0.105999528333333, 228.769337350066, -0.000707045210674178, 2.10875,168.560363769531
0.106666058333333, 228.7753402146, -0.00091245839297272, 2.1225,165.954284667969
0.107332785, 228.782660685564, -0.000875248262000471, 2.135,167.372573852539
0.107999705, 228.789344513, -0.00104250936065274, 2.14875,172.246276855469
0.108666063333333, 228.796992386096, -0.00102789709458696, 2.16125,172.246276855469
0.109332838333333, 228.80434409347, -0.00115284981828513, 2.175,171.301300048828
0.109999445, 228.811864005556, -0.000933937314040569, 2.1875,163.218444824219
0.110666031666667, 228.819033732678, -0.000503137952646538, 2.20125,161.474014282227
0.111332776666667, 228.82681057125, -0.00016671535084677, 2.215,162.71989440918
0.111999533333333, 228.834930051546, -6.58259184096033E-05, 2.2275,162.71989440918
0.11266605, 228.842878473206, 0.000216014424982555, 2.24125,157.023529052734
0.113332731666667, 228.851316799989, 8.11876972161616E-05, 2.25375,156.693130493164
0.1139999, 228.860031744358, -0.000334568919744596, 2.2675,163.040374755859
0.1146661, 228.868355087128, -0.000653913379398313, 2.28125,157.019439697266
0.115332701666667, 228.876158484165, -0.000475842323722659, 2.29375,157.019439697266
0.115999406666667, 228.88394579615, -0.000596353770540139, 2.30625,188.812927246094
0.116666226666667, 228.891049147395, -0.000112823057813438, 2.32,159.238616943359
0.117332795, 228.898093968955, 0.000151759152504278, 2.33375,163.528762817383
0.118000023333333, 228.905323095633, 0.00056142457544321, 2.34625,160.222351074219
0.118666186666667, 228.912729974637, 0.000366668357815158, 2.36,160.222351074219
0.119333535, 228.920293536645, 0.000618324217393918, 2.37375,160.362945556641
0.119999471666667, 228.927767739957, 0.000344581967215211, 2.38625,157.532958984375
0.120666121666667, 228.935630023297, 1.08722057883645E-06, 2.4,156.219375610352
0.121332665, 228.942963793842, -0.000522058002384872, 2.4125,161.192245483398
0.121999463333333, 228.95070885786, -0.000679659586201086, 2.425,161.192245483398
0.122666036666667, 228.958434068839, -0.00102654116271388, 2.43875,159.78564453125
0.123333625, 228.965881904609, -0.00107227386561197, 2.45125,163.833587646484
0.123999891666667, 228.972941217071, -0.00112960548589709, 2.465,161.347793579102
0.124666198333333, 228.980259139027, -0.000920394494371874, 2.47875,164.138442993164
0.125332893333333, 228.987318621662, -0.000857078174697561, 2.49125,164.138442993164
0.125999411666667, 228.994465875963, -0.000781153488300291, 2.50375,167.241989135742
0.126666251666667, 229.001552709611, -0.000816872694181907, 2.51875,162.59033203125
0.127332875, 229.008575168766, -0.000485765825338703, 2.53125,156.347213745117
0.12799941, 229.015569198812, -0.000415044377589006, 2.545,162.328536987305
0.128666165, 229.022379802039, -0.000185795892496253, 2.5575,162.328536987305
0.129332733333333, 229.029894559878, -0.000363806951174522, 2.57125,160.613662719727
0.129999505, 229.037585301179, -0.000506448286442151, 2.585,160.004318237305
0.130666075, 229.045260239137, -0.000511404037499425, 2.59875,165.352584838867
0.131333095, 229.05387031969, -0.000804319824619362, 2.61125,161.678833007813
0.131999576666667, 229.062669400847, -0.00105640766249002, 2.625,161.678833007813
0.132666046666667, 229.071019893259, -0.00129430321325535, 2.6375,194.06803894043
0.13333288, 229.080128474982, -0.00115054443409475, 2.65125,150.821395874023
0.133999486666667, 229.089059539948, -0.00125082639704233, 2.665,159.930557250977
0.134666196666667, 229.097678400108, -0.000903472344299999, 2.67875,159.744689941406
0.135332765, 229.105987972673, -0.000983679315612464, 2.69125,159.744689941406
0.135999673333333, 229.114021119421, -0.000634612348882806, 2.705,150.041976928711
0.136666035, 229.122387453343, -0.000802089436670398, 2.71875,153.783599853516
0.137333186666667, 229.130601230007, -0.00139739003532586, 2.7325,161.692886352539
0.137999546666667, 229.138636642929, -0.00157976137498829, 2.745,150.824859619141
0.138666143333333, 229.147081529648, -0.00159515360185003, 2.75875,150.824859619141
0.139332746666667, 229.155856127992, -0.00140623359113776, 2.77125,164.615432739258
0.13999952, 229.164018769266, -0.000981016949371599, 2.785,159.771270751953
0.140666121666667, 229.172646372107, -0.000609394115576251, 2.79875,154.37077331543
0.141333231666667, 229.18128533915, -0.000502386490456744, 2.8125,160.589050292969
0.141999418333333, 229.189674172909, -3.97257294264073E-05, 2.825,160.589050292969
0.14266607, 229.19788184937, 5.98377695832307E-05, 2.83875,155.46647644043
0.143333133333333, 229.206338195784, -5.2424091571052E-05, 2.8525,151.230270385742
0.143999391666667, 229.214512479295, -0.000105492925958217, 2.86625,158.668334960938
0.144666125, 229.222865058354, -4.28875705785732E-05, 2.88,152.59912109375
0.145332781666667, 229.231327670455, -0.000344259932950611, 2.89125,152.59912109375
0.14599939, 229.239948001915, -0.000714783321945831, 2.90625,162.925720214844
0.146666083333333, 229.248685440296, -0.000741964956657571, 2.91875,147.754699707031
0.147332738333333, 229.25750352479, -0.000666520246175613, 2.9325,155.225021362305
0.14799944, 229.266222291535, -0.000632072976421755, 2.94625,152.954498291016
0.148666061666667, 229.274799681881, -0.000598453665087273, 2.95875,152.954498291016
0.149332778333333, 229.283626798003, -0.000648198666444213, 2.9725,188.64958190918
0.149999808333333, 229.292183428941, -0.000621252519906292, 2.98625,159.070938110352
0.150666698333333, 229.300831798032, -0.000186731845430156, 3,159.241180419922
0.151333143333333, 229.308980394569, -0.000168945738816989, 3.0125,155.788604736328
0.151999386666667, 229.317432099781, -9.5080448965457E-05, 3.025,155.788604736328
0.152666123333333, 229.326189522132, -2.61439115957028E-05, 3.03875,160.172302246094
0.153332746666667, 229.334422062869, 0.000122236135437733, 3.0525,153.85710144043
0.154000341666667, 229.343633986472, -0.000343161988117393, 3.06625,161.077651977539
0.15466607, 229.353128431033, -0.000467531241201437, 3.07875,160.406555175781
0.1553328, 229.362781093543, -0.00070440084346239, 3.09125,160.406555175781
0.155999481666667, 229.372136559138, -0.000639889083804885, 3.105,154.759353637695
0.156666135, 229.382314465425, -0.000963323838028926, 3.11875,158.080657958984
0.157333145, 229.391827119854, -0.00083539676366524, 3.1325,156.732376098633
0.157999638333333, 229.401470107322, -0.000823503861010161, 3.145,167.635772705078
0.158666055, 229.411675725959, -0.000622015981533821, 3.15875,167.635772705078
