Time (min), Depth (µm), Load (N), Position (µm), Acoustic (aJ)
9.12666666666667E-06, 226.582491324167, -0.000370916679180193, 0,261.335388183594
0.000668023333333333, 226.582366096458, -0.000380301707765435, 0.00500000000000001,267.180145263672
0.00133337, 226.582810273527, -0.000320703701303167, 0.0174999999999999,267.180145263672
0.00200131333333333, 226.582871802529, -0.000614933422434153, 0.0325,264.109466552734
0.00266715166666667, 226.5828212665, -0.000298384822378207, 0.0462499999999998,272.176330566406
0.00333375666666667, 226.583274191648, -0.000190825224972031, 0.0599999999999999,275.769744873047
0.00400039666666667, 226.584651169133, -0.000405458444192711, 0.075,287.91357421875
0.00466664, 226.586389514961, -0.000511981593644949, 0.0887499999999999,287.91357421875
0.00533310666666667, 226.589389713315, -0.000575663894937419, 0.10375,282.067352294922
0.005999925, 226.594085519618, -0.000965176330108506, 0.11625,284.813842773438
0.00666659, 226.59945238016, -0.000783433458877308, 0.12875,293.748718261719
0.00733320666666667, 226.604587381803, -0.00070231303345448, 0.1425,285.729919433594
0.008000035, 226.611032916537, -0.000676037353231087, 0.15625,285.729919433594
0.00866652166666667, 226.618388252426, -0.000739284676382849, 0.17,284.709930419922
0.00933321, 226.626355661098, -0.000693082497104028, 0.18625,280.693786621094
0.010166665, 226.635151542314, -0.000771086079085533, 0.2,290.469421386719
0.0108331416666667, 226.64532549112, -0.000621851075014716, 0.2125,222.800033569336
0.011499975, 226.656104140264, -0.000715230384668271, 0.22625,283.3291015625
0.0121666633333333, 226.667009271673, -0.000551182124682896, 0.23875,283.3291015625
0.012833285, 226.677598648608, -0.000582227565273796, 0.2525,282.405670166016
0.01350028, 226.688915660667, -0.00062713830947138, 0.2675,286.825012207031
0.0141667533333333, 226.699804978916, -0.000549904188878779, 0.28,329.342864990234
0.0148331683333333, 226.711003459853, -0.000279371777454396, 0.2925,279.635986328125
0.01549969, 226.721384987083, -0.000130421759020197, 0.3075,279.635986328125
0.0161667283333333, 226.732398892651, 8.92722059659845E-05, 0.32,277.569702148438
0.01683317, 226.74255791145, 0.000487484204206262, 0.33375,285.988372802734
0.0174996516666667, 226.753425269285, 0.000426038290602877, 0.34625,283.777008056641
0.0181666616666667, 226.764090967008, 0.000437578710938174, 0.36,286.522674560547
0.0188333133333333, 226.775364347993, 0.000354811368244266, 0.37375,286.522674560547
0.019499905, 226.785987521614, 0.000428055689244071, 0.3875,284.376831054688
0.0201668966666667, 226.797698192616, -6.94558212896175E-05, 0.4,294.866882324219
0.02083311, 226.808754271707, -0.000288260330955889, 0.41375,287.328094482422
0.0214997233333333, 226.819692992974, -0.000351884135196632, 0.4275,288.274200439453
0.022166285, 226.830356151239, -0.000341293167157376, 0.44125,288.274200439453
0.02283322, 226.841536626208, -0.000737930244519183, 0.45375,292.176666259766
0.023499725, 226.85218106293, -0.000755681852871076, 0.46625,290.755828857422
0.0241666733333333, 226.86295332926, -0.000552353565875635, 0.48,290.588287353516
0.024833475, 226.874066932556, -0.000940270081247861, 0.49375,288.496643066406
0.0254996483333333, 226.885384054622, -0.000997828190139124, 0.5075,288.496643066406
0.0261665216666667, 226.896551354708, -0.000891174547242548, 0.52,288.350524902344
0.02683329, 226.907787789903, -0.000793436456486724, 0.53375,282.595794677734
0.0274998533333333, 226.919144485927, -0.000939326628564416, 0.54625,284.82958984375
0.02816697, 226.930205785195, -0.000652182551547158, 0.56,282.412780761719
0.028833735, 226.941335592759, -0.00041209261101855, 0.57375,282.412780761719
0.02949964, 226.952018703197, -0.000311779149658504, 0.58625,283.364959716797
0.0301670783333333, 226.962763415951, -0.000279934249211888, 0.6,275.570007324219
0.030833325, 226.973461915077, -0.000385282957643834, 0.6125,336.378356933594
0.03149972, 226.983694257859, -0.000421302148427356, 0.6275,274.596832275391
0.0321670533333333, 226.994403453253, -0.000770568605145155, 0.63875,274.596832275391
0.0328331516666667, 227.005201114446, -0.00058926071203341, 0.6525,272.454803466797
0.033500255, 227.01568499296, -0.000267076895016736, 0.66625,274.760498046875
0.0341667, 227.025948391076, 0.000178352731535909, 0.67875,277.005981445313
0.0348337133333333, 227.035934039709, 0.000288493699265174, 0.6925,270.986907958984
0.0354996716666667, 227.045759633171, 0.000520617539906563, 0.705,270.986907958984
0.0361663233333333, 227.055493334237, 0.000857380624673395, 0.71875,273.717956542969
0.0368331866666667, 227.065476466597, 0.000518637639396706, 0.7325,277.484252929688
0.0374998366666667, 227.075950315748, 0.000600406032246757, 0.745,275.043243408203
0.0381669683333333, 227.086851365866, 0.000169947153756028, 0.7575,273.433258056641
0.0388333016666667, 227.097606969953, 0.000173962452084934, 0.77125,273.433258056641
0.0395004566666667, 227.108338251899, -8.86578567945094E-05, 0.785,270.579681396484
0.04016674, 227.118953437595, 0.000166461328847742, 0.7975,271.674194335938
0.04083295, 227.12960976049, -0.000185576988634868, 0.81125,269.830413818359
0.0414996883333333, 227.140257830296, 0.00013920319801269, 0.82375,280.020629882813
0.0421665483333333, 227.150757930368, 7.90607189282774E-05, 0.8375,280.020629882813
0.042833675, 227.161324981891, -6.85378673422827E-05, 0.85125,280.03125
0.0434999983333333, 227.171433600558, -0.00014292963072312, 0.8625,275.933349609375
0.0441663616666667, 227.181989571148, -0.000403019566687932, 0.87625,297.213958740234
0.0448331416666667, 227.192317151956, -0.000543190526080821, 0.89125,304.838012695313
0.04549973, 227.202906552017, -0.000715743358920456, 0.90375,304.838012695313
0.0461671, 227.213432979874, -0.000811158066329297, 0.9175,309.701965332031
0.0468336716666667, 227.224287090931, -0.00102815366686768, 0.93125,315.436401367188
0.0474998766666667, 227.234714247193, -0.000911456528466565, 0.94375,375.003265380859
0.048166395, 227.245165666917, -0.00104531880467163, 0.9575,314.573486328125
0.0488333183333333, 227.255423464841, -0.00133731513800485, 0.97,314.573486328125
0.04949963, 227.266360376987, -0.0014752722085747, 0.98375,320.764221191406
0.0501663666666667, 227.277175457865, -0.00176279126675653, 0.9975,321.58642578125
0.0508338616666667, 227.287840485199, -0.00175434969076972, 1.01,320.821563720703
0.051499755, 227.298526495709, -0.00141716962695502, 1.02375,322.332092285156
0.052167095, 227.309367803479, -0.00111064202351631, 1.0375,322.332092285156
0.0528333516666667, 227.319445503128, -0.00116995804412701, 1.05125,310.622375488281
0.0534998433333333, 227.32989287226, -0.00126312136466649, 1.06375,319.848388671875
0.0541665483333333, 227.339886778682, -0.0012325124021407, 1.0775,316.383605957031
0.0548331783333333, 227.350103531367, -0.00128092097059929, 1.09125,317.124053955078
0.0554996383333333, 227.359397249937, -0.00112278541358924, 1.10375,317.124053955078
0.05616673, 227.369484687437, -0.000858426692050122, 1.1175,311.907348632813
0.0568330416666667, 227.379048984219, -0.000473799511446847, 1.13125,319.448272705078
0.0574997916666667, 227.38891730996, -0.000437754821927216, 1.14375,323.373992919922
0.0581667316666667, 227.398699334791, -0.000518633759478611, 1.1575,313.781890869141
0.0588337766666667, 227.409252185182, -0.000636070360738059, 1.17125,313.781890869141
0.0594997016666667, 227.419252753203, -0.000840237105708716, 1.185,315.154296875
0.0601666883333333, 227.428913371923, -0.000596172364810089, 1.1975,317.883697509766
0.0608337083333333, 227.438595074797, -0.000490609167124715, 1.21125,319.372985839844
0.06149984, 227.448757447981, -0.000421740126331853, 1.225,322.636566162109
0.0621670683333333, 227.458555723548, -0.000523004539912343, 1.23875,322.636566162109
0.0628337016666667, 227.468167244205, -0.000306596909782543, 1.2525,316.715087890625
0.0634997116666667, 227.47832333596, -0.00061836824987022, 1.26625,323.982147216797
0.0641665083333333, 227.488526108114, -0.000850882070920218, 1.2775,380.931304931641
0.0648333633333333, 227.498546181857, -0.00098662075291508, 1.2925,320.523468017578
0.0654996816666667, 227.50827838481, -0.000798912681311928, 1.305,320.523468017578
0.0661663633333333, 227.51835818241, -0.0011441518403056, 1.3175,316.392822265625
0.06683371, 227.528774794575, -0.00114990255146663, 1.3325,317.688110351563
0.0675000383333333, 227.538651572696, -0.000938450672479118, 1.345,312.757049560547
0.06816649, 227.548990195171, -0.000912132994393688, 1.3575,310.371734619141
0.0688330683333333, 227.559639648151, -0.0010421149655299, 1.37125,310.371734619141
0.0695001466666667, 227.570027445667, -0.00074115058263806, 1.385,308.263122558594
0.0701666816666667, 227.580130492692, -0.000916146792755683, 1.3975,300.317626953125
0.0708332616666667, 227.590438697916, -0.00114897259818783, 1.41,294.090240478516
0.0715002383333333, 227.599884306383, -0.00117471130536859, 1.42375,294.270446777344
0.0721670066666667, 227.60978696033, -0.00157615564125049, 1.4375,294.270446777344
0.07283382, 227.619291880026, -0.00180468416250216, 1.45125,296.941589355469
0.0735003966666667, 227.628641687394, -0.0015263626423339, 1.46375,290.845062255859
0.0741673083333333, 227.637745911917, -0.00120532926746205, 1.4775,294.135559082031
0.074833675, 227.646604103901, -0.00134802460002945, 1.49,290.14794921875
0.0754996633333333, 227.655496386935, -0.00115176995768875, 1.50375,290.14794921875
0.076166525, 227.66446038386, -0.000974565858466957, 1.5175,284.234802246094
0.0768337333333333, 227.673359704053, -0.00114500529743983, 1.53,288.192291259766
0.07750023, 227.68223823114, -0.00129421630272019, 1.5425,287.687377929688
0.0781663283333333, 227.690772840003, -0.000858113207764825, 1.55625,286.705718994141
0.0788332, 227.699298990815, -0.000636406343846897, 1.57,286.705718994141
0.079500375, 227.70757490665, -0.000823286457073179, 1.5825,290.036651611328
0.08016646, 227.715294190659, -0.00082382493004022, 1.59625,284.851593017578
0.0808334916666667, 227.72293435504, -0.00100182248942011, 1.60875,343.035186767578
0.08149969, 227.730753635408, -0.00143884053845276, 1.6225,293.440399169922
0.0821671166666667, 227.738266113275, -0.00157271331417115, 1.635,293.440399169922
0.082833295, 227.745970301723, -0.00146376328658811, 1.64875,300.686767578125
0.08349998, 227.753607475165, -0.00146110991991492, 1.6625,292.838562011719
0.0841670433333333, 227.761660873452, -0.00146629815931846, 1.67375,299.119506835938
0.0848332516666667, 227.769286969843, -0.00127757763850931, 1.68875,303.118316650391
0.0854999316666667, 227.77594599895, -0.00114386385479892, 1.7,303.118316650391
0.0861665133333333, 227.780902453821, -0.00122207142654177, 1.71375,315.115234375
0.086833065, 227.786609031783, -0.00124035850796939, 1.7275,330.499786376953
0.0874997633333333, 227.791859553232, -0.00132960702511499, 1.74125,332.547058105469
0.0881672516666667, 227.797601686186, -0.00162836801867587, 1.755,341.111236572266
0.08883295, 227.803488444208, -0.00158083840604512, 1.7675,341.111236572266
0.089500495, 227.811184769885, -0.00134780261113275, 1.78125,341.323211669922
0.0901665616666667, 227.817832627036, -0.00139487174690794, 1.795,346.363464355469
0.0908338383333333, 227.824931360932, -0.0011040183561613, 1.80875,338.963897705078
0.0914998066666667, 227.831846515979, -0.000966277274748022, 1.82125,345.250091552734
0.0921664833333333, 227.839450095059, -0.00107278392503182, 1.835,345.250091552734
0.092833085, 227.846413024164, -0.000849085161272575, 1.84875,339.723724365234
0.0934997083333333, 227.854127228313, -0.000683109498046439, 1.8625,342.764892578125
0.094167055, 227.861285431486, -0.000359439255648579, 1.875,337.643585205078
0.0948336183333333, 227.868862202465, -5.7751909088095E-05, 1.88875,342.368591308594
0.09549986, 227.876636460794, 6.82284741560028E-06, 1.9025,342.368591308594
0.096166685, 227.884902752605, -2.10470409912302E-06, 1.915,340.706970214844
0.0968332183333333, 227.893497568083, -0.000151158217338401, 1.92875,408.268707275391
0.0974998433333333, 227.902002082792, -0.000195705979766633, 1.94125,340.850830078125
0.0981667283333333, 227.910589134014, -0.000145716490710709, 1.955,331.085327148438
0.0988329933333333, 227.918888955805, -0.000114312568102413, 1.96875,331.085327148438
0.0994997816666667, 227.92733731957, -0.000190306251022233, 1.9825,330.491821289063
0.100166488333333, 227.935666093131, 0.000106237853866808, 1.99625,331.626434326172
0.100833756666667, 227.944572815402, -0.00014465454406317, 2.00875,332.606353759766
0.101499673333333, 227.953701051176, -0.000172802130260641, 2.0225,333.025421142578
0.102166343333333, 227.962587984022, -0.000238309839849433, 2.035,333.025421142578
0.102833291666667, 227.971152089577, -0.000224876514619667, 2.04875,332.342193603516
0.103499813333333, 227.979753970741, -0.000546254872104267, 2.06125,332.803924560547
0.104166473333333, 227.988217916291, -0.000380625691479047, 2.075,341.519744873047
0.104833171666667, 227.996597483309, -0.000578344260292377, 2.08875,338.160552978516
0.10549996, 228.005117637022, -0.000718317229621528, 2.1025,338.160552978516
0.1061665, 228.013386446358, -0.000556466359205737, 2.11625,340.940399169922
0.10683355, 228.021807196879, -0.000520610660203424, 2.12875,342.501770019531
0.107499693333333, 228.029454295725, -0.000628521239983725, 2.1425,344.635833740234
0.10816631, 228.037336178219, -0.000485779409717315, 2.155,343.780212402344
0.108833126666667, 228.045076798187, -0.000252880108031917, 2.16875,343.780212402344
0.109499815, 228.052842558104, -0.000283469571582973, 2.18375,349.422546386719
0.110166701666667, 228.060393740754, -7.44010728548142E-05, 2.19625,341.900299072266
0.110833431666667, 228.068948082206, -0.000221221198232559, 2.20875,342.266815185547
0.111499983333333, 228.076931385773, -0.000262062646843973, 2.22125,343.096252441406
0.112166683333333, 228.085334257425, -9.95878077914098E-05, 2.235,343.096252441406
0.112833253333333, 228.093857441552, -0.000466116897420623, 2.24875,343.824676513672
0.11349967, 228.102462157362, -0.000694178942097859, 2.2625,409.398834228516
0.114166615, 228.110211097049, -0.000541620104975561, 2.275,339.521301269531
0.114833088333333, 228.117950934641, -0.0003603722088612, 2.28875,335.596496582031
0.115499916666667, 228.126032363243, -0.000493700511936198, 2.30125,335.596496582031
0.116167041666667, 228.133554741763, -0.000300957193239892, 2.315,336.295349121094
0.116833283333333, 228.141290643242, -0.000255174992815238, 2.32875,329.542083740234
0.117499695, 228.14961628647, -0.000129575801550489, 2.34125,334.123870849609
0.118166783333333, 228.157768574943, -0.000201740176809915, 2.35375,331.600402832031
0.118833456666667, 228.165006676594, -3.0029489322532E-07, 2.3675,331.600402832031
0.119499918333333, 228.17330326224, -5.31681393678457E-05, 2.38125,338.961486816406
0.120166505, 228.180721093651, 6.8403754194024E-05, 2.39375,331.795135498047
0.120833123333333, 228.188208647962, 0.000166431330380931, 2.4075,339.965545654297
0.1215, 228.195818063062, 7.42054627847679E-05, 2.42,335.299835205078
0.122167013333333, 228.203827395008, -0.000182281654168304, 2.43375,335.299835205078
0.12283351, 228.211164093381, -0.000260274736657732, 2.4475,341.108703613281
0.123499715, 228.218952061692, -0.000389572742138537, 2.46,343.285278320313
0.124167196666667, 228.226599657824, -0.000883212947107285, 2.4725,341.274993896484
0.124833171666667, 228.233961723088, -0.00109344838723372, 2.48625,348.299285888672
0.125499923333333, 228.241556658478, -0.00144240435953628, 2.5,348.299285888672
0.126166465, 228.249186044255, -0.00173886446863749, 2.5125,344.243316650391
0.126833803333333, 228.256924999434, -0.00168872948691445, 2.525,346.725189208984
0.127499968333333, 228.264917425035, -0.00165055790420842, 2.5375,348.15869140625
0.12816667, 228.274274719444, -0.0018796383977255, 2.55125,334.398956298828
0.128833375, 228.282918037124, -0.00181375420698397, 2.56625,334.398956298828
0.129500148333333, 228.292200112555, -0.00170713956212188, 2.57875,334.379180908203
0.13016652, 228.300973705983, -0.00197991886068491, 2.5925,396.039581298828
0.130833443333333, 228.309509124872, -0.0015849107015226, 2.60625,325.930328369141
0.131499731666667, 228.317185835087, -0.00151346629006176, 2.61875,332.576293945313
0.132167198333333, 228.325529793741, -0.00133163942306398, 2.6325,332.576293945313
0.132833121666667, 228.333685233298, -0.00113427033672162, 2.64625,327.460327148438
0.13349981, 228.342356153725, -0.00119544926380248, 2.66,324.913970947266
0.134166383333333, 228.351010165784, -0.00152544318856843, 2.6725,328.799621582031
0.134833138333333, 228.358907386259, -0.00109648423473601, 2.68625,328.566802978516
0.135500065, 228.36637765131, -0.00107560528349323, 2.7,328.566802978516
0.13616648, 228.373974928921, -0.00101080553832905, 2.71375,330.024597167969
0.13683337, 228.381474671117, -0.000980573056828472, 2.72625,330.500579833984
0.13749964, 228.389235198119, -0.0010317414866779, 2.74,329.725433349609
0.138166531666667, 228.397832005038, -0.00122913307190756, 2.7525,324.657348632813
0.138833135, 228.406223734468, -0.00171426870402205, 2.7675,324.657348632813
0.139500033333333, 228.415044406179, -0.00202638952649568, 2.78,325.656188964844
0.14016736, 228.423237720449, -0.00210800492707785, 2.79375,321.430786132813
0.140832965, 228.431194667253, -0.00211132276043172, 2.80625,334.491851806641
0.141500395, 228.43878186752, -0.00227514903160541, 2.81875,323.202911376953
0.142166515, 228.446680997508, -0.0022614652189578, 2.83375,323.202911376953
0.1428334, 228.453759759339, -0.00226794189367878, 2.8475,325.661102294922
0.143499766666667, 228.461445682689, -0.00195080082331352, 2.86,328.268280029297
0.144166525, 228.469308492964, -0.00196175477312213, 2.87375,332.482482910156
0.144833071666667, 228.477644980426, -0.00188257675016284, 2.8875,327.547271728516
0.145499925, 228.485798029812, -0.00158248232357366, 2.9,327.547271728516
0.14616655, 228.494079675143, -0.00125934455440272, 2.91375,328.717468261719
0.146833295, 228.502701394157, -0.00154218084783244, 2.9275,394.313140869141
0.1475001, 228.511390368782, -0.00152471422515967, 2.94125,329.838470458984
0.14816629, 228.519865185128, -0.00158067191443636, 2.95375,324.386260986328
0.148833785, 228.527907781724, -0.00144751460278584, 2.9675,324.386260986328
0.149499918333333, 228.536313033788, -0.00100143400895716, 2.98125,331.770416259766
0.15016681, 228.544220498591, -0.000917303234746898, 2.995,330.80615234375
0.150832975, 228.552033645294, -0.000507192334196437, 3.0075,331.116333007813
0.151499961666667, 228.559536623116, -0.000376008923400671, 3.02,337.962158203125
0.152166485, 228.568017413848, -0.000250832710881404, 3.03375,337.962158203125
0.152833805, 228.576061986255, -0.000834255406189581, 3.0475,331.556213378906
0.153499686666667, 228.585033328614, -0.000532485563786918, 3.06,338.767456054688
0.154166841666667, 228.593680564351, -0.000968665154950615, 3.07375,335.369079589844
0.15483379, 228.602998943738, -0.0010872491985911, 3.0875,335.794525146484
0.155499683333333, 228.612043376057, -0.0015547037188219, 3.1,335.794525146484
0.156166521666667, 228.620952381987, -0.00146808006982834, 3.11375,345.033050537109
0.156833386666667, 228.629707002586, -0.00146203537346301, 3.12625,339.840667724609
0.157499843333333, 228.638665312664, -0.00132420879629499, 3.13875,338.853820800781
0.158166685, 228.647705839441, -0.0013106734761633, 3.1525,335.185607910156
0.158833066666667, 228.656960031118, -0.000991072529394113, 3.1675,335.185607910156
0.159499745, 228.666450204867, -0.000902171994773833, 3.17875,335.210510253906
0.160166683333333, 228.676083619007, -0.00120034051811041, 3.1925,335.309173583984
0.160833023333333, 228.685900141122, -0.00103680223248591, 3.20625,331.7177734375
