Time (min), Depth (µm), Load (N), Position (µm), Acoustic (aJ)
8.23666666666667E-06, 248.697391131364, -0.000257691710851346, 0,107.863334655762
0.000664606666666667, 248.697513271445, -0.000214987355833529, 0,103.859619140625
0.00133143333333333, 248.697755497891, -0.000208117700918887, 0,103.390365600586
0.00199785333333333, 248.696663062672, -0.000535366763538035, 0.00749999999999999,101.300643920898
0.00266448, 248.694380471555, -0.000620108007107949, 0.01875,109.500297546387
0.00333154666666667, 248.693232367953, -0.00105133784689073, 0.0275,109.500297546387
0.00399850166666667, 248.6936835698, -0.00128242373965378, 0.03625,104.562858581543
0.00466452, 248.694525403916, -0.00141872489336362, 0.04375,105.641807556152
0.00533285833333333, 248.698597855767, -0.00130334018900664, 0.05125,111.979454040527
0.00599804, 248.703746328429, -0.00121337470784751, 0.05875,102.501937866211
0.00666515833333333, 248.709415122005, -0.000789446501335033, 0.065,102.501937866211
0.00733183666666667, 248.71355574361, -0.000679163040787459, 0.07,102.412162780762
0.00799791, 248.717916143172, -0.000599674533412934, 0.0775,111.82054901123
0.00866451666666667, 248.721037474813, -0.000319472107702928, 0.085,124.225624084473
0.00933116, 248.724960510193, -0.00038155548934773, 0.09125,103.089042663574
0.00999827166666667, 248.727970197581, -0.000402434440633021, 0.09875,103.089042663574
0.0106649016666667, 248.730791026306, -0.000239824608341657, 0.105,99.7040023803711
0.0113313566666667, 248.733594685254, -7.16440558601587E-05, 0.11,99.8835220336914
0.0119978266666667, 248.736623487333, -0.000254106890932445, 0.11625,106.601455688477
0.0126643966666667, 248.739289228843, 0.000159890314448242, 0.125,103.212310791016
0.0133311583333333, 248.742375023704, 0.00015028329700881, 0.1325,103.212310791016
0.0141652433333333, 248.747562687901, -1.21855423248857E-05, 0.13875,101.770751953125
0.014831155, 248.751840194552, -0.000114829886590168, 0.145,102.88020324707
0.0154978883333333, 248.756283373355, -0.00048278540453942, 0.1525,101.551246643066
0.0161645083333333, 248.761078939335, -0.000507979639055524, 0.15875,103.918449401855
0.01683126, 248.765526038357, -0.000299274122117969, 0.165,106.696929931641
0.017499295, 248.770250717884, -0.000481628962654476, 0.17125,106.696929931641
0.018164635, 248.77491348743, -0.000409166102417547, 0.17875,106.60572052002
0.0188312166666667, 248.779495284757, -0.000111530052392902, 0.18375,105.541069030762
0.019498115, 248.784341402996, -0.000177630232248506, 0.19125,105.214057922363
0.0201644316666667, 248.78914698481, -0.000516439214220193, 0.19875,103.616050720215
0.020831465, 248.79447876606, -0.000540513005015776, 0.205,103.616050720215
0.0214980166666667, 248.799263325782, -0.000623482837525378, 0.2125,107.041412353516
0.022164495, 248.804534729563, -0.00119162430033515, 0.21875,110.755828857422
0.0228318033333333, 248.809181785622, -0.00133428513464127, 0.225,101.663505554199
0.023497925, 248.813799930481, -0.00138180874755316, 0.23125,107.248252868652
0.0241651116666667, 248.818790343019, -0.0016094868115194, 0.23875,107.248252868652
0.0248312383333333, 248.823740847347, -0.00189298007192276, 0.24375,101.397323608398
0.0254978533333333, 248.828292366533, -0.00151866487337723, 0.25125,129.427139282227
0.0261643916666667, 248.833047959414, -0.00157221518362536, 0.25875,106.619453430176
0.0268311733333333, 248.838006815525, -0.00138262470655606, 0.265,106.938201904297
0.0274980716666667, 248.842133575402, -0.000820890921859709, 0.27125,106.938201904297
0.02816487, 248.846730752663, -0.0003918494721426, 0.2775,103.579124450684
0.0288312383333333, 248.85175154037, -0.000511900442083263, 0.28375,100.731575012207
0.0294978483333333, 248.856542723581, -0.000304841842395534, 0.29125,106.108512878418
0.0301644916666667, 248.861590793545, -0.000191894515640184, 0.2975,107.273040771484
0.030831235, 248.866629332559, -0.000290241575788747, 0.30375,107.273040771484
0.0314979233333333, 248.871991339696, -0.000419413587598424, 0.31,103.112297058105
0.0321644283333333, 248.876228737893, -0.000265773304811345, 0.3175,101.770767211914
0.032831155, 248.881417942469, -0.000426926710209589, 0.32375,108.294403076172
0.0334981733333333, 248.886257264048, -0.000574013822194876, 0.33,104.517951965332
0.03416449, 248.891402545718, -0.000675602219510231, 0.3375,104.517951965332
0.034831375, 248.896338263024, -0.000688525570400381, 0.34375,101.73560333252
0.03549795, 248.902172438299, -0.000769526001870948, 0.35,106.249580383301
0.03616463, 248.907507531829, -0.000733548809013226, 0.3575,105.980224609375
0.03683128, 248.912577541161, -0.000875653171259472, 0.3625,108.612762451172
0.0374978466666667, 248.917274951982, -0.000648206095672588, 0.37,108.612762451172
0.0381646916666667, 248.922526557952, -0.000882752314650321, 0.3775,102.570671081543
0.03883121, 248.927136537509, -0.00117743801286366, 0.38375,107.098510742188
0.0394978366666667, 248.931907677358, -0.00153844287995924, 0.38875,106.413078308105
0.0401645083333333, 248.936698395532, -0.00182153266067687, 0.39625,107.683700561523
0.0408312533333333, 248.942749145463, -0.00204263805482407, 0.40375,107.683700561523
0.0414980783333333, 248.947330191973, -0.0019821730919292, 0.41,130.949264526367
0.042331405, 248.952059627667, -0.00190367003510015, 0.41875,106.023887634277
0.0429981133333333, 248.957051767214, -0.00161130322033306, 0.425,105.873901367188
0.043664785, 248.96275262406, -0.00126440514465184, 0.43,105.495239257813
0.0443315966666667, 248.967313359274, -0.00132529758608666, 0.4375,104.682884216309
0.0449979683333333, 248.972411094151, -0.0011684969619868, 0.445,104.682884216309
0.045664605, 248.977008304026, -0.000907196586816017, 0.45,108.577461242676
0.04633118, 248.981609068522, -0.000725687703834235, 0.45625,101.124885559082
0.0469980533333333, 248.986101934942, -0.000513143879668613, 0.46375,104.506309509277
0.04766514, 248.989791921625, -0.000278659157548905, 0.47,100.559364318848
0.0483311483333333, 248.99390172471, -0.000415218298362381, 0.4775,100.559364318848
0.04899859, 248.998596048301, -0.000850928413081588, 0.48375,104.807304382324
0.0496644816666667, 249.003734182626, -0.000934966191936342, 0.49,99.9721069335938
0.0503311583333333, 249.008229711969, -0.000863292292020544, 0.49625,109.258796691895
0.0509983883333333, 249.013335407777, -0.00102757154047029, 0.5025,108.050483703613
0.0516650316666667, 249.018772780825, -0.00108160932619199, 0.51,108.050483703613
0.0523314633333333, 249.023917487529, -0.000709706006533236, 0.51625,104.028999328613
0.0529985566666667, 249.028644012455, -0.000405006811282166, 0.52375,101.75708770752
0.0536650283333333, 249.033641269254, -0.000449896556538104, 0.52875,103.862571716309
0.0543313366666667, 249.038551350902, -0.000363050918669099, 0.53625,107.966491699219
0.0549979283333333, 249.042862143371, 1.70104912430034E-05, 0.5425,107.966491699219
0.05566678, 249.047865748543, 0.000109500345555394, 0.54875,106.468338012695
0.0563312183333333, 249.052299270409, -0.000100301616312229, 0.555,97.8169708251953
0.0569989183333333, 249.057092006756, -0.000178029212118518, 0.5625,111.846450805664
0.0576646716666667, 249.061814265473, -0.000128113219358353, 0.56875,127.597145080566
0.0583319933333333, 249.067453913065, -0.000422776418726897, 0.575,127.597145080566
0.058998175, 249.072595180099, -0.000350150066666252, 0.5825,108.404197692871
0.059664525, 249.077477437882, -0.000175503338977096, 0.58875,108.754119873047
0.0603313666666667, 249.082440744014, -3.20099357656799E-06, 0.59375,100.733619689941
0.0609980733333333, 249.087517894585, 2.42011300649591E-05, 0.60125,104.282585144043
0.0616644466666667, 249.091738423967, -2.54598755041436E-05, 0.60875,104.282585144043
0.062331175, 249.096487038193, -0.000239670115936834, 0.615,108.787483215332
0.0629980416666667, 249.101271313162, -0.000110735092204126, 0.62125,99.6158599853516
0.0636646016666667, 249.105914065105, -0.000297598706198211, 0.6275,108.325294494629
0.0643313216666667, 249.110796716687, -0.000363884876722326, 0.635,99.7414245605469
0.0649981866666667, 249.11612738869, 1.30806886688449E-05, 0.64125,99.7414245605469
0.0656645916666667, 249.12083105885, 1.03733246533744E-05, 0.6475,103.677474975586
0.0663318866666667, 249.125251671366, -9.09135878356725E-05, 0.65375,104.90079498291
0.0669979666666667, 249.130350495354, 1.16078735325333E-06, 0.66125,101.244636535645
0.0676645683333333, 249.135786072121, -0.000208287192291438, 0.6675,107.91365814209
0.068331335, 249.140772033976, -0.00045885860635661, 0.67375,107.91365814209
0.068998105, 249.145344714058, -0.000229733115107432, 0.68125,109.113105773926
0.0696646, 249.151236068092, -0.000649452533042982, 0.6875,98.6137084960938
0.0703311683333333, 249.155870925912, -0.000619461539477604, 0.69375,106.780487060547
0.0709980433333333, 249.160758308908, -0.000355866279629772, 0.70125,109.721862792969
0.0716644566666667, 249.164879510924, -0.000234937853721917, 0.7075,109.721862792969
0.0723311983333333, 249.169601518072, -2.58378565812892E-05, 0.71375,104.993499755859
0.0729986583333333, 249.174213512573, 0.00026434956762404, 0.72,101.663040161133
0.0736644966666667, 249.179047946933, 0.000109342853429289, 0.7275,103.663436889648
0.0743312883333333, 249.1832821802, 0.000185552525484433, 0.7325,119.035926818848
0.07499787, 249.188632882118, 0.000204973549994708, 0.74,119.035926818848
0.075664765, 249.193742951206, -0.000163877423014576, 0.74625,102.781120300293
0.0763316966666667, 249.198500653987, -5.41579341063887E-05, 0.75375,108.486221313477
0.0769980883333333, 249.203678598162, -2.52108880957111E-05, 0.76,105.222549438477
0.0776648033333333, 249.208768415473, -9.80652286656518E-05, 0.76625,97.6446685791016
0.0783312966666667, 249.213498023304, -0.000302848442651064, 0.7725,97.6446685791016
0.078997935, 249.218106944771, -0.000331551000962757, 0.78,101.317817687988
0.079665, 249.223170726749, -0.000372308453743826, 0.78625,103.089561462402
0.0803312283333333, 249.227574048132, -0.000167123259997086, 0.7925,104.618286132813
0.080998055, 249.231749849095, -0.000148419199436584, 0.8,105.678276062012
0.0816665466666667, 249.23609555492, 5.06418019302027E-05, 0.80625,105.678276062012
0.08233219, 249.24073633393, 0.000213578617783986, 0.8125,102.264175415039
0.0829995816666667, 249.245418081951, 2.64360177658788E-05, 0.82,99.974235534668
0.0836652666666667, 249.249650986479, -0.000189274147303865, 0.82625,101.481094360352
0.0843316883333333, 249.253935352073, 6.31061758891933E-05, 0.8325,105.752571105957
0.0849994366666667, 249.258519261855, -0.000185182352851647, 0.83875,105.752571105957
0.08566473, 249.262980604431, -0.000163145459735753, 0.84625,104.50350189209
0.086331215, 249.266767882567, -4.42632131386686E-07, 0.8525,103.208755493164
0.0869978316666667, 249.271326101626, 0.000285865986886987, 0.85875,103.466125488281
0.0876649566666667, 249.27537700484, -7.61423298044058E-05, 0.86625,102.771789550781
0.0883312833333333, 249.279838014476, -6.42133178046086E-06, 0.8725,102.771789550781
0.0889982883333333, 249.284147958804, -0.000360349554351241, 0.87875,101.286781311035
0.0896652283333333, 249.28838617868, -0.000441646970853653, 0.885,104.168327331543
0.09033122, 249.291868615834, -0.00056083698410183, 0.8925,96.6380157470703
0.0909985033333333, 249.296268336196, -0.000721361921111346, 0.89875,129.427993774414
0.0916650733333333, 249.300157201741, -0.000459377580306408, 0.905,129.427993774414
0.0923317516666667, 249.304102711124, -0.0004277666680667, 0.91375,104.279151916504
0.0929978033333333, 249.307776171528, -0.000379362599360068, 0.91875,104.501075744629
0.0936663733333333, 249.311996742455, -0.000454306334985067, 0.925,102.989738464355
0.09433186, 249.316083118234, -0.000456940202704778, 0.93125,103.232284545898
0.0949978383333333, 249.320050208601, -0.000577784632803543, 0.93875,103.232284545898
0.0956645083333333, 249.32390922584, -0.000498090635743263, 0.94625,105.705322265625
0.09633122, 249.327389857035, -0.000540806990092544, 0.9525,104.066772460938
0.0969996816666667, 249.330884991243, -0.000327982680063513, 0.95875,102.408256530762
0.0976644966666667, 249.334268089226, -0.000174339397385119, 0.965,102.240348815918
0.0983316716666667, 249.338175904537, -0.000400492037978196, 0.97125,102.240348815918
0.0989978566666667, 249.34119494204, -0.000137886728406547, 0.9775,103.475486755371
0.0996644683333333, 249.344678460141, -1.11025966506843E-05, 0.98625,104.241676330566
0.100332578333333, 249.348135233043, -0.000177571735090508, 0.9925,104.508941650391
0.100999215, 249.351739405305, -3.18405550208155E-05, 0.99875,111.045928955078
0.101664606666667, 249.354615606726, 8.52270648141775E-05, 1.005,111.045928955078
0.102331191666667, 249.357579892904, 0.000109650338059482, 1.01125,105.348541259766
0.102998173333333, 249.360944502128, -5.28095017703025E-05, 1.01875,110.009338378906
0.103664538333333, 249.363721801909, -8.99896342757411E-05, 1.025,98.4980545043945
0.104331321666667, 249.36688222519, -8.62698210755305E-05, 1.0325,106.453170776367
0.104997828333333, 249.369326116185, 3.94943619160841E-05, 1.03875,106.453170776367
0.105664486666667, 249.373262772664, 8.85478980168509E-05, 1.045,109.944091796875
0.106331166666667, 249.37585480621, 0.000191583722657654, 1.05,105.434867858887
0.106999261666667, 249.380172031849, 0.000297602897404127, 1.0575,122.854949951172
0.107664495, 249.383162991685, 0.000666993843262346, 1.06375,108.875
0.108331483333333, 249.387143349017, 0.000846425330626804, 1.07,108.875
0.108998068333333, 249.390213121486, 0.000741628594481528, 1.07875,104.097023010254
0.109664493333333, 249.394124881544, 0.000976911276490038, 1.085,104.988403320313
0.110331353333333, 249.397191693719, 0.00068630237350614, 1.09,103.556083679199
0.11099931, 249.400958672858, 0.000242509164817514, 1.09875,103.498641967773
0.111664976666667, 249.403326097847, 0.00021842037473539, 1.105,103.498641967773
0.112331258333333, 249.406692780095, 0.000282582651921919, 1.11,100.149291992188
0.11299784, 249.409700032557, 0.000111547742812177, 1.11625,107.117767333984
0.113664656666667, 249.412534594125, 0.000125167058752963, 1.125,102.940277099609
0.114331415, 249.415239661505, 0.000230373274324091, 1.13125,108.702163696289
0.114998026666667, 249.418947179966, 0.000125590037498444, 1.13625,108.702163696289
0.115664506666667, 249.421347790681, 0.000352782125873012, 1.1425,103.758018493652
0.116331283333333, 249.424485150542, 0.000562977067976796, 1.15,101.292755126953
0.116997835, 249.426862367355, 0.000806600831015848, 1.1575,100.546234130859
0.117664578333333, 249.430463846294, 0.000787877271480612, 1.16375,108.269012451172
0.118331431666667, 249.432973556514, 0.000955622845800149, 1.16875,108.269012451172
0.11899792, 249.436482579795, 0.000455049989070568, 1.17625,107.618644714355
0.119664751666667, 249.439833693242, 0.000467608858288218, 1.18375,111.894309997559
0.12033136, 249.444023961301, 0.00044329807943692, 1.18875,101.322219848633
0.12099851, 249.44728347433, 0.00038917329805732, 1.19625,102.740577697754
0.12166501, 249.451057136792, 2.58120493203942E-05, 1.20375,102.740577697754
0.122331551666667, 249.455080006004, 0.000461204180023602, 1.21,104.446166992188
0.122999465, 249.459242821886, 0.000313272610450502, 1.215,102.496307373047
0.123664473333333, 249.462809993973, 0.000459738753605316, 1.2225,127.312210083008
0.124331135, 249.466311427412, 0.000250082284447317, 1.22875,100.190048217773
0.124999538333333, 249.470415890146, 0.000489764245431969, 1.2375,100.190048217773
0.12566603, 249.474180006666, -0.000163356948991596, 1.2425,107.893608093262
0.126331281666667, 249.47750889192, -0.000344667841930894, 1.24875,110.417198181152
0.126997861666667, 249.48124207739, -0.000801699385719369, 1.255,104.551666259766
0.127666178333333, 249.484631101068, -0.000803616289468052, 1.2625,105.821624755859
0.128331908333333, 249.488147107213, -0.000962393814228962, 1.27,105.821624755859
0.128999435, 249.491257869961, -0.000379499092395748, 1.275,105.423583984375
0.129666088333333, 249.49448996782, -0.000370241557406038, 1.28125,107.761795043945
0.130332655, 249.497170012395, -0.000276584761695372, 1.28875,102.174201965332
0.131000353333333, 249.500121853548, 0.00012009581347413, 1.29625,103.398773193359
0.131665138333333, 249.503165863296, 0.000402573624907706, 1.30125,103.398773193359
0.132331786666667, 249.505971169133, 0.000410721215668973, 1.3075,106.967102050781
0.132999525, 249.508968737379, 0.000465781950024984, 1.31625,104.566596984863
0.133664458333333, 249.512554890122, 0.000638588270131277, 1.32125,107.082389831543
0.134331896666667, 249.515887712766, 0.00034019775796176, 1.3275,106.797332763672
0.134999381666667, 249.518952872036, 0.000517259364343989, 1.33625,106.797332763672
0.135664536666667, 249.522266680537, 0.000599573729783097, 1.3425,114.153472900391
0.136331421666667, 249.525787832548, 0.000388093352210671, 1.3475,105.188987731934
0.13699802, 249.529076519528, 0.000634914954630076, 1.35375,108.703346252441
0.137665235, 249.532254397624, 0.000714377963332254, 1.36125,107.638259887695
0.13833202, 249.536071093288, 2.03943214406466E-05, 1.3675,107.638259887695
0.138998088333333, 249.539440983153, -0.000389355097264867, 1.37375,107.786315917969
0.13966512, 249.542511966655, -0.000414235847559436, 1.38,107.154426574707
0.140331293333333, 249.545302885333, -0.00049496929242246, 1.38875,125.636093139648
0.140998705, 249.548461582853, -0.000326301264446141, 1.395,107.248191833496
0.14166504, 249.551324596708, 2.13692724302888E-05, 1.4,107.248191833496
0.142331293333333, 249.554662114105, 8.71484683998328E-05, 1.4075,104.154205322266
0.142998098333333, 249.55790447664, -0.000127907729545074, 1.41375,103.903625488281
0.143664511666667, 249.56121410728, 0.000152441688777705, 1.42,103.098098754883
0.14433144, 249.564931916139, 2.25707120685851E-05, 1.42625,101.117866516113
0.144998473333333, 249.568034935757, -2.30434968016509E-05, 1.43375,101.117866516113
0.14566449, 249.571418179909, -0.000112938481471323, 1.44,101.565315246582
0.146331276666667, 249.574373301908, 0.000319353304958998, 1.44625,108.46460723877
0.146997956666667, 249.577496627484, 0.000123844125195494, 1.4525,106.901237487793
0.147664476666667, 249.580470540746, 0.000142405692831417, 1.46,108.375671386719
0.148331945, 249.583513769358, 1.26232117045973E-05, 1.46625,108.375671386719
0.148999561666667, 249.586655072112, 7.78145490197117E-06, 1.4725,106.920249938965
0.149664538333333, 249.589920358692, -8.2917377876266E-06, 1.48,106.160957336426
0.150332766666667, 249.593790342438, -0.00041392086347726, 1.48625,107.210075378418
0.150999516666667, 249.59688443046, -0.000578647089420432, 1.4925,107.210075378418
0.151832243333333, 249.602163815826, -0.000478026143536465, 1.49875,107.361137390137
0.152499743333333, 249.605309400908, -0.000562762887290662, 1.505,107.361137390137
0.153164558333333, 249.608860669117, -0.000337544699749593, 1.51375,106.454917907715
0.153832851666667, 249.612146858862, -0.000112005528322464, 1.52125,107.200576782227
0.154497913333333, 249.616016001119, -2.04455158535285E-06, 1.5275,101.109413146973
0.15516461, 249.620084285243, -7.37064520634167E-05, 1.53375,103.658096313477
0.155833283333333, 249.623241237377, -0.000260507069275072, 1.54,103.658096313477
0.156498503333333, 249.626879611115, -0.000555890232484705, 1.5475,104.625465393066
0.157164536666667, 249.630716406501, -0.000750128976044854, 1.55375,121.855400085449
0.157831146666667, 249.634108522092, -0.000653968806058814, 1.56,106.028945922852
0.158497958333333, 249.637052352361, -0.000488402622279784, 1.5675,102.353500366211
0.15916446, 249.640618266138, -0.000225632320960015, 1.57375,102.353500366211
0.159831996666667, 249.644199456701, 0.000150553283592684, 1.58,105.047576904297
