Time (min), Depth (µm), Load (N), Position (µm), Acoustic (aJ)
8.03833333333333E-06, 249.667500576715, 0.000316846425581911, 0,100.606674194336
0.00066564, 249.667336741406, 0.000630293181461821, 0,103.507232666016
0.00133237833333333, 249.666631209858, 0.000166937955305252, 0.00499999999999999,106.10205078125
0.001999195, 249.665190177414, -0.000152539997641609, 0.01375,105.81908416748
0.00266559333333333, 249.663773389301, -0.00050742217228164, 0.0225,101.32438659668
0.00333229333333333, 249.662894309487, -0.000666987157481785, 0.02875,101.32438659668
0.00399981, 249.663368653766, -0.000513633360276982, 0.03625,102.156120300293
0.00466557833333333, 249.664804968994, -0.000306189279996362, 0.04375,101.898902893066
0.00533253, 249.668854940498, -8.67008046746809E-05, 0.05,104.985122680664
0.00599982833333333, 249.673573843915, -0.000109858141532349, 0.05625,105.201156616211
0.00666554166666667, 249.67899669786, -0.000310590058981922, 0.06375,105.201156616211
0.00733297833333333, 249.683918669887, -0.000404396847175423, 0.07125,101.396072387695
0.00799908, 249.689426118555, -0.000640456490131092, 0.07875,108.60913848877
0.00866562833333333, 249.694368385071, -0.000423100907693416, 0.085,125.790824890137
0.00933231833333333, 249.698872536918, -0.000251728515507925, 0.09125,102.753440856934
0.00999918166666667, 249.702964284182, -1.15500794182705E-05, 0.09875,102.753440856934
0.0106655516666667, 249.708764115024, -0.000262674965673261, 0.105,110.304229736328
0.011499405, 249.712725074385, -0.000460840512022524, 0.11375,98.7263336181641
0.012165565, 249.716859778337, -0.000560156523463117, 0.12,108.738914489746
0.0128323133333333, 249.721437705946, -0.000680523977537883, 0.125,107.080879211426
0.01349896, 249.725436918719, -0.000596427701631402, 0.13375,106.058258056641
0.0141657266666667, 249.73007582929, -0.000680168495411803, 0.14,106.058258056641
0.0148328666666667, 249.734577031614, -0.00044117799966207, 0.145,106.917106628418
0.0154998166666667, 249.739249855436, -0.000602718385620116, 0.1525,107.824714660645
0.0161655233333333, 249.743515178867, -0.000760655952587677, 0.16,106.519599914551
0.0168325016666667, 249.748516093398, -0.000889042003903776, 0.165,107.775016784668
0.01749881, 249.752641035285, -0.000554264819386923, 0.17125,107.775016784668
0.0181674933333333, 249.757766855692, -0.000579808536374002, 0.17875,105.587608337402
0.0188326383333333, 249.762183438548, -0.000526462215908472, 0.185,103.343727111816
0.0194990833333333, 249.766580366031, -0.000428860618337107, 0.1925,101.754051208496
0.02016552, 249.771357376044, -0.000127719244365679, 0.19875,103.736885070801
0.020832315, 249.775809348029, -0.000322880441646373, 0.205,103.736885070801
0.0214994833333333, 249.780376285745, -9.13130730011003E-05, 0.2125,107.123161315918
0.0221656016666667, 249.784727402002, 0.000171278737293427, 0.21875,103.353172302246
0.0228327833333333, 249.789971009878, 4.78710003006299E-06, 0.225,100.724853515625
0.0234994016666667, 249.794451928727, -8.47719015095175E-05, 0.23125,101.462776184082
0.0241676216666667, 249.799597517748, -9.3651455528353E-05, 0.23875,101.462776184082
0.0248324783333333, 249.803998424228, -0.000280786555924444, 0.245,104.427864074707
0.0254990116666667, 249.80926052935, -0.000582457403295237, 0.25125,129.543228149414
0.0261656233333333, 249.813997663932, -0.000881318891833648, 0.2575,104.031463623047
0.0268329533333333, 249.818960970244, -0.00118245726597752, 0.26375,102.976509094238
0.0274990516666667, 249.823696450603, -0.00110511365086098, 0.27125,102.976509094238
0.0281656783333333, 249.829413225572, -0.00135739047927021, 0.2775,104.933776855469
0.0288324183333333, 249.834359140938, -0.00118410718311866, 0.285,100.620597839355
0.029499215, 249.839507838734, -0.00105796201922235, 0.29125,105.942115783691
0.03016552, 249.844627572874, -0.000599610541746468, 0.2975,104.688270568848
0.0308323833333333, 249.850338596714, -0.000498380626448507, 0.30375,104.688270568848
0.03149929, 249.855107143441, -0.000340357563789961, 0.31125,104.077781677246
0.03216555, 249.860762432736, -0.000461179495065185, 0.3175,103.599578857422
0.03283264, 249.865796749289, -0.000391534993228315, 0.32375,105.857444763184
0.0334990666666667, 249.870881947453, -0.000484342831599212, 0.33125,102.249473571777
0.034165995, 249.87627400065, -0.000377713187493089, 0.3375,102.249473571777
0.0348329083333333, 249.881211525546, -0.000167363753112006, 0.34375,105.25821685791
0.0354993583333333, 249.886131683934, -0.000199948116416953, 0.35,102.923004150391
0.0361661116666667, 249.890700004855, 6.56270440470068E-05, 0.3575,102.425964355469
0.0368326383333333, 249.896192354472, -2.96706692583807E-05, 0.36375,100.600135803223
0.0374990183333333, 249.900986530356, -5.38764534227047E-05, 0.37,100.600135803223
0.0381655933333333, 249.906419222501, 2.31828788459089E-07, 0.3775,102.01286315918
0.0388325216666667, 249.911288122845, -2.07551170751211E-05, 0.3825,99.4185791015625
0.0394989433333333, 249.916821844383, -0.000321998485948478, 0.39,104.144142150879
0.0401670416666667, 249.921170524, -0.000360651544430457, 0.3975,99.2460174560547
0.0408324516666667, 249.925953459452, -0.00038912311434154, 0.40375,99.2460174560547
0.0414990616666667, 249.930084892678, -0.000580533000030809, 0.40875,105.488945007324
0.0421656783333333, 249.934751841963, -0.000497201685655005, 0.4175,122.949882507324
0.042832865, 249.939743223842, -0.000431155503099173, 0.42375,102.659439086914
0.0434994433333333, 249.945240698669, -0.000588530598309242, 0.42875,106.317169189453
0.0441661733333333, 249.950096170907, -0.00061445229628845, 0.43625,106.317169189453
0.0448331516666667, 249.955426074642, -0.00054410582970333, 0.4425,102.986717224121
0.045499455, 249.960259650538, -0.000409556587972793, 0.44875,107.685562133789
0.0461656366666667, 249.964980355611, -0.000404143359866256, 0.455,106.830284118652
0.046832365, 249.969292863444, -0.000242896959112502, 0.4625,106.90185546875
0.0474995683333333, 249.974183142423, -0.000434134353452888, 0.46875,106.90185546875
0.0481674066666667, 249.97900278446, -0.000675731718304327, 0.475,104.361877441406
0.0488328316666667, 249.983678038418, -0.000916196639976258, 0.4825,104.822639465332
0.0494990733333333, 249.98829858792, -0.00089216934685843, 0.48875,109.418151855469
0.0501658416666667, 249.992833573135, -0.000662242895807879, 0.495,101.507179260254
0.0508325616666667, 249.996955180615, -0.000470905006532474, 0.50125,101.507179260254
0.0514991433333333, 250.000725087908, -0.000243418932911106, 0.50875,106.314010620117
0.0521660466666667, 250.005174586703, 0.000107440443756748, 0.515,100.936782836914
0.05283276, 250.009462138066, 0.000417578365871719, 0.52125,101.537162780762
0.053498895, 250.013935963643, 0.000399085794715839, 0.5275,107.137794494629
0.0541658316666667, 250.018590697487, 0.000437357872356882, 0.53375,107.137794494629
0.0548323983333333, 250.023316423452, 0.000413020094802563, 0.54125,103.861198425293
0.0554993016666667, 250.02813878957, 0.00023907983165612, 0.5475,105.331108093262
0.0561661266666667, 250.033033653553, -2.22835403608524E-05, 0.55375,106.932228088379
0.0568331716666667, 250.037973789914, -0.00016065609005417, 0.56125,103.354522705078
0.0575009066666667, 250.042016237839, -0.000190381596957663, 0.5675,103.354522705078
0.0581660916666667, 250.047350743694, -0.000266738261583072, 0.57375,124.290939331055
0.0588325133333333, 250.051137769994, -0.000129513154249533, 0.58,104.201728820801
0.05949985, 250.055794615393, -0.000304239377910807, 0.5875,102.422355651855
0.0601658716666667, 250.059988817775, -0.000313250925298384, 0.5925,106.000770568848
0.0608331916666667, 250.064611226065, -0.000121415060993573, 0.6,106.000770568848
0.06149906, 250.068633029378, 0.000330275251059721, 0.60625,104.993713378906
0.0621660283333333, 250.073518871804, 0.000225944991425111, 0.61375,106.088333129883
0.06283359, 250.077355186026, 0.000599045250991464, 0.62,102.372245788574
0.06349934, 250.081966493144, 0.000733934975604049, 0.62625,105.741424560547
0.064165585, 250.086781283931, 0.000496333410085527, 0.63375,105.741424560547
0.0648325633333333, 250.091069491851, 0.000251839690765061, 0.64,111.375366210938
0.0654991783333333, 250.095321802395, 0.000306225459033336, 0.64625,106.659156799316
0.0661662083333333, 250.09981640282, 0.000229328821473976, 0.65375,99.7039260864258
0.06683239, 250.104048467398, 0.000292930126869924, 0.66,101.880256652832
0.0674990866666667, 250.107554123375, 0.000654933943766852, 0.66625,101.880256652832
0.068165845, 250.111579169648, 0.000373302089824239, 0.6725,98.7468872070313
0.0688329516666667, 250.115713449823, 0.000731934076131291, 0.67875,110.279556274414
0.06949958, 250.119621992481, 0.000883193978486572, 0.68625,100.827323913574
0.0701669966666667, 250.123890190605, 0.000687926286594502, 0.6925,104.81623840332
0.0708323533333333, 250.128486261279, 0.000458452812820005, 0.69875,104.81623840332
0.0714989766666667, 250.132603376836, 0.000723432503168347, 0.70625,105.161804199219
0.0721655833333333, 250.136685065016, 0.000419925747966646, 0.7125,103.822868347168
0.0728323366666667, 250.141012441608, 0.000366901911290324, 0.71875,105.036231994629
0.0734995133333333, 250.144936974633, 0.000610936653679632, 0.725,99.4106292724609
0.07416561, 250.149554640037, 0.000486660395929844, 0.7325,99.4106292724609
0.07483301, 250.154109093362, 0.000389402281131841, 0.73875,122.898544311523
0.0754993183333333, 250.159369366371, 0.000283183616397227, 0.745,107.24382019043
0.0761659083333333, 250.164167862768, 0.000228430366586391, 0.7525,106.402435302734
0.076832225, 250.169150575222, 4.91908696093125E-05, 0.75875,105.922302246094
0.0774990883333333, 250.173993218646, 0.000385100497220658, 0.765,105.922302246094
0.078165685, 250.179513555356, 0.000408338829974848, 0.77125,106.612815856934
0.0788331983333333, 250.184454734729, 0.000674906940542543, 0.77875,103.472816467285
0.079499025, 250.189558730258, 0.000738859228270108, 0.785,113.199897766113
0.0801655616666667, 250.194881651172, 0.000975473843361253, 0.79125,109.588081359863
0.0808330116666667, 250.200235992932, 0.000834944401993476, 0.79875,109.588081359863
0.081499565, 250.205114790934, 0.00071705782330678, 0.805,105.482231140137
0.082166085, 250.209929510756, 0.000478272817221547, 0.81125,97.3343658447266
0.082832985, 250.21443104287, 0.000467618852378609, 0.8175,105.82942199707
0.08349957, 250.218947923696, 0.000573470035570663, 0.825,106.562156677246
0.0841661833333333, 250.223395833368, 0.000591172146438502, 0.83125,106.562156677246
0.0848331666666667, 250.228016175641, 0.000679109729421857, 0.8375,109.223419189453
0.0854993233333333, 250.2326975173, 0.000836510323368035, 0.84375,103.829544067383
0.0861655283333333, 250.23802226376, 0.00069150810668585, 0.85125,104.415603637695
0.0868329766666667, 250.242829731158, 0.000511203663212425, 0.8575,102.076515197754
0.087499905, 250.247691864794, 0.00057341453841025, 0.86375,102.076515197754
0.088165715, 250.252583095061, 0.000704237967306726, 0.87125,108.67667388916
0.08883267, 250.257483436485, 0.000570953162060676, 0.8775,101.844627380371
0.0894996116666667, 250.262374835453, 0.000604621970900465, 0.88375,103.947662353516
0.0901662633333333, 250.267545994732, 0.000238536858937125, 0.89125,109.392501831055
0.0908321933333333, 250.272958135813, -0.000207480738066614, 0.89875,109.392501831055
0.0914990583333333, 250.277754089691, -0.000159276159348124, 0.90375,126.80020904541
0.092165635, 250.282315730385, -6.79247478278388E-05, 0.91,104.615242004395
0.0928329366666667, 250.286695425388, 3.69454846557058E-05, 0.9175,105.02449798584
0.0934990366666667, 250.291063499287, 0.0002644435576723, 0.92375,107.640174865723
0.0941657683333333, 250.295342698049, 0.000639448721549602, 0.93,107.640174865723
0.094833245, 250.300031318494, 0.000480798690384224, 0.93875,103.522361755371
0.09549912, 250.304962363164, 0.000326063462548971, 0.94375,109.978713989258
0.0961655316666667, 250.309714143541, 0.000411560668124398, 0.95,105.203346252441
0.096832975, 250.314731591561, 0.000477516855216035, 0.95625,106.037887573242
0.0974995333333333, 250.319477236799, 0.000470501707591769, 0.96375,106.037887573242
0.0981655683333333, 250.324828097911, 0.000285838483037329, 0.97,100.350257873535
0.0988324116666667, 250.330049473909, 0.000475554953799016, 0.9775,101.193206787109
0.0994993183333333, 250.335523594364, 0.000437774851447258, 0.98375,98.5252380371094
0.100165831666667, 250.340982253213, 0.000238310370352233, 0.99,107.626998901367
0.10083293, 250.345831192212, 0.000398301334125411, 0.99625,107.626998901367
0.101499095, 250.35040259676, 0.000730617142250182, 1.00375,105.108383178711
0.10216557, 250.355005705211, 0.000572246097066317, 1.01,103.569862365723
0.102832616666667, 250.359991266996, 0.00047327206845343, 1.0175,102.047027587891
0.10349912, 250.364616449159, 0.00068962270137089, 1.02375,108.053276062012
0.104165838333333, 250.370180370702, 0.000336976914419944, 1.02875,108.053276062012
0.104832198333333, 250.375317774424, 0.000141661224904461, 1.03625,105.997512817383
0.10549909, 250.380716952921, 0.000349481786316568, 1.04375,104.073066711426
0.106165685, 250.38596407734, -6.20090449611932E-05, 1.05,101.055717468262
0.106832613333333, 250.391424972759, -0.00021662277885602, 1.0575,105.903366088867
0.107499588333333, 250.396240677408, -0.000193009464915999, 1.0625,105.903366088867
0.108165883333333, 250.401362364834, -0.000332725947108431, 1.06875,131.279983520508
0.10883236, 250.406202221445, -0.00062343984486432, 1.0775,104.628303527832
0.109499316666667, 250.411053967518, -0.000167414750499209, 1.0825,103.169075012207
0.110166035, 250.415409493987, -0.000147203265722146, 1.08875,104.523811340332
0.11083266, 250.420473202171, -0.000136505803050259, 1.09625,104.523811340332
0.111499405, 250.425474462054, -0.000181604037840758, 1.10375,104.005752563477
0.112166113333333, 250.430176160571, -0.000270419076748798, 1.10875,100.293159484863
0.11283282, 250.434897817061, -0.000200192604158447, 1.115,106.298545837402
0.113499231666667, 250.439586242126, -0.000165110866275739, 1.1225,110.018669128418
0.114165778333333, 250.444040672556, -2.61338469416382E-05, 1.13,110.018669128418
0.114833343333333, 250.448780318144, -0.000146919779988676, 1.13625,106.045845031738
0.115499341666667, 250.4538613674, 8.17992949782224E-06, 1.14125,108.669692993164
0.116166051666667, 250.458036848306, -0.000210152103896406, 1.14875,102.124702453613
0.116833318333333, 250.462592849644, -0.000386357253295596, 1.15625,104.853660583496
0.117498941666667, 250.466550709688, -0.000311503513134793, 1.16125,104.853660583496
0.11816619, 250.470124032626, -6.05436185641612E-05, 1.16875,98.6909255981445
0.118833641666667, 250.473915722731, -0.000110749096797917, 1.175,112.08553314209
0.119498961666667, 250.478184231662, -4.6250836481296E-05, 1.18125,104.132232666016
0.120165558333333, 250.482302240811, -2.08331131865988E-05, 1.1875,103.278091430664
0.120832866666667, 250.486528918071, -0.000181563539839361, 1.195,103.278091430664
0.121499575, 250.490953537154, -0.00028441337385416, 1.2025,106.930526733398
0.12216561, 250.495200000626, -0.00035090653396718, 1.2075,107.073783874512
0.122832301666667, 250.499504217546, -0.000353702393564951, 1.21375,104.371086120605
0.123498945, 250.503458689414, -0.000401656484886843, 1.2225,104.584136962891
0.124165505, 250.507970918728, -0.000493147389397885, 1.2275,104.584136962891
0.124832833333333, 250.511889904724, -0.000456784715841, 1.23375,125.610214233398
0.125498971666667, 250.516062562766, -0.000379949575182174, 1.2425,105.539207458496
0.126165631666667, 250.520307643576, -0.000759147028489221, 1.24875,102.383934020996
0.126833005, 250.524483678599, -0.000574831786438845, 1.255,104.788238525391
0.127499025, 250.527947845503, -0.000770208972854862, 1.26125,104.788238525391
0.128165768333333, 250.531612766151, -0.000703492323963249, 1.26625,108.757965087891
0.12883226, 250.534801704893, -0.000781663897456665, 1.275,105.544639587402
0.129499108333333, 250.538300979306, -0.000267401228296836, 1.28125,106.764823913574
0.130165521666667, 250.541761752729, -0.000550461010483892, 1.28625,101.463455200195
0.130832263333333, 250.545272935296, -0.000362773937843641, 1.29375,101.463455200195
0.131499268333333, 250.549052471035, -0.000526430717538512, 1.30125,106.642463684082
0.132166623333333, 250.552940536728, -0.000204107407531081, 1.30875,102.334197998047
0.13283234, 250.556017756365, -0.00021192351495672, 1.31375,106.003387451172
0.13349903, 250.559324729495, -0.000224924861937093, 1.32,98.177490234375
0.134165531666667, 250.563026568783, -0.000257810710068348, 1.32625,98.177490234375
0.134833033333333, 250.566701571371, -0.000278524669648028, 1.3325,105.405494689941
0.13549924, 250.570083357229, -0.000501798954801155, 1.34,101.449111938477
0.136165538333333, 250.573521472513, -0.000616925672097012, 1.3475,102.961898803711
0.136832395, 250.57701627479, -0.000100734099857037, 1.3525,105.265609741211
0.137499205, 250.580244104102, -0.000146231314602564, 1.35875,105.265609741211
0.138165835, 250.583736149313, -6.00426437709649E-05, 1.36625,105.092056274414
0.138832498333333, 250.5870153127, -6.69962944946977E-05, 1.3725,104.747138977051
0.139499075, 250.590744888987, -5.32989196152595E-06, 1.38,107.586456298828
0.140165668333333, 250.59476694622, -0.000323477411728902, 1.3875,118.923683166504
0.140832893333333, 250.598644614222, 4.48005900733211E-05, 1.39125,118.923683166504
0.141500543333333, 250.602421178054, 2.61865250195226E-05, 1.39875,105.821823120117
0.14216731, 250.606595907444, -2.40653876822396E-06, 1.40625,105.762901306152
0.142833785, 250.610714972824, -0.000334633851353203, 1.4125,107.017425537109
0.143500975, 250.614651133778, -0.00033455885513304, 1.42,105.966163635254
0.14416713, 250.61916266163, -0.00063134294796911, 1.42625,105.966163635254
0.14483382, 250.623246789216, -0.000829998969704509, 1.43125,107.357269287109
0.14550058, 250.627136102347, -0.00078567919582808, 1.43875,102.58723449707
0.14616621, 250.630800272378, -0.000589046572495249, 1.445,107.443618774414
0.146832793333333, 250.635158333, -0.000607549643100698, 1.45125,108.701210021973
0.147499156666667, 250.63834061504, -0.000613723333007213, 1.45875,108.701210021973
0.148166125, 250.64191555276, -0.000385238309563242, 1.465,104.414627075195
0.148832881666667, 250.645321811136, -0.000136966280012092, 1.47125,102.644592285156
0.149499163333333, 250.649581337435, -9.27754996343424E-05, 1.47875,103.974967956543
0.150165505, 250.652970384968, -0.000103892941202904, 1.485,106.017402648926
0.150832583333333, 250.656719550442, -1.15350802167461E-05, 1.49125,106.017402648926
0.151500471666667, 250.660285043868, 0.000105682532058573, 1.4975,104.096672058105
0.152167026666667, 250.664849878307, -0.00025991360446429, 1.5025,103.40104675293
0.153000526666667, 250.668758895745, -0.00024705025055027, 1.5125,108.51685333252
0.153667128333333, 250.672954756678, -0.000281832003488563, 1.52,103.324584960938
0.154333851666667, 250.677589940404, -0.000180495593536717, 1.52625,107.169639587402
0.15500048, 250.681886029642, -0.000257284236496534, 1.5325,107.169639587402
0.155667306666667, 250.685656813444, 2.86734001689684E-05, 1.53875,111.073883056641
0.156333556666667, 250.689514276106, -4.03486329342798E-05, 1.54625,105.205772399902
0.15699946, 250.693362990653, 0.000158733367374153, 1.5525,117.82373046875
0.157665578333333, 250.697039641202, 9.419010930418E-05, 1.55875,103.582244873047
0.158332336666667, 250.700913912175, -0.000132877485323663, 1.565,103.582244873047
0.159010911666667, 250.704851361458, -0.000126453308020551, 1.5725,103.36686706543
0.159665901666667, 250.708662205926, 3.02273220845385E-05, 1.57875,105.528198242188
0.16033273, 250.712706733018, -6.46579119461908E-05, 1.585,104.304832458496
