Time (min), Depth (µm), Load (N), Position (µm), Acoustic (aJ)
7.91E-06, 248.886521856757, -0.000264087642408537, 0,125.637138366699
0.000665555, 248.88560770143, 2.52388250192891E-05, 0,125.637138366699
0.00133026, 248.88406477168, -6.26882585144977E-05, 0.00374999999999998,104.934112548828
0.00199764833333333, 248.882515537877, -0.000525116531262329, 0.0125,99.4075012207031
0.00266360833333333, 248.880831985679, -0.000848320297064506, 0.02125,106.041595458984
0.00333008166666667, 248.880617577087, -0.00109663882427216, 0.02875,108.220268249512
0.00399740833333333, 248.881960178229, -0.00169714266159644, 0.03625,108.220268249512
0.00466466833333333, 248.885429938229, -0.00152771267185324, 0.0425,102.462776184082
0.00533012166666667, 248.889566616846, -0.00120234301478768, 0.05,111.105239868164
0.00599709666666667, 248.894904736307, -0.00109188256311801, 0.0575,106.158897399902
0.00666350833333333, 248.899083270066, -0.000895761414070451, 0.06375,96.5536499023438
0.00733011833333333, 248.902904674283, -0.000524039585264487, 0.07125,96.5536499023438
0.00799726166666667, 248.905908580535, -0.000667270390950121, 0.07875,106.253875732422
0.00866363, 248.908325704295, -0.000584779034431429, 0.08375,107.01188659668
0.00933007833333333, 248.910972839396, -0.000456214492090088, 0.09,100.231880187988
0.00999750166666667, 248.91450877663, -0.000690751711500147, 0.09875,102.261787414551
0.0106636966666667, 248.917973586413, -0.000960685653002613, 0.105,102.261787414551
0.01133016, 248.922818910362, -0.00150738269298455, 0.11125,106.145172119141
0.011997405, 248.928247611016, -0.00186111142554594, 0.1175,107.414665222168
0.01266375, 248.932310821977, -0.00182721012833863, 0.12375,106.60498046875
0.0133302283333333, 248.937052983985, -0.00176988000797792, 0.13125,103.661033630371
0.013996925, 248.941901587168, -0.00204368375512092, 0.1375,103.661033630371
0.014664215, 248.946493270085, -0.0012783156987446, 0.14375,105.035766601563
0.0153301416666667, 248.951028337046, -0.0011469807955841, 0.15,107.202438354492
0.0159969566666667, 248.956630653897, -0.00143211197373338, 0.1575,106.341110229492
0.0166638783333333, 248.961687159017, -0.00137255446525125, 0.16375,131.540161132813
0.0173303816666667, 248.966403903995, -0.00108079062024305, 0.17,131.540161132813
0.0179979083333333, 248.971360688772, -0.00147818515951352, 0.17625,105.682693481445
0.0186636316666667, 248.976312595812, -0.00172878807194865, 0.18375,107.934043884277
0.01933009, 248.980522990553, -0.00185044546124401, 0.19,105.981895446777
0.0199971416666667, 248.985005280652, -0.00191272083321243, 0.19625,101.610794067383
0.020663445, 248.990002518015, -0.00211865448938518, 0.2025,101.610794067383
0.0213302433333333, 248.994795882333, -0.0022206163679407, 0.21,101.716514587402
0.0219969883333333, 249.000066046349, -0.00183590369171021, 0.2175,98.9950256347656
0.0226635083333333, 249.005510015727, -0.00157545977354372, 0.22375,102.015190124512
0.0233301616666667, 249.011324971371, -0.00142892913363956, 0.23,110.00821685791
0.0239969816666667, 249.016800155801, -0.00150853163528999, 0.235,110.00821685791
0.0246638316666667, 249.022335592211, -0.00147006306753087, 0.24375,107.913467407227
0.025330475, 249.027454979783, -0.00157156296928518, 0.25,107.250755310059
0.025996975, 249.032723348862, -0.00170099446805913, 0.25625,102.070266723633
0.02666357, 249.038049344015, -0.00195481771878317, 0.2625,104.75146484375
0.027330895, 249.043461283105, -0.00183160040787462, 0.26875,104.75146484375
0.0279969533333333, 249.048630727479, -0.00177404379886525, 0.27625,108.124313354492
0.0286636866666667, 249.0538590369, -0.00179161841609505, 0.28375,103.589088439941
0.0293303183333333, 249.059085735495, -0.00163295188573998, 0.29,108.5732421875
0.0299972116666667, 249.063927820211, -0.00127989511939627, 0.29625,103.472457885742
0.0306636, 249.068856191101, -0.00106656233488827, 0.3025,103.472457885742
0.03133101, 249.073186059366, -0.000686682415892723, 0.30875,106.953269958496
0.0319983483333333, 249.078607359008, -0.000733256576551077, 0.31625,102.373039245605
0.0326664866666667, 249.084276071848, -0.000853495037105909, 0.3225,100.319122314453
0.0333308766666667, 249.089770317739, -0.000951776100559475, 0.32875,135.671051025391
0.0339979133333333, 249.095708693894, -0.00105456293766432, 0.335,135.671051025391
0.034665525, 249.101815936432, -0.00149095851796334, 0.34125,101.970779418945
0.0353301683333333, 249.10726100368, -0.00131578231685356, 0.34875,106.779251098633
0.0359976133333333, 249.112552705243, -0.00144904462323356, 0.355,108.464874267578
0.0366638383333333, 249.11789209083, -0.00123078008643748, 0.3625,106.105247497559
0.0373302133333333, 249.123138646676, -0.00145345590162619, 0.36875,106.105247497559
0.0379974816666667, 249.128314826894, -0.00131517484734272, 0.375,106.911170959473
0.0386637933333333, 249.13356230521, -0.00141193498721759, 0.38125,100.085388183594
0.03933022, 249.139037005325, -0.00120673779407562, 0.38875,106.947830200195
0.03999711, 249.144048004939, -0.00147680522887123, 0.395,102.919525146484
0.0406636166666667, 249.149167516912, -0.000955834896674822, 0.4,102.919525146484
0.04133034, 249.15442715824, -0.000871326141472429, 0.40875,101.888427734375
0.04199734, 249.159846867905, -0.000825512442635305, 0.415,103.838317871094
0.0426640116666667, 249.165393201712, -0.000446052502493926, 0.42,100.706985473633
0.0433301016666667, 249.170902127612, -0.000233504178618856, 0.42875,105.266792297363
0.043997485, 249.176911942414, -0.000302373219390464, 0.435,105.266792297363
0.0446638783333333, 249.18311884516, -0.000281471769260377, 0.44,108.803733825684
0.0453308616666667, 249.188489929931, -0.000152850229791712, 0.4475,111.208061218262
0.0459975516666667, 249.193658829705, -0.000182088261200384, 0.455,107.745384216309
0.0466644216666667, 249.199202617229, -0.000316268521442703, 0.46,106.207641601563
0.04733013, 249.203985113411, -0.000612043164985348, 0.46625,106.207641601563
0.0479969433333333, 249.208864595228, -0.000575645993145935, 0.47375,104.481971740723
0.04866419, 249.213508894154, -0.000484335079584538, 0.48,107.957733154297
0.0493315333333333, 249.218031626493, -0.000623762076324633, 0.48625,112.951942443848
0.0499986483333333, 249.222592917964, -0.000627649881079262, 0.4925,122.706336975098
0.050665015, 249.227290057515, -0.000358014424596806, 0.5,122.706336975098
0.0513318766666667, 249.23183030344, -0.000488392375817989, 0.50625,103.771957397461
0.0519989766666667, 249.236951975621, -0.00066349658055641, 0.5125,101.04337310791
0.0526654583333333, 249.241747650116, -0.00091430498269855, 0.52,107.218086242676
0.0533301383333333, 249.246575649651, -0.000837340848498536, 0.52625,101.169593811035
0.05399742, 249.250765152389, -0.00105884672252517, 0.5325,101.169593811035
0.0546636383333333, 249.2550414965, -0.000830301702126325, 0.53875,102.032241821289
0.055330785, 249.259474103038, -0.000848912767288809, 0.545,105.296119689941
0.055997035, 249.264294005042, -0.000682826109656832, 0.5525,104.704772949219
0.0566639933333333, 249.269161438115, -0.000659719770271383, 0.55875,101.153129577637
0.05733044, 249.273997926037, -0.000708603814872074, 0.565,101.153129577637
0.0579970166666667, 249.279501133502, -0.000762446610378845, 0.5725,105.882354736328
0.058663595, 249.284172558435, -0.000925599415367951, 0.57875,105.198364257813
0.0593307566666667, 249.289159759988, -0.00102499942261763, 0.585,103.641105651855
0.0599972083333333, 249.294103314563, -0.000858089306360744, 0.59,105.592483520508
0.0606635833333333, 249.298721211398, -0.00054516002446372, 0.5975,105.592483520508
0.0613304233333333, 249.303132960852, -0.000545481008349779, 0.605,103.398391723633
0.061996955, 249.308024122234, -0.000393294152521997, 0.61125,105.572296142578
0.062664295, 249.312629979485, -0.000153492197521323, 0.61875,103.827445983887
0.0633301116666667, 249.316862492583, -5.23162794593714E-05, 0.625,108.470550537109
0.063997645, 249.322083554217, 0.000227884646347485, 0.63125,108.470550537109
0.0646638933333333, 249.32679067405, 0.000307356654553575, 0.6375,105.394897460938
0.065330215, 249.33227401855, 0.000371038955803536, 0.645,106.989646911621
0.0659979466666667, 249.337381602549, 0.000223477867664312, 0.65125,100.2646484375
0.0666637533333333, 249.343236191045, 5.23109652070831E-05, 0.6575,128.246337890625
0.0673302666666667, 249.348369187259, -0.000305431565780059, 0.66375,128.246337890625
0.0679969683333333, 249.353432240336, -0.000230618323599398, 0.67,108.328536987305
0.0686636316666667, 249.358299304192, -0.000141182315860885, 0.6775,104.331771850586
0.0693307666666667, 249.363290432802, -0.000192983713914756, 0.68375,106.940849304199
0.069997005, 249.368029068426, -4.16269821310031E-06, 0.69125,102.244361877441
0.0706639766666667, 249.373243083693, -0.000108993932619652, 0.6975,102.244361877441
0.071330605, 249.378363005375, -9.11478290091002E-05, 0.70375,107.305152893066
0.0719975516666667, 249.38288523065, -1.1464331419643E-05, 0.71,109.959526062012
0.0726640083333333, 249.387945139085, 0.000120940018031661, 0.7175,104.667907714844
0.0733301, 249.392476432406, 0.00015804215446813, 0.7225,106.59854888916
0.0739973883333333, 249.397056675765, 0.000267074677850847, 0.73,106.59854888916
0.0746637383333333, 249.401739242879, 4.37073973634634E-05, 0.7375,107.711486816406
0.0753308583333333, 249.406906374665, -0.000106643550697173, 0.74375,99.5246887207031
0.07599717, 249.411917357783, -0.000189965865484049, 0.75,103.999122619629
0.0766640966666667, 249.417090998817, -0.000392467694027024, 0.75625,106.124481201172
0.0773301266666667, 249.422347334839, -0.00075287259125503, 0.76375,106.124481201172
0.0779976083333333, 249.427409706019, -0.000627321397549932, 0.77,108.165954589844
0.0786638916666667, 249.432813972176, -0.000683252088208612, 0.77625,99.0077743530273
0.079330395, 249.437661202772, -0.000428261896086295, 0.7825,102.408592224121
0.0799970416666667, 249.442942968226, -0.000468476376169622, 0.78875,107.983711242676
0.0806642083333333, 249.447971178867, -0.000154519645865079, 0.79625,107.983711242676
0.0813309266666667, 249.453188753191, -0.000239671868763995, 0.8025,105.197914123535
0.0819969283333333, 249.457448134531, -8.96149059501592E-05, 0.81,106.891227722168
0.0826641983333333, 249.462015664669, -0.000371141765184545, 0.81625,127.66072845459
0.08333018, 249.466560187877, -0.000551734194207158, 0.8225,104.392562866211
0.0839975116666667, 249.470869998743, -0.000578111869311227, 0.83,104.392562866211
0.08466397, 249.475332231653, -0.000400187806227092, 0.83625,101.383338928223
0.0853301233333333, 249.480081408803, -0.000478881353519112, 0.8425,106.096969604492
0.0859969616666667, 249.485011537718, -0.000569584797548411, 0.84875,103.398422241211
0.0866638283333333, 249.488838492693, -0.000384440097133001, 0.85625,103.00952911377
0.087330185, 249.493311017393, -0.000335113574769587, 0.8625,103.00952911377
0.0879976166666667, 249.497373032779, -0.00053451505906093, 0.86875,102.572593688965
0.0886640516666667, 249.501720590334, -0.000493963095944361, 0.875,105.230865478516
0.089330185, 249.505825105589, -0.000183541688117174, 0.8825,103.197647094727
0.0899976733333333, 249.510805933875, -0.000183790675653131, 0.88875,103.245803833008
0.090663705, 249.515807395998, -0.000454705567885361, 0.895,103.245803833008
0.091331795, 249.521257204414, -0.000576268461900811, 0.90375,106.046188354492
0.0919975666666667, 249.526004774068, -0.000807621341292656, 0.91,101.012351989746
0.0926644283333333, 249.530541633947, -0.000975560405881467, 0.915,115.538513183594
0.0933309083333333, 249.534711722717, -0.00133944662824455, 0.92125,108.710983276367
0.0939969416666667, 249.538336701923, -0.00110691930785367, 0.92875,108.710983276367
0.0946644133333333, 249.542165871494, -0.000847001863258993, 0.935,102.484085083008
0.0953301766666667, 249.546230231393, -0.000933979494475485, 0.94125,102.329254150391
0.0959969083333333, 249.550494669078, -0.00104081312834296, 0.94875,105.360801696777
0.0966641766666667, 249.554815322343, -0.0010330300192967, 0.95625,104.137062072754
0.0973301983333333, 249.559540248425, -0.000851776123442219, 0.9625,104.137062072754
0.09799688, 249.56379131404, -0.000914439975894844, 0.96875,103.091842651367
0.09866407, 249.567754050129, -0.000644831518051646, 0.975,103.439178466797
0.0993317466666667, 249.571577173764, -0.00057802037388012, 0.98125,125.352149963379
0.099998395, 249.575377100474, -0.000197669478473173, 0.9875,109.321968078613
0.100663676666667, 249.578913020247, -0.000499236831081396, 0.9975,109.321968078613
0.101330736666667, 249.582222561063, -0.000497222432246501, 1.00125,107.930244445801
0.101997808333333, 249.585320745287, -0.000320420312871052, 1.0075,104.986793518066
0.102664045, 249.588508828234, -0.000115751093182796, 1.015,104.422775268555
0.10333174, 249.592646671611, -0.000489451322637976, 1.0225,107.665916442871
0.103996976666667, 249.596545127298, -0.000696362929670423, 1.02875,107.665916442871
0.104663618333333, 249.600885961467, -0.000995941382137353, 1.035,109.130958557129
0.105330256666667, 249.605130939835, -0.00113390895217803, 1.04125,108.315704345703
0.105996936666667, 249.609083117241, -0.00135300594718795, 1.0475,102.845497131348
0.106663973333333, 249.612466744214, -0.00114293849865844, 1.05375,102.202133178711
0.107330741666667, 249.615972337937, -0.00106367348008377, 1.06125,102.202133178711
0.107997196666667, 249.618907581642, -0.00033882438848714, 1.06875,102.580741882324
0.10866427, 249.621857080074, -0.000415950514501453, 1.07375,107.755737304688
0.109330126666667, 249.625139016631, -0.000289452868349121, 1.08,106.176414489746
0.109997498333333, 249.628127875967, -7.76725058747893E-05, 1.0875,101.315040588379
0.110663678333333, 249.63112035707, 0.000201301481578916, 1.095,101.315040588379
0.1113302, 249.634689393886, -0.000361870730853951, 1.10125,106.707702636719
0.111996993333333, 249.638523358808, -9.86699511666841E-05, 1.1075,105.643409729004
0.112663718333333, 249.642244292146, -6.03003784394293E-05, 1.11375,108.645324707031
0.113330163333333, 249.645932621033, 8.76131920408314E-05, 1.12,104.008361816406
0.113997223333333, 249.649903949376, -2.70140503862332E-05, 1.1275,104.008361816406
0.114663505, 249.653309369975, 0.000301593943976062, 1.13375,104.389030456543
0.11533006, 249.657075191902, 2.83991662895599E-05, 1.14125,107.960151672363
0.115997013333333, 249.660637569131, 0.000122105459505534, 1.14625,121.134696960449
0.116664936666667, 249.664263638409, -5.89744450544084E-05, 1.1525,102.900657653809
0.117331775, 249.667659934413, 0.000157712170993143, 1.16,102.900657653809
0.117998558333333, 249.670882817552, 0.00028206342494184, 1.1675,101.167930603027
0.118665208333333, 249.674312544413, 0.000578801020121409, 1.17375,104.663276672363
0.119331803333333, 249.67832996596, 0.000290433004514789, 1.17875,104.772346496582
0.119998598333333, 249.681592705366, 0.000217647660467398, 1.18625,106.526901245117
0.120664963333333, 249.685451543225, -1.0009404557196E-05, 1.1925,106.526901245117
0.121331668333333, 249.688992049651, -0.000151449300165275, 1.2,103.260696411133
0.121998323333333, 249.692522589278, -0.000138785436239397, 1.20625,105.240989685059
0.122663733333333, 249.696052420686, -0.000245824559771372, 1.21375,106.044204711914
0.123330175, 249.699949013457, 3.15775065889075E-05, 1.22,102.242179870605
0.123997511666667, 249.70340067938, -0.000159146913499294, 1.225,102.242179870605
0.124663803333333, 249.707791296814, -2.48278258389415E-06, 1.2325,103.917633056641
0.12533018, 249.711634779272, -0.000367243461001601, 1.24,101.788284301758
0.125997535, 249.715476931607, -8.32582252877017E-05, 1.245,104.661659240723
0.126663548333333, 249.719493346533, -0.000519757300391801, 1.2525,109.824180603027
0.127331838333333, 249.723389516149, -0.000305367069009465, 1.25875,109.824180603027
0.12799913, 249.726601009896, -0.0004078269225944, 1.265,103.683448791504
0.12866408, 249.730075740203, -0.000148833431559657, 1.2725,107.765808105469
0.129330695, 249.733471512854, -9.48016455355674E-05, 1.28,108.917877197266
0.129997541666667, 249.736358594563, 0.00028060099837236, 1.28625,106.057426452637
0.13066386, 249.73993846568, 0.000569859969180786, 1.2925,106.057426452637
0.131331681666667, 249.743551999591, 0.000500828936573626, 1.2975,108.153175354004
0.131997696666667, 249.747348584078, 0.000779498439288453, 1.305,105.660835266113
0.132664021666667, 249.750804250299, 0.000588586528607337, 1.3125,127.873825073242
0.133331746666667, 249.755652245278, 0.000124008863870825, 1.31875,105.397499084473
0.133998606666667, 249.758520261649, -0.000306411016585419, 1.325,105.397499084473
0.134665145, 249.762351217004, -0.00019387466915907, 1.33125,107.123931884766
0.135497836666667, 249.765901097197, -0.000724380022423556, 1.34125,103.649993896484
0.136164218333333, 249.769591435497, -0.000569140819946301, 1.34625,101.891662597656
0.13683021, 249.772132943816, -0.00025416714074757, 1.3525,102.766105651855
0.137498553333333, 249.776166565697, -0.000274339627490149, 1.35875,107.121520996094
0.138164985, 249.779466079461, -0.00034604352593652, 1.36625,107.121520996094
0.13883174, 249.782682256763, -4.2241285584869E-05, 1.3725,101.195091247559
0.139498893333333, 249.785920572033, -0.000148870929648484, 1.37875,102.938575744629
0.140163888333333, 249.789404243355, -0.000408306898445951, 1.385,104.674812316895
0.140830438333333, 249.792777913838, -0.000375268057983055, 1.3925,109.163627624512
0.14149852, 249.796748291244, -0.000415032560639134, 1.4,109.163627624512
0.142164198333333, 249.800901539098, -0.000809232260399312, 1.405,104.56372833252
0.142831723333333, 249.804491469541, -0.000947232828798114, 1.41125,101.231430053711
0.14349695, 249.808557786439, -0.000580909228854655, 1.41875,101.290451049805
0.144163613333333, 249.811727046102, -0.00044357912677038, 1.425,108.787750244141
0.144830421666667, 249.815044855931, -0.000383708134045465, 1.43125,108.787750244141
0.145497163333333, 249.818480622812, -0.000389664334849745, 1.43875,109.36107635498
0.146164458333333, 249.821794704112, -0.000379295355664679, 1.445,103.730834960938
0.146830173333333, 249.825003788243, -0.000390972269120672, 1.45125,104.967041015625
0.147497603333333, 249.828865339147, -0.000472776660156402, 1.45875,104.906547546387
0.148163765, 249.832476531054, -0.000408024912551868, 1.465,104.906547546387
0.148830095, 249.835560186814, -0.000325695547868728, 1.47125,100.723167419434
0.14949745, 249.839464390973, -0.000513660106587344, 1.47875,126.491546630859
0.150163801666667, 249.842907268773, -0.000815671436882694, 1.485,104.11247253418
0.150830396666667, 249.846733963869, -0.0007912106654848, 1.49125,107.996055603027
0.151497021666667, 249.849791778651, -0.00103933720236883, 1.4975,107.996055603027
0.152163591666667, 249.854602835784, -0.000995629397776459, 1.50125,105.298545837402
0.152830413333333, 249.857750961277, -0.000903802510156578, 1.51,107.113212585449
0.153497001666667, 249.861563102754, -0.000664287040759435, 1.5175,111.114112854004
0.154163673333333, 249.864608178079, -0.000740522211571941, 1.52375,106.33374786377
0.15483016, 249.868470396485, -0.000590924225710519, 1.53125,106.33374786377
0.15549705, 249.870924269266, -0.000710640712488001, 1.5375,104.345565795898
0.15616409, 249.874541346287, -0.000541207722895987, 1.54375,105.497169494629
0.156830755, 249.877559212206, -0.000365326557231663, 1.55,104.34497833252
0.15749749, 249.881407149293, -0.000269221884469799, 1.5575,106.891387939453
0.15816437, 249.884763366014, -0.000318753896540221, 1.56375,106.891387939453
0.158830621666667, 249.888578336306, -0.000193223701776769, 1.57,101.724021911621
0.159497515, 249.89254212668, 3.72592212911531E-05, 1.57625,103.557205200195
0.160165258333333, 249.896345013709, 6.97490893799488E-05, 1.58375,104.59400177002
