Time (min), Depth (µm), Load (N), Position (µm), Acoustic (aJ)
8.53166666666667E-06, 249.453254873595, 9.52998029040571E-05, 0,102.114151000977
0.000665185, 249.453021245733, 4.48888349845468E-05, 0,107.258178710938
0.00133174333333333, 249.451534686265, -0.000162466749735026, 0.00374999999999998,107.258178710938
0.00199845, 249.448910404833, 6.82074712610912E-06, 0.0125,104.532234191895
0.00266519333333333, 249.447536936487, 7.15529956921464E-05, 0.02125,104.085151672363
0.00333185166666667, 249.447938184957, -0.000116908038131473, 0.02875,108.055061340332
0.0039984, 249.4493755145, -0.000219916864090509, 0.035,107.530220031738
0.00466542666666667, 249.453702387757, -0.000157606993860815, 0.0425,107.530220031738
0.005331825, 249.459876912053, -0.000175760582016543, 0.04875,104.703773498535
0.00599840166666667, 249.465751965063, 7.53103069599302E-05, 0.0575,106.22868347168
0.00666531333333333, 249.470927020748, 0.00044223087694341, 0.06375,107.534004211426
0.00733172166666667, 249.476173949409, 0.000569667475942215, 0.07125,103.664459228516
0.00799837666666667, 249.480957405699, 0.000632799304872418, 0.07875,103.664459228516
0.00866521666666667, 249.486138423511, 0.000537854073865559, 0.08375,105.80632019043
0.00933170666666667, 249.49094653475, 0.000497687591363135, 0.09,101.133415222168
0.009998385, 249.496223824266, 0.00043342031942587, 0.09875,108.901931762695
0.01066508, 249.500837582233, 0.000600540425162978, 0.105,103.718566894531
0.01133175, 249.50582474174, 0.000801237844330023, 0.11,103.718566894531
0.0119993766666667, 249.510749962001, 0.00120994031565328, 0.1175,103.870445251465
0.0126650933333333, 249.515992660565, 0.000932791736517155, 0.125,102.558715820313
0.0133317116666667, 249.520909444343, 0.000880259875130119, 0.13125,105.972984313965
0.0139984966666667, 249.525360524084, 0.000950004871902008, 0.1375,108.701919555664
0.0146650416666667, 249.530139553058, 0.00106815243747738, 0.1425,108.701919555664
0.0153319816666667, 249.536347998269, 0.00130881234936424, 0.15125,107.979301452637
0.0161651033333333, 249.54100107954, 0.00165872827349743, 0.15875,122.175247192383
0.01683214, 249.545536111823, 0.00162547494375985, 0.165,106.170013427734
0.017498395, 249.550759205537, 0.00141998376539234, 0.17125,110.454887390137
0.0181650366666667, 249.555685369708, 0.00085812398700361, 0.17875,106.211807250977
0.018831945, 249.560806209272, 0.000460028982909295, 0.185,106.211807250977
0.01949882, 249.565404376522, 0.000159594073416818, 0.1925,106.076156616211
0.0201651033333333, 249.570259634115, 5.77041912326455E-05, 0.1975,105.228302001953
0.0208317216666667, 249.574776156086, 4.34789057266729E-05, 0.20375,104.581115722656
0.0214984133333333, 249.579873571026, 6.78856798460498E-05, 0.2125,94.3873062133789
0.0221650333333333, 249.584246534828, 3.40938771626854E-05, 0.21875,94.3873062133789
0.0228320333333333, 249.589046118669, 0.0002759312299399, 0.225,108.920204162598
0.0234984933333333, 249.593110016708, 0.000513060319186379, 0.23125,103.441177368164
0.024165055, 249.597358190467, 0.000465895188228125, 0.23875,103.898529052734
0.0248318116666667, 249.600741045449, 0.000523780280703061, 0.24375,97.2710876464844
0.0254984883333333, 249.604147157985, 0.000627959047930433, 0.25,97.2710876464844
0.0261651416666667, 249.607534480179, 0.000251767443616359, 0.25875,103.510360717773
0.026832, 249.610935028287, -5.96829125852578E-05, 0.265,101.948944091797
0.02749928, 249.613929146068, 0.000133159401164171, 0.27125,106.262817382813
0.028165035, 249.617318145624, -3.69815528311965E-05, 0.2775,107.398971557617
0.0288317733333333, 249.620282340173, -0.000221907264198714, 0.28375,107.398971557617
0.029498775, 249.622792505062, -0.000125499606622375, 0.29125,102.343063354492
0.030165045, 249.625779621096, -7.24562708863029E-05, 0.2975,108.636878967285
0.0308320283333333, 249.629150929753, -0.000341508256712129, 0.30375,106.185836791992
0.0314984133333333, 249.632752809135, -0.00032239771661709, 0.31,103.585609436035
0.0321650733333333, 249.6364264471, 0.000144812315872221, 0.3175,103.585609436035
0.032831825, 249.640899699403, 0.000325817224169492, 0.32375,124.739784240723
0.0334985016666667, 249.645767213261, 0.000380634970729667, 0.33,109.64958190918
0.03416504, 249.650693594621, 0.000381222941223268, 0.33625,109.839820861816
0.0348317133333333, 249.656074090657, 0.000314278303801106, 0.34375,109.689720153809
0.03549867, 249.661777292139, 5.02480657913132E-05, 0.35,109.689720153809
0.0361650816666667, 249.667541836774, -0.000260921804461878, 0.3575,107.202110290527
0.0368317833333333, 249.673633945306, -0.000684809513015467, 0.3625,101.852272033691
0.0375007783333333, 249.679134978624, -0.000488790358848586, 0.37,107.417358398438
0.0381659816666667, 249.684537792483, -0.000546640953083501, 0.3775,108.483894348145
0.0388323733333333, 249.690458398, -0.000905089948549593, 0.38375,108.483894348145
0.0394984016666667, 249.695651134378, -0.000964641457334106, 0.38875,103.859962463379
0.0401651633333333, 249.701145428974, -0.00048256717141551, 0.39625,106.274604797363
0.0408327083333333, 249.706674099118, -0.000764996985289436, 0.40375,105.549095153809
0.0414984866666667, 249.712251678695, -0.000604263558766612, 0.40875,107.561820983887
0.0421658233333333, 249.717393658968, -0.000528937342355021, 0.41625,107.561820983887
0.0428319433333333, 249.723087777366, -0.000588052373095677, 0.4225,100.248123168945
0.0434984866666667, 249.728045759415, -0.000570165771504983, 0.42875,100.952201843262
0.044165105, 249.733617756025, -0.000268116943078298, 0.43625,103.551170349121
0.0448319233333333, 249.738929628583, -0.00014958989656514, 0.4425,102.410514831543
0.0454984633333333, 249.744857551216, -1.48591639180467E-05, 0.44875,102.410514831543
0.0461651083333333, 249.74993118112, 8.74596967304744E-05, 0.455,103.817535400391
0.0468319083333333, 249.755925665724, -0.000188737930142702, 0.4625,104.898445129395
0.0474984133333333, 249.761087931741, -0.000394989570352699, 0.46875,102.695373535156
0.0481650333333333, 249.766031350423, -0.000678023853846153, 0.475,125.819976806641
0.04883195, 249.770852042623, -0.000555121527104799, 0.48125,125.819976806641
0.0494984216666667, 249.776090023768, -0.000414397095585853, 0.48875,107.267539978027
0.05016523, 249.78137958021, -0.000248928406893035, 0.495,105.455337524414
0.0508317516666667, 249.786197570162, 9.05855396544538E-05, 0.50125,104.55867767334
0.051498655, 249.790786738838, 0.000381390932798942, 0.5075,100.326187133789
0.0521658366666667, 249.795726982084, 0.000360364988922131, 0.51375,100.326187133789
0.05283189, 249.801005840794, 0.000248926586371507, 0.52125,102.536849975586
0.053498405, 249.805804692425, 0.000234614305250145, 0.5275,101.446250915527
0.0541651716666667, 249.811324960656, -0.000219916864111763, 0.53375,110.243873596191
0.0548317666666667, 249.816360167518, -0.000379417352583822, 0.54125,97.8946075439453
0.0554983716666667, 249.821546243356, -0.000652042158912069, 0.5475,97.8946075439453
0.05616504, 249.826355801114, -0.000620654735472209, 0.55375,101.012153625488
0.0568317383333333, 249.830994930773, -0.000707006898063763, 0.56,103.860580444336
0.057498705, 249.835459872483, -0.000381956725002365, 0.5675,104.095664978027
0.0581650716666667, 249.840387724541, -0.000170572342613002, 0.57375,107.64966583252
0.058832225, 249.845413109, 0.000146933209424763, 0.58,107.64966583252
0.0594988783333333, 249.850427780762, 2.41696829174247E-06, 0.58625,106.324737548828
0.0601650333333333, 249.855206685569, 2.92176221200385E-05, 0.59125,104.290176391602
0.0608319116666667, 249.859908632017, 8.32599076149507E-05, 0.59875,105.275268554688
0.061499805, 249.865179698489, -0.000218727423847439, 0.60625,102.507987976074
0.0621650183333333, 249.869307703609, -0.000240236343467115, 0.61375,102.507987976074
0.0628323216666667, 249.874152762827, 1.51438290425573E-05, 0.62,104.631767272949
0.0634986916666667, 249.878411006321, 9.39813691197984E-05, 0.62625,106.826385498047
0.0641652733333333, 249.883399648708, 0.000275166268387968, 0.6325,103.796630859375
0.0648317683333333, 249.887897071866, 0.000508242561174205, 0.64,127.741477966309
0.0654984016666667, 249.892938373244, 0.000554351745182532, 0.64625,127.741477966309
0.0661650616666667, 249.897945480553, 0.000693637748986213, 0.6525,109.771415710449
0.0668319766666667, 249.903284144412, 0.000722119818389373, 0.66,107.06763458252
0.067498545, 249.908528335097, 0.000426858149077658, 0.66625,108.328727722168
0.068165025, 249.913520543655, 0.000417455121420832, 0.6725,106.658554077148
0.0688317533333333, 249.91888521449, 0.00052191737436042, 0.67875,106.658554077148
0.06949843, 249.92377214643, 0.000675932638312076, 0.685,109.728309631348
0.0701650733333333, 249.92902519792, 0.000749415447334506, 0.6925,101.225044250488
0.0708319433333333, 249.93371027069, 0.000784629178628462, 0.69875,103.708564758301
0.0714984066666667, 249.939483784964, 0.000874083185438561, 0.705,103.006958007813
0.07216507, 249.944117702877, 0.000794108702493617, 0.7125,103.006958007813
0.0728317116666667, 249.949849518281, 0.000517864577942686, 0.71875,105.388961791992
0.07349837, 249.954693327025, 0.000489273014079343, 0.725,102.88069152832
0.07416529, 249.960626537135, 0.000610988900405179, 0.73125,105.239265441895
0.07483195, 249.96579664895, 0.000782245798347858, 0.73875,102.006370544434
0.0754987566666667, 249.971517333543, 0.000846834054149928, 0.745,102.006370544434
0.0761651933333333, 249.97600216372, 0.00109977984894929, 0.75125,103.74942779541
0.076831765, 249.98178118249, 0.000940196864656302, 0.75875,106.584579467773
0.0774985816666667, 249.986643103572, 0.000755491642218571, 0.76375,107.734596252441
0.0781650833333333, 249.991734558271, 0.000664648705198515, 0.77,102.81623840332
0.0788319016666667, 249.996556123668, 0.000813510228029159, 0.77875,102.81623840332
0.079498435, 250.00148819946, 0.000655988140206317, 0.785,110.466133117676
0.08016506, 250.006364097519, 0.000672220324861406, 0.79125,105.107757568359
0.0808318883333333, 250.010743121608, 0.00109803543661325, 0.79875,104.623741149902
0.0814983666666667, 250.015640091245, 0.000999767872479311, 0.805,123.888732910156
0.0821656083333333, 250.020324739122, 0.000864320175882444, 0.81125,123.888732910156
0.0828317483333333, 250.025267465231, 0.000873120233844144, 0.8175,106.928604125977
0.0834984, 250.030086040075, 0.00120580652331777, 0.825,106.358497619629
0.08416506, 250.035190899643, 0.000800663373219813, 0.83125,101.006240844727
0.0848317733333333, 250.039938869253, 0.000779175452541782, 0.8375,104.377021789551
0.08549863, 250.044990985395, 0.000419489019230461, 0.84375,104.377021789551
0.0861651033333333, 250.049954456878, 0.000411480921502459, 0.85125,102.358215332031
0.0868321566666667, 250.054923397265, 0.000151007004847905, 0.8575,103.997055053711
0.087498585, 250.060356508588, 0.000182406427682991, 0.86375,108.288619995117
0.0881653033333333, 250.064951428635, 7.18079829044626E-05, 0.87125,107.485885620117
0.0888322883333333, 250.070460583182, 0.000237138678488419, 0.8775,107.485885620117
0.089498365, 250.075300707042, 0.000151473481379827, 0.88375,102.857696533203
0.090165305, 250.080053460729, 7.55217963645519E-05, 0.89,108.583206176758
0.0908317016666667, 250.084314405499, 0.000202677909478693, 0.8975,106.163711547852
0.0914985116666667, 250.089389775155, 8.97275828532822E-05, 0.90375,103.435287475586
0.0921650933333333, 250.09389123067, 0.000129595580356949, 0.91125,103.435287475586
0.0928321233333333, 250.099169121005, 0.000111864970904194, 0.91625,104.332397460938
0.0934983633333333, 250.103935065255, 0.000392878855886395, 0.92375,104.879219055176
0.09416517, 250.109542589976, 0.000199916548163451, 0.93,104.617820739746
0.0948317516666667, 250.114352789278, 0.000153591375041055, 0.9375,108.163833618164
0.095498335, 250.119600948351, 0.000274971278279307, 0.945,108.163833618164
0.0961657033333333, 250.124624829418, 0.000297108666351473, 0.95125,101.126518249512
0.09683171, 250.130261387179, 0.000162862409371649, 0.95625,103.803321838379
0.0974983783333333, 250.135023909293, 0.000702307313631101, 0.9625,104.860641479492
0.09816529, 250.14015599169, 0.00101843743477854, 0.97,124.639427185059
0.098831825, 250.144989297266, 0.00127718343820173, 0.9775,124.639427185059
0.0994983833333333, 250.150183011638, 0.00140980827660407, 0.98375,108.631965637207
0.100165651666667, 250.155161638528, 0.00143687441709425, 0.99,100.993049621582
0.100831715, 250.160443079725, 0.00139730490463185, 0.99625,103.810340881348
0.101498428333333, 250.165511460934, 0.00142801586203832, 1.00375,107.995536804199
0.102165431666667, 250.170537168113, 0.00101226674467832, 1.01,107.995536804199
0.102831761666667, 250.175617593645, 0.000994908116583846, 1.0175,112.68741607666
0.103498481666667, 250.180042173568, 0.00123840288610296, 1.02375,104.473434448242
0.104165286666667, 250.184422030835, 0.000745286154835969, 1.02875,103.553802490234
0.104833, 250.188957876472, 0.000597771564331991, 1.03625,107.931060791016
0.10549865, 250.193497215389, 0.000632484320790243, 1.04375,107.931060791016
0.106165063333333, 250.197591185779, 0.00057429774344649, 1.05,107.397300720215
0.10683268, 250.201815643816, 0.000370184995818112, 1.055,105.403938293457
0.10749865, 250.206366759779, 0.000177849656644509, 1.06375,105.515548706055
0.108165985, 250.210043016547, 0.000464243771375122, 1.06875,104.288192749023
0.108832238333333, 250.214333409296, 0.000321315950461454, 1.075,104.288192749023
0.109498411666667, 250.218212986323, 0.00063887399983208, 1.0825,105.681205749512
0.110165406666667, 250.222253663829, 0.000689560953884298, 1.09,101.338882446289
0.110831808333333, 250.225587393956, 0.0011102763218149, 1.0975,104.943252563477
0.11149847, 250.230224761148, 0.000982410744373, 1.10125,106.316207885742
0.112165121666667, 250.233532750417, 0.00100781646827247, 1.10875,106.316207885742
0.112831798333333, 250.23780855012, 0.00067805053205832, 1.115,108.145774841309
0.113498475, 250.241498224648, 0.000637557065972224, 1.1225,102.937484741211
0.114165635, 250.245224301722, 0.000468977533556951, 1.12875,101.663566589355
0.114831995, 250.248707480277, 0.000471294917142558, 1.135,123.999580383301
0.1154984, 250.252008404338, 0.00122559352948872, 1.14125,123.999580383301
0.116165111666667, 250.254342136302, 0.00142470702820962, 1.14875,105.83243560791
0.11683172, 250.257994547802, 0.00141401406531094, 1.15625,102.781341552734
0.117498906666667, 250.261017734745, 0.00158090468252933, 1.1625,107.305541992188
0.118165063333333, 250.264238140505, 0.00136083573633607, 1.1675,104.253707885742
0.118831731666667, 250.267013780802, 0.000616979599449479, 1.17375,104.253707885742
0.11949951, 250.270437360154, 0.000696483106089292, 1.18125,108.227493286133
0.120165065, 250.273089229106, 0.000775353644545913, 1.18875,106.01309967041
0.120832443333333, 250.276441959138, 0.000612977800525219, 1.195,103.998260498047
0.121498748333333, 250.278684896609, 0.00118947084387886, 1.20125,105.626419067383
0.12216519, 250.282055854728, 0.00159210462002509, 1.2075,105.626419067383
0.122831758333333, 250.284981017085, 0.00119055078961924, 1.21375,104.704193115234
0.123498648333333, 250.287685379166, 0.00109875990014253, 1.22125,103.315353393555
0.124165543333333, 250.290149775089, 0.00110289069267174, 1.22875,101.795562744141
0.124831876666667, 250.293200659483, 0.0006363256277821, 1.23375,107.27815246582
0.125499043333333, 250.296193073936, 0.00046599868311822, 1.24,107.27815246582
0.126165575, 250.298188197758, 0.000748768979874194, 1.2475,101.527839660645
0.126831705, 250.301052314537, 0.000897047032048208, 1.255,106.713859558105
0.127498558333333, 250.303573484063, 0.000954617140355952, 1.26,104.671669006348
0.128165083333333, 250.306297139531, 0.00111124677303133, 1.26625,106.518714904785
0.128831841666667, 250.30889503242, 0.00100540758921325, 1.27375,106.518714904785
0.12949846, 250.31175162809, 0.00109279769968314, 1.28125,102.629364013672
0.130165078333333, 250.314374310325, 0.00081279626386443, 1.28625,103.391914367676
0.130832205, 250.31760082201, 0.000573259795546894, 1.29375,126.65357208252
0.131498635, 250.320546889994, 0.000555326696278445, 1.30125,107.0166015625
0.132165808333333, 250.323610453579, 0.000526697634305021, 1.3075,107.0166015625
0.13283187, 250.326954280278, 0.000206181733458564, 1.3125,105.02237701416
0.133498386666667, 250.329862623377, 0.000280631993912383, 1.32,99.3576126098633
0.134165321666667, 250.333011196542, 0.000523871776240438, 1.32625,108.164367675781
0.134831716666667, 250.336196704978, 0.000275623745500995, 1.33375,111.278755187988
0.135498573333333, 250.339583197618, 0.000351792919639758, 1.34,111.278755187988
0.136165265, 250.342747886259, 0.000374794264316979, 1.34625,103.191802978516
0.136832018333333, 250.346041335928, 0.000336207202466236, 1.3525,110.028091430664
0.137498328333333, 250.349345768759, 0.000348755572170555, 1.36,105.411193847656
0.13816531, 250.352680461528, 0.000346334693716106, 1.36625,102.682388305664
0.138831963333333, 250.355447074284, 0.000554471739198555, 1.3725,102.682388305664
0.139498721666667, 250.359315765803, 0.00079787201343776, 1.37875,109.108604431152
0.140165063333333, 250.363193968286, 0.000474195771363541, 1.385,103.820198059082
0.140831705, 250.367281963403, 0.000576963109472398, 1.3925,104.125907897949
0.141498408333333, 250.371458032553, 0.000659326972438067, 1.39875,104.62198638916
0.142165271666667, 250.376372213788, 0.000419082539653416, 1.405,104.62198638916
0.142832113333333, 250.380386279156, 0.000318179607896619, 1.4125,105.556488037109
0.143498398333333, 250.384481721517, 0.000535740680020049, 1.41875,108.087356567383
0.1441653, 250.388362336309, 0.000699359961604838, 1.425,105.205421447754
0.14483167, 250.392016223444, 0.000992880218386813, 1.43125,105.394760131836
0.145498971666667, 250.395717042272, 0.000833153241308609, 1.4375,105.394760131836
0.146165498333333, 250.399516687948, 0.000907158024150897, 1.445,103.652648925781
0.146832223333333, 250.403868016498, 0.000996534034892026, 1.45125,101.002571105957
0.147498728333333, 250.407916304885, 0.000895272621096581, 1.4575,120.711067199707
0.148165316666667, 250.412975898228, 0.00078464567775439, 1.465,106.298439025879
0.148831725, 250.41696781053, 0.000782229299136914, 1.47125,106.298439025879
0.14949911, 250.422165649871, 0.00088801448563397, 1.4775,102.502593994141
0.150165103333333, 250.426131125312, 0.000801783816961588, 1.48375,104.087440490723
0.150831715, 250.430549214015, 0.000544614234341271, 1.49125,102.185302734375
0.151498436666667, 250.433888275147, 0.000663498262947421, 1.4975,101.867958068848
0.152165076666667, 250.438775600436, 0.000573439786475285, 1.50125,101.867958068848
0.152831885, 250.442573592123, 0.000265016278272049, 1.51,105.048477172852
0.153498425, 250.446774220454, 0.00053679962686129, 1.5175,105.737411499023
0.15416506, 250.451403979751, 0.000444951740257256, 1.52375,102.26481628418
0.154832018333333, 250.456178889579, -3.26782688893398E-05, 1.53,103.453414916992
0.155498366666667, 250.459973985923, 0.000221957940988792, 1.5375,103.453414916992
0.156165713333333, 250.464030722207, 0.000377117647451421, 1.54375,101.210868835449
0.156831718333333, 250.4685805573, 4.27739411933795E-05, 1.55,104.575019836426
0.157498386666667, 250.471756849989, 0.00015045353257307, 1.5575,102.66690826416
0.158165051666667, 250.475522663442, 0.000347834618331905, 1.56375,102.14022064209
0.158831705, 250.479012428742, 0.00039610219391784, 1.57,102.14022064209
0.159499401666667, 250.48239356948, 0.000405865203537719, 1.57625,105.933464050293
0.160165013333333, 250.485395472879, 0.000744495694462911, 1.58375,102.075073242188
0.160832305, 250.488866018762, 0.00105009784437477, 1.59,106.496543884277
0.161498566666667, 250.492010704372, 0.00116363164165681, 1.59625,106.352104187012
