Time (min), Depth (µm), Load (N), Position (µm), Acoustic (aJ)
8.97333333333333E-06, 249.494617825062, 0.000151529169338461, 0,100.207214355469
0.000664888333333333, 249.494291256811, 0.000198620803937193, 0,106.07723236084
0.00133197166666667, 249.49203191066, 4.28041304584131E-05, 0.00374999999999998,106.631164550781
0.00199837166666667, 249.488598814343, 0.000162970594599381, 0.0125,105.102546691895
0.002665485, 249.485919801948, 9.15426823494794E-05, 0.02125,105.304084777832
0.00333204833333333, 249.485563801581, 0.000111328188553509, 0.02875,105.304084777832
0.00399983, 249.485897904882, 0.0003672333347531, 0.035,104.454582214355
0.00466550833333333, 249.489476520493, 0.000831149532700251, 0.0425,104.742233276367
0.00534256833333333, 249.49529811745, 0.000894012875141017, 0.05,105.411041259766
0.005999305, 249.501005847005, 0.000934389347059897, 0.0575,109.08780670166
0.00666470166666667, 249.506240597557, 0.00100866261641288, 0.06375,109.08780670166
0.00733219166666667, 249.511547146251, 0.00069666028792459, 0.07,103.255020141602
0.007998175, 249.516752090317, 0.000525578881179601, 0.07875,103.330177307129
0.00866511166666667, 249.521954228169, 0.000304573982009923, 0.08625,100.462478637695
0.00949867833333333, 249.526561541335, 0.000392879046535839, 0.0925,104.320175170898
0.0101653983333333, 249.530801919374, 0.000449886683107344, 0.09875,109.160446166992
0.0108314083333333, 249.534873305368, 0.000515925366062414, 0.105,109.160446166992
0.011499025, 249.538335071657, 0.000482339053064804, 0.1125,102.134483337402
0.0121657183333333, 249.542252000838, 0.000349637718517893, 0.12,112.158752441406
0.012831575, 249.545773215264, 0.000379315227819227, 0.12625,104.470840454102
0.0134986933333333, 249.549834360225, 0.000423665000162468, 0.1325,123.414520263672
0.0141647316666667, 249.55398668563, 0.000250948675541624, 0.13875,123.414520263672
0.01483153, 249.558170881813, 0.000113314088782234, 0.145,101.487518310547
0.0154988366666667, 249.562003181338, 0.000673688941735434, 0.15125,100.443588256836
0.0161658083333333, 249.566425152334, 0.000581811056664589, 0.15875,103.186454772949
0.016831975, 249.570946865626, 0.000698878676478328, 0.16625,107.916259765625
0.0174982933333333, 249.575284151107, 0.00101444932571708, 0.17125,107.916259765625
0.0181658, 249.579840388334, 0.000948850120697181, 0.1775,102.327445983887
0.0188319616666667, 249.58499580084, 0.000509198203966082, 0.18375,106.150230407715
0.019498205, 249.590553360503, 0.000376117388460129, 0.19375,104.069190979004
0.0201654116666667, 249.595490693557, 9.84708343583568E-05, 0.19875,100.088081359863
0.0208321133333333, 249.600312385012, -6.5698919588699E-05, 0.20375,100.088081359863
0.0214981316666667, 249.605085702607, 2.74539014374561E-05, 0.21125,106.72200012207
0.022165845, 249.609246809364, 9.6978409300812E-05, 0.21875,103.78345489502
0.022833235, 249.613880694257, -1.48019760775168E-05, 0.225,100.549446105957
0.0234985433333333, 249.61824925537, -0.000146009385684988, 0.23125,98.5064697265625
0.024164765, 249.623521259431, -0.000150075681443606, 0.23875,98.5064697265625
0.0248315233333333, 249.628368974452, 7.75389094566618E-06, 0.24375,100.68497467041
0.02549827, 249.633337339255, 0.000205656950481851, 0.25125,103.398773193359
0.026164795, 249.637836637721, 0.00022677888952047, 0.2575,99.6005477905273
0.02683206, 249.642979671302, 0.000416934838174821, 0.265,99.6005477905273
0.02749809, 249.646972663555, 0.000832310474294643, 0.27125,110.099761962891
0.028165625, 249.651960734288, 0.00081937212416046, 0.2775,104.898559570313
0.0288314466666667, 249.656955018656, 0.000475889376983074, 0.28375,105.10228729248
0.0294986466666667, 249.661904261621, 0.000959291096211095, 0.29125,124.414474487305
0.030165885, 249.666899264951, 0.000733223951330257, 0.2975,106.086822509766
0.03083145, 249.672816873742, 0.000357269335178168, 0.30375,106.086822509766
0.031498115, 249.678029571806, 0.000242978075859942, 0.31,106.208961486816
0.0321655, 249.683093883313, 0.000448470754173111, 0.3175,110.21460723877
0.032831605, 249.688127902819, 0.000334086499563137, 0.32375,108.667808532715
0.033498475, 249.693151010832, 0.000489285204102758, 0.33125,102.906806945801
0.03416558, 249.698027734655, 0.000658779690552798, 0.3375,102.906806945801
0.0348314916666667, 249.703543548841, 0.00086974409406674, 0.3425,102.246284484863
0.0354991333333333, 249.709037077135, 0.000798080693621765, 0.35,109.222183227539
0.03616556, 249.714589448315, 0.00068275448635902, 0.3575,112.25316619873
0.0368328266666667, 249.720262923203, 0.000515325396152332, 0.36375,110.515693664551
0.0374987316666667, 249.725519328255, 0.000265206959320706, 0.37,110.515693664551
0.0381647616666667, 249.730887315697, 0.000210789692618709, 0.3775,99.9826965332031
0.038831525, 249.736129804849, 4.93663007428627E-05, 0.3825,104.576332092285
0.0394980983333333, 249.741547651277, -0.000176918333197701, 0.39,104.700019836426
0.0401653616666667, 249.746998900365, -0.000341577062585235, 0.39625,104.408683776855
0.0408314616666667, 249.752839075759, -0.000242949516552009, 0.40375,104.408683776855
0.0414983133333333, 249.758324458122, -0.000498646173132023, 0.40875,99.4210433959961
0.0421657966666667, 249.763977330694, -0.000407204766126288, 0.41625,105.110107421875
0.0428316, 249.769414157121, -0.000109331727982166, 0.42125,105.373580932617
0.0434982233333333, 249.774531796888, 8.00952573059304E-05, 0.42875,105.373580932617
0.0441652066666667, 249.779382523125, -3.11016574157688E-05, 0.43625,105.627281188965
0.0448315116666667, 249.784064493549, 0.000187050385028815, 0.44125,98.1498336791992
0.0454982666666667, 249.789021981822, 0.000277111861328503, 0.44875,101.793930053711
0.04616702, 249.793128010044, 0.00030993471267733, 0.45625,132.428512573242
0.0468315316666667, 249.798701106683, 0.000443551001280262, 0.46125,110.734817504883
0.0475001833333333, 249.804016332422, 0.000632408015167595, 0.46875,110.734817504883
0.0481662566666667, 249.809298491638, 0.000460327658600004, 0.47625,105.999771118164
0.048833085, 249.81504758432, 0.000572498024386942, 0.48125,102.802261352539
0.049499405, 249.820914361045, 0.000402354070564022, 0.4875,106.212867736816
0.0501664433333333, 249.825681060129, 0.000499117210223933, 0.495,101.638084411621
0.0508330633333333, 249.830593746183, 0.000392472566873777, 0.50125,101.638084411621
0.0514997, 249.835725669499, 0.000128542823820257, 0.5075,105.104011535645
0.0521665366666667, 249.840491701648, -0.000408811185459735, 0.51375,106.766143798828
0.0528329733333333, 249.845536216081, -0.000596777244124009, 0.52125,103.512092590332
0.0535003416666667, 249.850904724957, -0.00111190086999758, 0.5275,104.36302947998
0.05416549, 249.856020889639, -0.00124483019307504, 0.53375,104.36302947998
0.0548314183333333, 249.860392636101, -0.000911782421777716, 0.54125,105.561744689941
0.05550037, 249.865291238081, -0.000646123265547173, 0.5475,107.131988525391
0.0561648666666667, 249.869808146597, -0.000498901160365593, 0.55375,103.346794128418
0.0568323883333333, 249.873929860453, -0.00040032311181642, 0.56,104.844146728516
0.05749837, 249.877770762566, 2.65824451678764E-05, 0.5675,104.844146728516
0.0581647716666667, 249.882734430242, 2.99647752923375E-05, 0.57375,102.434776306152
0.0588315, 249.887049621516, -8.59314033711701E-05, 0.58,105.543449401855
0.05949824, 249.891976531599, 2.10217481650216E-06, 0.58625,104.810348510742
0.0601655566666667, 249.896778751151, 0.000195584956371139, 0.5925,102.483833312988
0.0608314966666667, 249.902621604565, 3.24741492440698E-05, 0.59875,102.483833312988
0.0614981433333333, 249.907499205577, 0.000276969368488939, 0.60625,104.823173522949
0.0621647333333333, 249.912483371993, 0.000633879441262241, 0.61375,107.852470397949
0.0628318266666667, 249.917433999205, 0.000865091327738924, 0.62,128.295684814453
0.063499075, 249.922544286888, 0.00118002300907562, 0.62625,102.999900817871
0.0641656316666667, 249.927317371871, 0.00102959856471922, 0.6325,104.778884887695
0.064831425, 249.93282500624, 0.000742427489020196, 0.64,104.778884887695
0.0654980833333333, 249.93785270313, 0.000641137576703597, 0.64625,102.919326782227
0.06616574, 249.943443688509, 9.72078977132563E-05, 0.6525,105.037910461426
0.0668316616666667, 249.948028888055, -0.000101097141648018, 0.66,108.277297973633
0.0674992916666667, 249.953092243095, 2.8734837047871E-05, 0.66625,108.277297973633
0.0681649783333333, 249.957894650192, 0.000369894201005799, 0.6725,106.692924499512
0.06883154, 249.963054949173, 0.00033566292036601, 0.67875,103.589393615723
0.0694986116666667, 249.968038494668, 0.000701992520028336, 0.68625,101.5615234375
0.0701647516666667, 249.973736124852, 0.000692306006574277, 0.6925,104.177421569824
0.0708315283333333, 249.979130386359, 0.000752052505573721, 0.69875,104.177421569824
0.07149819, 249.984411427217, 0.000874837838147859, 0.705,101.935264587402
0.072164745, 249.98977686445, 0.000772545976202359, 0.7125,104.785575866699
0.072831935, 249.994946973772, 0.0010835988523521, 0.71875,106.981437683105
0.0734988133333333, 250.000324063059, 0.00128530722077948, 0.725,106.981437683105
0.0741648433333333, 250.005441401707, 0.00112590272749048, 0.7325,101.159774780273
0.074831495, 250.010912751434, 0.000825517315545821, 0.73875,99.431755065918
0.0754983483333333, 250.015827664735, 0.00134524271027499, 0.74375,104.700378417969
0.076164785, 250.020949073144, 0.00140330929366648, 0.75125,106.117416381836
0.0768315733333333, 250.026012792896, 0.0016993449240978, 0.75875,106.702568054199
0.0774987533333333, 250.030855667793, 0.00212068576058957, 0.765,106.702568054199
0.0781664483333333, 250.035775215298, 0.0021192488327562, 0.77125,102.353668212891
0.0788314883333333, 250.041349267988, 0.00190847641962964, 0.77875,100.430923461914
0.0794982783333333, 250.046617977604, 0.00189816443755064, 0.78375,127.535552978516
0.08016506, 250.051970852147, 0.00166756152048795, 0.79125,103.040870666504
0.0808319066666667, 250.057238073835, 0.00153949495313351, 0.79875,111.732734680176
0.08149865, 250.0625485907, 0.00172917092593631, 0.805,111.732734680176
0.0821647816666667, 250.067660608337, 0.00153484068694505, 0.81125,108.795806884766
0.0828317883333333, 250.072334556193, 0.0012283985792611, 0.8175,107.47533416748
0.083498545, 250.077701503007, 0.00130144341031527, 0.825,106.000495910645
0.0841649333333333, 250.083227221018, 0.00099970806613137, 0.83125,106.000495910645
0.0848314533333333, 250.088291681913, 0.000931014516557452, 0.8375,103.978736877441
0.08549906, 250.093557531886, 0.000942859421610372, 0.84375,106.416999816895
0.0861652166666667, 250.098888071135, 0.00121370531732005, 0.85125,101.122444152832
0.0868313816666667, 250.103786397099, 0.00116796061502673, 0.8575,105.985961914063
0.0875002116666667, 250.108947519116, 0.00145923998441017, 0.86375,105.985961914063
0.0881648316666667, 250.113572590203, 0.00137082542536031, 0.87125,104.91089630127
0.088831745, 250.1189946556, 0.00163316074847561, 0.8775,107.042541503906
0.089498095, 250.123791971482, 0.00139651313502634, 0.88375,102.657684326172
0.090164985, 250.128872433423, 0.00139952348381378, 0.89,100.001945495605
0.0908319183333333, 250.133608872084, 0.00140873602109265, 0.8975,100.001945495605
0.0914981416666667, 250.139089233355, 0.00124127993222545, 0.90375,104.514770507813
0.092164885, 250.143959951064, 0.00103502979198236, 0.91,103.440780639648
0.0928319983333333, 250.149643440064, 0.000904233361746398, 0.9175,106.861457824707
0.0934981866666667, 250.154587149955, 0.000816027292231097, 0.92375,106.861457824707
0.094164995, 250.15967808996, 0.000638061231263671, 0.93,108.972434997559
0.0948314083333333, 250.16491502015, 0.000622667504498782, 0.93625,110.365791320801
0.0954981716666667, 250.169579309579, 0.000838014687841683, 0.94375,104.198150634766
0.0961648533333333, 250.174769896035, 0.000851978986416472, 0.95,131.302383422852
0.0968314483333333, 250.180083141468, 0.000776906257207777, 0.95625,103.073173522949
0.0974993533333333, 250.185296107012, 0.000944261851118705, 0.96375,106.223510742188
0.0981648383333333, 250.190193706245, 0.00122766211620906, 0.97125,106.223510742188
0.0988314116666667, 250.195447125622, 0.00099474181558202, 0.9775,109.078453063965
0.0994981083333333, 250.200014210899, 0.00115236439833988, 0.98375,105.774864196777
0.100164935, 250.204707064901, 0.00116293886723195, 0.99,98.7118530273438
0.100831608333333, 250.209210211369, 0.00111893857731718, 0.99625,98.7118530273438
0.10149821, 250.213630866693, 0.0012107639649914, 1.0025,113.320381164551
0.102166871666667, 250.217782804871, 0.00127696313987888, 1.00875,104.753807067871
0.102831683333333, 250.222198864439, 0.00159464568301748, 1.0175,104.262161254883
0.103498188333333, 250.226760284709, 0.00161934794226555, 1.02375,99.368537902832
0.10416492, 250.231525046865, 0.0016223147932453, 1.03,99.368537902832
0.104831603333333, 250.236304870932, 0.00152436821303993, 1.03625,102.06665802002
0.10549811, 250.240521403344, 0.00147217533463179, 1.0425,108.978439331055
0.106166801666667, 250.245811671323, 0.000983576376453808, 1.04875,108.745880126953
0.106833056666667, 250.249961888989, 0.000936924219726484, 1.05625,100.819610595703
0.107498373333333, 250.254877053641, 0.000675137868985285, 1.06375,100.819610595703
0.10816477, 250.259979767451, 0.000283896020615922, 1.06875,104.249092102051
0.108832026666667, 250.265090201246, 0.00039440296994209, 1.075,103.371444702148
0.109498088333333, 250.26953353375, 0.000419715698528559, 1.08125,102.215026855469
0.110165425, 250.274772164532, 0.000533949960676954, 1.08875,105.921340942383
0.110831461666667, 250.279346053141, 0.000542259543295026, 1.0975,105.921340942383
0.11149826, 250.284140256459, 0.000795026847069142, 1.1025,99.4950332641602
0.112164803333333, 250.288844924208, 0.000528803719177958, 1.10875,124.680480957031
0.112832798333333, 250.293703533677, 0.000345940404204985, 1.115,108.709846496582
0.113498653333333, 250.297920335985, 0.000127312885639552, 1.1225,103.146118164063
0.114165895, 250.302403515145, 0.000147288882221542, 1.12875,99.0731353759766
0.114831448333333, 250.306621606097, 0.000373449022457889, 1.13625,99.0731353759766
0.115498118333333, 250.310990745368, 0.000618220227835467, 1.14125,102.872833251953
0.116164783333333, 250.315127323656, 0.00100903609754678, 1.1475,103.321678161621
0.116831535, 250.320134691418, 0.000826189281763497, 1.15625,107.364082336426
0.117499073333333, 250.324499292955, 0.00110844210451533, 1.1625,107.364082336426
0.118164933333333, 250.328949192624, 0.000889906081338496, 1.1675,100.672576904297
0.118831433333333, 250.333630485542, 0.000659492154814378, 1.17375,102.997802734375
0.119498266666667, 250.338085622461, 0.000501710580027264, 1.18125,107.621437072754
0.120164845, 250.342320588166, 0.000890404056367902, 1.18875,106.539054870605
0.120831418333333, 250.346579640709, 0.000948445141002031, 1.19375,106.539054870605
0.121505356666667, 250.350676399389, 0.000915374802105412, 1.2,102.971542358398
0.122165323333333, 250.355113005253, 0.000819403622615437, 1.2075,112.774917602539
0.122831438333333, 250.358975963285, 0.00100266291769463, 1.215,104.854568481445
0.123498316666667, 250.363330132034, 0.000583627465414492, 1.22125,101.558769226074
0.1241649, 250.367566965427, 0.000448820236665341, 1.2275,101.558769226074
0.124832033333333, 250.371373721379, 0.0007366437795648, 1.23375,98.984977722168
0.12549868, 250.375130375382, 0.00115121995582891, 1.24,105.913024902344
0.126164801666667, 250.379428444218, 0.00098987755989209, 1.2475,100.935897827148
0.126831653333333, 250.383518110346, 0.00116404581159034, 1.255,100.935897827148
0.127498266666667, 250.387607263465, 0.00128735611783314, 1.26,106.174606323242
0.128164928333333, 250.391769711161, 0.00132583968485755, 1.26625,103.810897827148
0.128831471666667, 250.395911975289, 0.00108924756863245, 1.275,125.960090637207
0.129498296666667, 250.399763288453, 0.00102889210024027, 1.28125,105.005409240723
0.130165325, 250.403067442999, 0.00112013851705233, 1.28625,101.515594482422
0.13083141, 250.406782495352, 0.000963832868133069, 1.2925,106.191543579102
0.131498631666667, 250.409901969461, 0.000960726524120061, 1.30125,106.191543579102
0.13216485, 250.413736422606, 0.000991590473858168, 1.3075,109.890930175781
0.13283144, 250.416975988802, 0.00127581119774589, 1.3125,106.122993469238
0.133498366666667, 250.420583777217, 0.00140918599845613, 1.32,106.19945526123
0.134164861666667, 250.423512818299, 0.00166503864723785, 1.32625,106.19945526123
0.134831783333333, 250.427253376989, 0.00172757650606185, 1.33375,109.244110107422
0.13549871, 250.43047878749, 0.00195045031133555, 1.33875,104.41658782959
0.13616573, 250.434719013844, 0.00198755694750272, 1.34625,106.451240539551
0.136831701666667, 250.438046967032, 0.00203231769923872, 1.3525,102.471343994141
0.137498096666667, 250.442544349396, 0.00178702002026808, 1.35875,102.471343994141
0.138165068333333, 250.446359999424, 0.00184847643338479, 1.36625,103.164184570313
0.138832226666667, 250.450088797047, 0.00192215573256781, 1.37375,101.649627685547
0.13949815, 250.453548586214, 0.00170595359216627, 1.37875,101.512901306152
0.140165048333333, 250.457224178768, 0.00177368718997333, 1.385,106.196395874023
0.14083141, 250.460724386364, 0.00171580959712041, 1.3925,106.196395874023
0.141498815, 250.464003817277, 0.00166478216018614, 1.39875,108.621276855469
0.142164946666667, 250.467387827848, 0.00143663911956988, 1.405,104.587211608887
0.142831423333333, 250.470560686448, 0.00174439516130739, 1.41125,101.271713256836
0.143498528333333, 250.474190321563, 0.00150849001054401, 1.42,101.623031616211
0.144164863333333, 250.477463505859, 0.00158537164885933, 1.42625,101.623031616211
0.14483283, 250.481150764046, 0.00138202686263169, 1.43,105.207885742188
0.145500238333333, 250.484386583642, 0.00144002444950064, 1.4375,129.169006347656
0.146166765, 250.48829724198, 0.00140602715715277, 1.44625,106.964637756348
0.146832985, 250.49176526436, 0.00161010690646553, 1.45125,106.403480529785
0.147499591666667, 250.495227102544, 0.00173065285160805, 1.4575,106.403480529785
0.148166923333333, 250.499165267369, 0.00178970938523322, 1.465,106.103561401367
0.148833418333333, 250.502790935643, 0.00165022389144139, 1.47125,112.467918395996
0.149498613333333, 250.506183869917, 0.00148455871263049, 1.4775,109.044471740723
0.150166793333333, 250.509215217445, 0.00154210782201785, 1.485,105.786178588867
0.150833308333333, 250.512348344227, 0.00163783301377816, 1.49125,105.786178588867
0.1514982, 250.515574779667, 0.0018746906166864, 1.4975,107.849151611328
0.152166685, 250.518983110719, 0.0021109242508941, 1.50125,108.077674865723
0.152832001666667, 250.522569421231, 0.00218317262192011, 1.51,104.75032043457
0.153498155, 250.526686811157, 0.00199467558993206, 1.5175,103.26293182373
0.154166945, 250.530525929768, 0.00171226227529034, 1.52375,103.26293182373
0.154831546666667, 250.533907180899, 0.00185778796567427, 1.53,105.50301361084
0.155498476666667, 250.537489743136, 0.00166947242456028, 1.5375,109.768249511719
0.156165403333333, 250.540728385859, 0.00166135783217839, 1.54375,101.699554443359
0.156831601666667, 250.544158729313, 0.00188147627585571, 1.55,109.104331970215
0.157498196666667, 250.547781306302, 0.00222452854468685, 1.5575,109.104331970215
0.158165663333333, 250.551976509427, 0.00169557111368283, 1.56375,105.881538391113
0.158831508333333, 250.555921505337, 0.00171130982314549, 1.57,108.131301879883
0.159498676666667, 250.559847104346, 0.00194430961978716, 1.5775,109.352767944336
0.160164878333333, 250.564357012588, 0.00175988038346088, 1.58375,101.287055969238
0.160831436666667, 250.568028100833, 0.00145808354239771, 1.59,101.287055969238
0.161498078333333, 250.571880587053, 0.00150249331175958, 1.5975,108.197113037109
