Time (min), Depth (µm), Load (N), Position (µm), Acoustic (aJ)
7.78E-06, 249.489391271512, 0.000420801052315651, 0,104.35693359375
0.000664541666666667, 249.488924984028, 0.00044443836502487, 0,99.2511901855469
0.00133077833333333, 249.487058032485, 0.000614615317205916, 0.00374999999999998,99.2511901855469
0.00199776666666667, 249.483965143483, 0.000954856727259018, 0.0125,108.356315612793
0.00266459166666667, 249.482881160631, 0.000644274827478174, 0.02125,103.293342590332
0.00333225166666667, 249.481629135998, 0.000573647875029645, 0.02875,107.408355712891
0.00399771, 249.482520585614, 0.000632224432803261, 0.03625,106.337562561035
0.00466589, 249.48603485377, 0.000258350212138557, 0.04375,106.337562561035
0.005331065, 249.491850811486, 0.000117771273265473, 0.04875,106.596801757813
0.00599829333333333, 249.49725958401, -3.87173664947457E-05, 0.0575,105.522613525391
0.00666418333333333, 249.503029632628, -0.000327481362186334, 0.065,99.8238906860352
0.007330545, 249.507985322434, -0.000635829874169407, 0.07,104.738151550293
0.00799725333333333, 249.513104595354, -0.000602087569012605, 0.07875,104.738151550293
0.00866435333333333, 249.517307047891, -0.00081302497384478, 0.085,103.83056640625
0.00933128, 249.521859293458, -0.000451624126621724, 0.09125,105.869293212891
0.00999717833333333, 249.526043938139, -0.00020908780896632, 0.0975,110.352958679199
0.01066421, 249.530896130881, -0.000240934209337339, 0.105,106.204078674316
0.0113319716666667, 249.535216877135, -0.000134532553783019, 0.11125,106.204078674316
0.011997985, 249.54028191995, -0.000202696629978825, 0.11875,99.4641036987305
0.0126643066666667, 249.545192467286, -0.000441493635480538, 0.125,106.423477172852
0.0133312466666667, 249.54993661232, -0.000629272203551897, 0.13125,106.564376831055
0.013997965, 249.55435101179, -0.000229515282942469, 0.13625,99.9126052856445
0.01466428, 249.55918028032, -0.00039173963457718, 0.14375,99.9126052856445
0.0153314716666667, 249.563788091705, -0.000169506297108692, 0.15125,100.712707519531
0.0159978583333333, 249.568193909544, -0.000202702629718947, 0.1575,101.37028503418
0.0166642183333333, 249.572949303866, -0.000320437716040914, 0.16375,103.129753112793
0.0173310366666667, 249.577479197535, -0.000571159122546412, 0.17,106.003868103027
0.0179971766666667, 249.581752707174, -0.000108877842453862, 0.1775,106.003868103027
0.0186653983333333, 249.586394195087, -0.000284021045205512, 0.18375,105.897178649902
0.01933157, 249.590492909521, 4.22935643828815E-05, 0.19,106.591583251953
0.019997845, 249.595245447651, 0.000217033287406294, 0.19625,105.333526611328
0.0206643816666667, 249.600087550849, 0.000267942230291448, 0.20375,103.312141418457
0.02133102, 249.605156982558, -9.07107549147421E-05, 0.21,103.312141418457
0.0219977633333333, 249.609693405078, -1.64614843734684E-05, 0.21625,108.127029418945
0.02266395, 249.614501161579, -0.000202518138974838, 0.22375,105.877563476563
0.023331195, 249.619387885529, -0.000121225222245636, 0.23,100.699806213379
0.0239979983333333, 249.624228815358, -0.000380467700752574, 0.23625,107.224456787109
0.0246642483333333, 249.629103502157, -0.000353802040141825, 0.2425,107.224456787109
0.02533115, 249.633755749214, -0.000366929380772072, 0.24875,103.257438659668
0.0259972316666667, 249.638780974985, -0.000308336323851274, 0.25625,107.903182983398
0.02666465, 249.64396741019, -0.000378645292305058, 0.26375,106.308120727539
0.02733123, 249.648779814383, -0.000169927775993532, 0.27,104.909225463867
0.027997985, 249.653988700875, -0.000478114296119799, 0.27625,104.909225463867
0.0286642166666667, 249.65917741155, -0.000280896702184682, 0.2825,105.677131652832
0.02933187, 249.664273690419, -0.000176653438229224, 0.29,116.654136657715
0.0299977566666667, 249.669305602803, -0.000148411356794348, 0.29625,110.306335449219
0.0306645783333333, 249.675279123434, -0.000474929956101585, 0.30125,104.941848754883
0.0313312966666667, 249.680099016998, -0.000177491896076915, 0.30875,104.941848754883
0.0319980183333333, 249.685954314946, -0.000568330264675532, 0.31625,107.905418395996
0.03266398, 249.69126862924, -0.000943533418574063, 0.3225,103.898048400879
0.0333311716666667, 249.696572985522, -0.00106456083951379, 0.32875,103.125221252441
0.0339977583333333, 249.701409047718, -0.000929501623422382, 0.335,105.758865356445
0.0346644183333333, 249.706490006078, -0.00103962609198321, 0.3425,105.758865356445
0.035331085, 249.711476155274, -0.000903086450229485, 0.34875,105.23755645752
0.035997985, 249.717053166346, -0.000799173169685252, 0.355,99.0805587768555
0.036664365, 249.722766972626, -0.000731504068606283, 0.36125,105.829681396484
0.03733092, 249.727972037799, -0.000620962620976332, 0.36875,102.845176696777
0.0379974433333333, 249.733227946581, -0.000459348738658764, 0.375,102.845176696777
0.0386642816666667, 249.738346026183, -0.00041401801558576, 0.38125,107.630599975586
0.0393307266666667, 249.743623597457, -0.000419368246846107, 0.38875,103.136367797852
0.039997785, 249.748287392084, -0.000441561132163701, 0.39375,101.34375
0.0406643516666667, 249.753417790757, -0.000248030352985652, 0.40125,103.170936584473
0.041331115, 249.758692686037, -0.000405741431368321, 0.40875,103.170936584473
0.0419979633333333, 249.764228534797, -0.000434150004454467, 0.415,98.2093658447266
0.0426639216666667, 249.769394145498, -0.000681394585576844, 0.42,101.690856933594
0.043331935, 249.774641428575, -0.000754824897266414, 0.4275,102.94017791748
0.0439972616666667, 249.779932930747, -0.00114532128303733, 0.435,106.116241455078
0.0446644516666667, 249.785881936205, -0.00125261389381471, 0.44125,106.116241455078
0.0453313366666667, 249.790768918727, -0.0010210465252332, 0.4475,102.822410583496
0.0459975233333333, 249.795852565107, -0.000713012997481076, 0.45375,122.395645141602
0.04666436, 249.800664811598, -0.000577478305226313, 0.46,101.905349731445
0.0473317966666667, 249.806001878542, -0.000324601506992014, 0.4675,108.830833435059
0.0479980816666667, 249.810882750502, -0.000179204810085502, 0.47375,108.830833435059
0.0486642766666667, 249.81617962409, -0.000381858130993206, 0.48,113.915756225586
0.049331905, 249.821480400185, -0.000218537334449681, 0.48625,107.216339111328
0.04999822, 249.826888799399, -0.000201349697779684, 0.49375,109.770111083984
0.0506642266666667, 249.832194954913, -0.000252962105358744, 0.5,105.934951782227
0.0513310966666667, 249.837228142665, 3.26145504020603E-05, 0.50625,105.934951782227
0.0519973383333333, 249.842134194274, -0.000103997087723021, 0.5125,113.008758544922
0.052664275, 249.846813249499, -0.000211720176910407, 0.51875,103.943359375
0.0533315683333333, 249.851741050947, -0.000483184041601754, 0.52625,105.472290039063
0.0539978433333333, 249.85650832523, -0.000551709599621253, 0.5325,103.766716003418
0.0546644183333333, 249.86112425372, -0.000879587130671637, 0.53875,103.766716003418
0.055331545, 249.865752223321, -0.000612098066350308, 0.545,105.241928100586
0.05599839, 249.869853298317, -0.000353113574883238, 0.5525,100.672416687012
0.0566647033333333, 249.874575488734, -0.000202045662851574, 0.55875,107.458717346191
0.05733206, 249.878970831583, -0.000146116472117298, 0.565,104.539566040039
0.0579978066666667, 249.88403312629, -9.79763901268937E-05, 0.5725,104.539566040039
0.0586642583333333, 249.888813177346, 0.000111416092293623, 0.57875,103.499618530273
0.0593311233333333, 249.894819333532, -6.36011167656456E-05, 0.585,102.144798278809
0.05999892, 249.89939348785, -0.000108540359548145, 0.59,106.793258666992
0.0606645633333333, 249.904404537245, 0.000349794618759303, 0.5975,104.116638183594
0.0613313916666667, 249.908538120561, 0.000730865477986084, 0.60375,104.116638183594
0.0619979183333333, 249.913266991557, 0.000745716232053231, 0.6125,131.291549682617
0.0626647466666667, 249.917860595452, 0.000676250221241603, 0.61875,104.217758178711
0.0633315566666667, 249.92306076001, 0.00119703606275767, 0.625,101.631797790527
0.0639981816666667, 249.927954740021, 0.00112770054536912, 0.63125,99.5532760620117
0.06466434, 249.933559362442, 0.00114730156082904, 0.6375,99.5532760620117
0.0653312316666667, 249.939237446879, 0.000841315430184928, 0.645,103.434204101563
0.06599779, 249.944543733776, 0.000872419367870064, 0.65125,111.673858642578
0.0666644766666667, 249.950044645981, 0.00060394635299142, 0.6575,109.004692077637
0.06733122, 249.954720016684, 0.000491552498425888, 0.66375,103.604522705078
0.067997735, 249.959475529706, 0.000528843625337168, 0.67125,103.604522705078
0.0686642133333333, 249.964304775669, 0.000767906117458257, 0.6775,103.69652557373
0.06933063, 249.968836373864, 0.000939071520033591, 0.68375,101.054397583008
0.0699984666666667, 249.973819893576, 0.000620316530734117, 0.69125,101.766090393066
0.0706644083333333, 249.979165069766, 0.000298275206535752, 0.6975,102.915725708008
0.07133148, 249.984530193956, 5.46469437234899E-05, 0.70375,102.915725708008
0.0719971333333333, 249.98932702664, 3.1281117373769E-05, 0.71,109.154724121094
0.0726642533333333, 249.99447957311, -8.85103656451303E-05, 0.7175,102.745948791504
0.07333133, 249.999321550745, 0.000165638368716926, 0.72375,106.22728729248
0.073998175, 250.004847365547, 0.000283317957793465, 0.73,103.716728210449
0.0746641316666667, 250.009724554397, 0.000164672417231196, 0.7375,103.716728210449
0.0753314166666667, 250.01526696237, -0.000122210672918642, 0.7425,106.630828857422
0.0759977433333333, 250.020391286389, 1.01246800313666E-05, 0.74875,110.021522521973
0.0766644433333333, 250.02548092395, 0.000376562274271981, 0.7575,106.565841674805
0.0773315083333333, 250.030377605558, 0.000275278361631741, 0.76375,103.134368896484
0.0779977866666667, 250.036064581659, 0.000437085734218583, 0.77,103.134368896484
0.0786644266666667, 250.041035427577, 0.000700477004326318, 0.77625,129.754013061523
0.0793305716666667, 250.046810969449, 0.000322043012668054, 0.7825,104.682243347168
0.0799981983333333, 250.051350553442, 0.000240561105442787, 0.79,99.6810989379883
0.0806641283333333, 250.056934732958, 0.000300358601893197, 0.79625,104.490509033203
0.0813312333333333, 250.061128732853, 0.000191114589105859, 0.8025,104.490509033203
0.0819982083333333, 250.066276915979, 0.00023977514494921, 0.81,101.815452575684
0.0826647883333333, 250.070047236749, 0.000477474205575197, 0.81625,106.320426940918
0.0833306366666667, 250.075460145486, 0.000144910909902634, 0.8225,105.260192871094
0.0839982716666667, 250.079898220559, 0.000340136603932668, 0.83,104.337982177734
0.0846643916666667, 250.085187842104, 0.000512291956762931, 0.83625,104.337982177734
0.085331395, 250.089675751487, 0.000570856515120067, 0.8425,109.637329101563
0.0859977516666667, 250.094948008268, 0.000930043473541341, 0.85,103.567222595215
0.0866645433333333, 250.099745898964, 0.00109719357774526, 0.85625,107.901496887207
0.0873314566666667, 250.104570876361, 0.00129212678647415, 0.8625,103.688125610352
0.0879978966666667, 250.109462505124, 0.00134793748318057, 0.86875,103.688125610352
0.0886641666666667, 250.11460222379, 0.00115277028620226, 0.87625,103.73420715332
0.0893313983333333, 250.120156508431, 0.000798617074992248, 0.8825,104.222190856934
0.089998095, 250.125415209797, 0.000828195589282968, 0.89,101.609359741211
0.09066451, 250.131304310497, 0.000499365606066483, 0.89625,105.344230651855
0.0913319883333333, 250.137354596573, 0.000306190309035768, 0.9025,105.344230651855
0.091997725, 250.142822633321, 0.000362531979087211, 0.90875,104.387580871582
0.0926644716666667, 250.148588354037, 0.000151155096319864, 0.915,105.296058654785
0.0933313783333333, 250.154154294646, -9.79268925365697E-05, 0.9225,102.868377685547
0.0939981716666667, 250.159218166439, -5.47980588701221E-05, 0.92875,106.66561126709
0.0946643133333333, 250.164253570866, -0.000247056901920413, 0.935,106.66561126709
0.095331355, 250.169498532165, -0.000528856747374938, 0.9425,126.528167724609
0.0959972666666667, 250.173953966889, -0.000387688338105103, 0.94875,101.997161865234
0.0966644416666667, 250.179259050049, -0.000412843574565468, 0.955,106.246299743652
0.0973313083333333, 250.183895460351, -0.000579476204765247, 0.96125,107.18138885498
0.09799859, 250.188801654623, -0.000474781463479392, 0.9675,107.18138885498
0.09866423, 250.193292675703, -0.000280802206841006, 0.97625,109.440933227539
0.0993314433333333, 250.198996841208, -0.000161934677445801, 0.9825,110.312606811523
0.09999778, 250.20339723963, -7.58765001010469E-05, 0.9875,102.430534362793
0.100664548333333, 250.208564228929, 7.80967659673179E-05, 0.995,106.656059265137
0.101331235, 250.213300252391, 0.000213107984499074, 1.0025,106.656059265137
0.101998006666667, 250.219247156522, 0.000212575511250901, 1.00875,104.49951171875
0.102664618333333, 250.223730093753, 0.000189787155902705, 1.015,104.938301086426
0.103331235, 250.229234060182, 0.000153619472582007, 1.0225,106.961639404297
0.103997663333333, 250.233942401156, 3.45749520859627E-05, 1.02875,106.961639404297
0.1046642, 250.238626797899, -3.84203814416466E-05, 1.035,105.443717956543
0.105331275, 250.242762914421, -3.23591858866309E-05, 1.04125,110.373870849609
0.105997783333333, 250.247447725397, -6.22466847319464E-05, 1.0475,101.58080291748
0.106664461666667, 250.251845255214, 0.000101840573351676, 1.05375,105.988494873047
0.107331133333333, 250.256724797638, 0.000147777266011121, 1.06125,105.236625671387
0.107997865, 250.261533867982, 0.00010467843079023, 1.06875,105.236625671387
0.108664193333333, 250.266289386284, 0.000363071951936146, 1.075,102.424736022949
0.109331131666667, 250.270831514843, 0.000331957514801441, 1.08,104.414863586426
0.109997721666667, 250.275261759019, 0.000336269798183446, 1.0875,107.5087890625
0.110664161666667, 250.279582758752, 0.00050395387560245, 1.09375,104.357292175293
0.11133126, 250.284062503269, 0.000716095719942983, 1.10125,104.357292175293
0.111997263333333, 250.288763693478, 0.000687817640364937, 1.1075,123.517890930176
0.11266419, 250.293469978838, 0.000836715161381259, 1.115,108.855407714844
0.113331261666667, 250.298158730956, 0.00073505626761895, 1.12,108.631614685059
0.11399747, 250.302942701317, 0.000844142788301438, 1.12625,107.846649169922
0.114664235, 250.3070045415, 0.000935434202845593, 1.13375,107.846649169922
0.115331215, 250.312223734595, 0.000639454069617193, 1.14125,107.615386962891
0.115998013333333, 250.317084608095, 0.000464766843947895, 1.14625,103.767959594727
0.116664465, 250.321248213133, 0.000712321909485509, 1.15375,111.349403381348
0.117331391666667, 250.325970174747, 0.000347114253468107, 1.16,99.928840637207
0.117997496666667, 250.330862787418, 0.00023974814635246, 1.16625,99.928840637207
0.118664131666667, 250.33433921602, 0.000476623748353534, 1.1725,105.485626220703
0.119331471666667, 250.338206909417, 0.000345455336823055, 1.18,109.92115020752
0.119997948333333, 250.342431582981, 0.00039392840207349, 1.1875,101.652854919434
0.120664345, 250.346451496807, 0.000471075527093211, 1.19375,101.258308410645
0.121330718333333, 250.350576415711, 0.00057574926943742, 1.2,101.258308410645
0.121997795, 250.354629381804, 0.00054028505076812, 1.20625,100.835113525391
0.122664363333333, 250.358159738035, 0.0010925963087904, 1.2125,104.82780456543
0.123331281666667, 250.362338404745, 0.000751060463764744, 1.22,100.101486206055
0.123997716666667, 250.366124869099, 0.000742602388609495, 1.22625,103.501831054688
0.124664351666667, 250.370249692682, 0.000494637843603521, 1.2325,103.501831054688
0.125330953333333, 250.373799405133, 0.000551979963359461, 1.23875,101.509872436523
0.125997841666667, 250.377796782697, 0.000427849198319297, 1.24625,107.214599609375
0.126664211666667, 250.381583334251, 0.000444825345627181, 1.25375,100.458877563477
0.127331263333333, 250.385630733302, 0.000375330836209382, 1.26,104.721664428711
0.127997693333333, 250.38872071055, 0.000719710538413711, 1.265,104.721664428711
0.128664575, 250.392370781901, 0.000554726325366908, 1.2725,124.590057373047
0.129332318333333, 250.396890586199, -5.67614601902898E-05, 1.28,104.305938720703
0.12999765, 250.400718681628, -7.58405018941146E-05, 1.28625,96.9732208251953
0.130664196666667, 250.404174917709, 0.00021106958693749, 1.29125,103.408332824707
0.131332096666667, 250.408180138733, 0.000165557372969183, 1.29875,103.408332824707
0.13199887, 250.412411959038, 0.000209343173673037, 1.30625,98.1237487792969
0.132664408333333, 250.415647744803, 0.000602672917130546, 1.3125,105.04581451416
0.133330518333333, 250.419534783057, 0.000517151712785921, 1.3175,103.931365966797
0.133998203333333, 250.422872003322, 0.000254192420948832, 1.325,104.75032043457
0.134664053333333, 250.426648060655, 0.000113736475876816, 1.33125,104.75032043457
0.13533115, 250.429971597162, -3.38336118513366E-05, 1.3375,103.232093811035
0.136002515, 250.433069473369, 0.000204049939497505, 1.345,104.589172363281
0.136664251666667, 250.435933918183, 0.000504577844260476, 1.35125,103.024703979492
0.137331078333333, 250.439520011042, 0.000477835687462653, 1.3575,101.317085266113
0.137997173333333, 250.443006967022, 0.000143917959820153, 1.36375,101.317085266113
0.138664458333333, 250.446819493251, -8.14412205935679E-05, 1.37125,100.485702514648
0.139331236666667, 250.45138875652, -0.000702129544055661, 1.37875,102.496231079102
0.139998841666667, 250.455674236143, -0.00116694419691165, 1.38375,105.527801513672
0.140664265, 250.459905242872, -0.00117862411019519, 1.39,104.169548034668
0.141330565, 250.46376581783, -0.00100735971265175, 1.3975,104.169548034668
0.141997785, 250.467667583652, -0.000987104730045743, 1.40375,107.730781555176
0.142664206666667, 250.471183744144, -0.0008296741376115, 1.41,103.103691101074
0.143331515, 250.475112604837, -0.000627679283623096, 1.4175,101.475578308105
0.14399728, 250.478598139084, -0.000460931159201758, 1.42375,130.449691772461
0.14466418, 250.482465650741, -0.000568166772873068, 1.43,130.449691772461
0.145331308333333, 250.486619926908, -0.000707457276428704, 1.4375,107.476318359375
0.145998, 250.49035817486, -0.000481301635986821, 1.44375,103.81420135498
0.146664285, 250.494501072689, -0.000375543448065261, 1.45,106.434944152832
0.147331723333333, 250.498055339309, -0.000385579443990295, 1.45625,100.813583374023
0.147997865, 250.501887770418, -0.000298448820463417, 1.4625,100.813583374023
0.148663858333333, 250.505378866522, -0.000176480946816579, 1.47,101.657920837402
0.149332023333333, 250.509430334289, -0.00046125064314216, 1.47625,101.533836364746
0.14999921, 250.512571666939, -0.000540239675626639, 1.4825,102.344650268555
0.1506644, 250.517199606042, -0.000680316139718361, 1.49,105.979156494141
0.15133106, 250.520473410173, -0.000478142794704715, 1.49625,105.979156494141
0.151997838333333, 250.525058248444, -0.000309839248400896, 1.5,102.577301025391
0.152665768333333, 250.528414669579, -0.000124087078495896, 1.5075,108.273162841797
0.153331118333333, 250.533037459089, -0.000301655659432697, 1.51625,101.402442932129
0.153997936666667, 250.536338051923, -0.000130737744468917, 1.5225,107.979835510254
0.154664521666667, 250.540888419654, -0.000288987295754863, 1.52875,107.979835510254
0.155332281666667, 250.544554236412, -0.000233965559412082, 1.535,106.915184020996
0.155998673333333, 250.549241672095, -0.000303028090495473, 1.5425,105.499137878418
0.156666425, 250.553093319173, -0.000304946494104797, 1.54875,107.577537536621
0.157332145, 250.557633133685, -0.00054416347848193, 1.555,106.445350646973
0.157997321666667, 250.562127574998, -0.000638975216195646, 1.5625,106.445350646973
0.158664938333333, 250.566142496269, -0.000642555536341337, 1.56875,108.147064208984
0.159332636666667, 250.570131285107, -0.000503974497134712, 1.575,103.159233093262
0.159998483333333, 250.574064449734, -0.000358043827098132, 1.5825,103.502372741699
0.160664101666667, 250.578422945837, -0.000192168658849523, 1.58875,123.460678100586
