Time (min), Depth (µm), Load (N), Position (µm), Acoustic (aJ)
7.78666666666667E-06, 249.034979478981, -0.000469731022879561, 0,106.857551574707
0.000663511666666667, 249.035669217695, -0.0005444422702008, 0,97.1261901855469
0.00132982166666667, 249.035385918115, -0.00045321085265403, 0.00499999999999999,103.908813476563
0.00199655833333333, 249.03417246447, -0.000695156199988279, 0.0125,100.747894287109
0.00266327333333333, 249.032169493635, -0.00102089633838145, 0.02125,100.747894287109
0.00332963, 249.030574421428, -0.000850441900122036, 0.02875,103.436500549316
0.00399667833333333, 249.03020510466, -0.000798469510643685, 0.0375,102.210296630859
0.00482980333333333, 249.033158617655, -0.000491020953451345, 0.045,111.757202148438
0.00549687166666667, 249.037437036902, -0.000710555926429527, 0.05125,106.9189453125
0.006163295, 249.042762527554, -0.000625991674024213, 0.05875,109.211700439453
0.00682985, 249.047356149392, -0.000400935478361204, 0.0675,109.211700439453
0.00749694666666667, 249.052862634745, -0.000680093956537764, 0.07375,108.201240539551
0.00816327166666667, 249.057524788373, -0.000625457700851637, 0.07875,103.335990905762
0.00882977333333333, 249.06266902656, -0.000359717548703319, 0.08625,108.966705322266
0.0094965, 249.067239038563, -0.000300154040502326, 0.09375,104.387664794922
0.0101631316666667, 249.072426478827, -0.000560714952814777, 0.1,104.387664794922
0.0108297883333333, 249.076828161436, -0.000542843350468116, 0.10625,105.819534301758
0.0114967466666667, 249.081866609137, -0.000759993443283799, 0.1125,106.765930175781
0.0121633733333333, 249.086450870582, -0.000849672438818148, 0.11875,110.798828125
0.0128296666666667, 249.091048106077, -0.00073167636562876, 0.125,100.040977478027
0.0134966283333333, 249.095655653031, -0.000422609389729001, 0.13125,100.040977478027
0.0141633216666667, 249.100235438017, -0.000248006159868794, 0.14,105.987297058105
0.01482961, 249.105407222897, -0.000441175457180641, 0.14625,127.433296203613
0.0154965766666667, 249.11001158, -0.000355145778357041, 0.1525,103.456436157227
0.0161633216666667, 249.114960692191, -0.000553581311141399, 0.15875,104.02165222168
0.0168306116666667, 249.119703851104, -0.000802349815776298, 0.165,104.02165222168
0.0174965683333333, 249.124938625644, -0.00111225974931821, 0.1725,104.147453308105
0.0181635333333333, 249.129120831147, -0.000981449819741366, 0.17875,105.395576477051
0.0188298333333333, 249.133934411637, -0.00118355266832931, 0.18375,102.634887695313
0.0194967466666667, 249.138276152361, -0.00125618202023876, 0.19125,104.694976806641
0.0201631966666667, 249.143140267617, -0.00107452314475289, 0.19875,104.694976806641
0.0208296783333333, 249.148146372736, -0.0011667670114419, 0.205,101.318008422852
0.0214968933333333, 249.153250319018, -0.00110531659808656, 0.2125,104.335433959961
0.0221632783333333, 249.158213819655, -0.000844496198809833, 0.21875,107.746315002441
0.022829585, 249.163146151618, -0.000940707366225583, 0.22375,107.321060180664
0.0234967916666667, 249.168171227233, -0.00114166577230256, 0.2325,107.321060180664
0.02416333, 249.172639391586, -0.000759000493180063, 0.23875,105.749122619629
0.0248297583333333, 249.177626932555, -0.00035605623268236, 0.245,104.284332275391
0.025496635, 249.18274618294, -0.000622618343531188, 0.25125,106.749389648438
0.0261631633333333, 249.188619929992, -0.000663899270014011, 0.2575,103.165237426758
0.0268297583333333, 249.193408914148, -0.000682631829116921, 0.26375,103.165237426758
0.0274965, 249.198886098039, -0.00089779302179131, 0.27125,103.227645874023
0.02816354, 249.204032194147, -0.00117935437922321, 0.2775,108.723182678223
0.0288298416666667, 249.2089390963, -0.000632459349177528, 0.285,103.654487609863
0.0294965983333333, 249.213586980598, -0.000391556449473576, 0.29125,103.589508056641
0.0301633383333333, 249.218707987329, -0.000119765601198556, 0.2975,103.589508056641
0.0308297916666667, 249.223476545384, 0.000112863714073001, 0.30375,100.308898925781
0.0314966716666667, 249.228062314032, 0.000201222775877435, 0.31125,128.94026184082
0.0321639466666667, 249.233248850454, 0.000143166691999273, 0.3175,106.891716003418
0.0328300533333333, 249.237904551211, 0.000354849559408647, 0.32375,105.779174804688
0.033496975, 249.242909276058, 0.000522832121783899, 0.33,105.779174804688
0.0341632933333333, 249.247931678518, 0.00046234915977493, 0.3375,106.702629089355
0.0348297466666667, 249.253455499419, 0.000221939735284666, 0.34375,108.884300231934
0.0354967333333333, 249.258402270406, 0.000143354182528426, 0.35,111.032432556152
0.03616301, 249.263315042023, 7.84464427859538E-05, 0.3575,110.06568145752
0.0368296433333333, 249.268762950943, -0.000318774105232483, 0.36375,110.06568145752
0.0374966716666667, 249.274582955923, -0.000290334033776377, 0.37,106.920974731445
0.038163235, 249.280000177159, 0.000172983694270111, 0.3775,101.624214172363
0.038829665, 249.285256622974, 0.000181230280063247, 0.3825,102.729064941406
0.0394966033333333, 249.291292953503, 0.000160864303008886, 0.39,103.466522216797
0.0401630916666667, 249.296279343638, 0.000210411314323341, 0.3975,103.466522216797
0.0408299083333333, 249.301600937493, 0.000237211968172891, 0.40375,105.672317504883
0.0414964366666667, 249.30629900361, -1.6447790769941E-05, 0.40875,99.7273406982422
0.04216331, 249.31163974358, 2.37576897457129E-05, 0.41625,102.105659484863
0.04282976, 249.316209065831, 0.000130963304907704, 0.4225,101.884323120117
0.043496545, 249.321442934094, 0.000135820060996871, 0.42875,101.884323120117
0.044163385, 249.325462315992, 3.74640012806337E-05, 0.435,112.023529052734
0.0448296516666667, 249.330475773658, -0.000157850188289192, 0.4425,99.722785949707
0.04549653, 249.335290007697, -0.000375478757032022, 0.44875,104.965408325195
0.0461635983333333, 249.340402737608, -0.000616780636691004, 0.455,103.22322845459
0.046829645, 249.344735585028, -0.00067816805328517, 0.4625,103.22322845459
0.0474966233333333, 249.349664762117, -0.000708498029829446, 0.46875,106.093315124512
0.0481630166666667, 249.354604365542, -0.00029035203289047, 0.475,127.561836242676
0.0488300216666667, 249.358695925107, 2.80474742616696E-05, 0.48125,106.744789123535
0.0494967516666667, 249.363680910225, 0.000187295975391473, 0.4875,106.825012207031
0.0501633683333333, 249.368343502398, 0.000540981210166417, 0.49625,106.825012207031
0.0508296633333333, 249.373378499799, 0.000300849271733264, 0.50125,102.908599853516
0.05149637, 249.378005821081, -8.86226655001895E-05, 0.5075,105.658950805664
0.0521639983333333, 249.383238121285, -0.000193527396287517, 0.51375,105.790710449219
0.0528295966666667, 249.387659070745, -0.000413609841736651, 0.52125,110.752067565918
0.0534963566666667, 249.392532226042, -0.00074131488148066, 0.5275,110.752067565918
0.0541634233333333, 249.396722441459, -0.000525562718506371, 0.53375,107.098373413086
0.0548297183333333, 249.40077382065, -0.000416701186505626, 0.54125,107.722450256348
0.0554972516666667, 249.405024512814, -0.000687283095456571, 0.5475,99.2879867553711
0.056163205, 249.409109100859, -0.000603752291177642, 0.55375,107.96418762207
0.0568295883333333, 249.413626030683, -0.000476450685396385, 0.56125,107.96418762207
0.0574963733333333, 249.417218942773, -0.000430729981893518, 0.5675,103.007347106934
0.0581630683333333, 249.421357599469, -0.000224337348789615, 0.57375,102.049560546875
0.058829585, 249.425401287761, -0.000246549733081944, 0.58,104.396484375
0.059496805, 249.429317384152, -0.000283692367456047, 0.58625,106.6279296875
0.0601632133333333, 249.433231276269, -1.52954018966334E-06, 0.5925,106.6279296875
0.060830365, 249.437698449927, 0.000146922503215129, 0.59875,105.801979064941
0.0614963983333333, 249.441427806609, 0.000102907214056323, 0.60625,104.894950866699
0.0621635683333333, 249.445223598753, 0.000439403312215613, 0.61375,103.726829528809
0.0628314966666667, 249.448845139081, 0.000717715832858703, 0.62,102.118186950684
0.06349688, 249.452259604825, 0.000911111618819204, 0.62625,102.118186950684
0.0641632633333333, 249.456219594946, 0.000814829954956501, 0.6325,104.424125671387
0.06482977, 249.460600471336, 0.000787501327631988, 0.64,123.560676574707
0.0654964, 249.465080463346, 0.00107083709597301, 0.64625,112.506362915039
0.0661633183333333, 249.46993447648, 0.000935123912735508, 0.6525,101.955223083496
0.0668296366666667, 249.474704554229, 0.000742818572028716, 0.66,101.955223083496
0.0674966566666667, 249.47927756775, 0.000846311873655021, 0.66625,100.967323303223
0.068163315, 249.484004507895, 0.000665246968402874, 0.6725,102.50235748291
0.06882973, 249.488528515788, 0.000621897645785385, 0.67875,106.538070678711
0.0694966333333333, 249.49315636229, 0.000827874799765823, 0.68625,105.743560791016
0.0701630733333333, 249.49812583021, 0.000648236322812461, 0.6925,105.743560791016
0.0708297283333333, 249.503378364477, 0.000802880055237861, 0.69875,109.614334106445
0.0714966433333333, 249.508053009752, 0.00115646029524081, 0.70625,107.679611206055
0.0721630716666667, 249.513239962393, 0.000958557235725884, 0.7125,105.906112670898
0.0728299033333333, 249.518517864886, 0.000765536430951213, 0.71875,101.305274963379
0.073496575, 249.524091740944, 0.000782035602213844, 0.725,101.305274963379
0.0741630333333333, 249.529369386566, 0.000656904387447929, 0.73125,110.203453063965
0.074829715, 249.535218574362, 0.000552179647652755, 0.73875,101.973472595215
0.07549644, 249.540479253669, 0.000657789342973376, 0.745,104.042694091797
0.0761633266666667, 249.545956731523, 0.000567004902983793, 0.75125,106.387908935547
0.076829495, 249.551008549333, 0.000584647016832993, 0.75875,106.387908935547
0.0774965666666667, 249.556503484106, 0.000482608642132898, 0.76375,103.876747131348
0.0781631316666667, 249.562489079201, 0.000208896390399747, 0.77125,101.073738098145
0.0788296, 249.568127497604, 1.46996447016356E-05, 0.77875,100.943069458008
0.07949683, 249.573774899475, -1.92181516103484E-05, 0.785,103.617790222168
0.0801631566666667, 249.578910445295, 0.000112248744961395, 0.79,103.617790222168
0.08082973, 249.584360511264, 0.00015645602450758, 0.7975,128.77326965332
0.0814968133333333, 249.589326690914, 0.000317138453621947, 0.805,104.084770202637
0.0821631583333333, 249.594824926091, 0.000599871252246585, 0.81125,105.391990661621
0.0828300066666667, 249.60011794245, 0.00098783726508161, 0.8175,100.787284851074
0.083496445, 249.606560050509, 0.000630781699598684, 0.825,100.787284851074
0.0841631166666667, 249.611712251133, 0.000671150671874293, 0.83125,105.756996154785
0.0848296033333333, 249.616429266736, 0.00100212854719756, 0.8375,101.321510314941
0.085496435, 249.621066215936, 0.00080852877147571, 0.84375,104.136329650879
0.0861642966666667, 249.62622844099, 0.000609400273489523, 0.85125,105.276237487793
0.0868299733333333, 249.630113990987, 0.00085551841121502, 0.8575,105.276237487793
0.0874964016666667, 249.635094734709, 0.00073242559401069, 0.86375,104.091674804688
0.0881632516666667, 249.639995468971, 0.000646773896200473, 0.87125,106.981269836426
0.08882973, 249.64496863259, 0.000504996517537899, 0.8775,105.487495422363
0.0894974433333333, 249.649488876353, 0.000273135163688334, 0.88375,101.630035400391
0.0901630916666667, 249.654843538288, 0.00032470557336285, 0.89,101.630035400391
0.09082969, 249.659638340011, 0.000527331895652549, 0.8975,108.141952514648
0.091496505, 249.665193176233, 0.000559793265156429, 0.905,102.930618286133
0.09216337, 249.670692417469, 0.000572614621165903, 0.91125,105.524482727051
0.0928296616666667, 249.676489720936, 0.000908143267915059, 0.91625,101.948921203613
0.093496785, 249.681560010953, 0.00118595931353816, 0.92375,101.948921203613
0.09416335, 249.687120412201, 0.000953872971006854, 0.93,107.170936584473
0.094830105, 249.691963781049, 0.00100620084261129, 0.93625,102.69189453125
0.0954964783333333, 249.696813390191, 0.000992820014714379, 0.945,106.848030090332
0.0961631316666667, 249.701406531845, 0.000860685651655662, 0.95125,101.325210571289
0.0968299266666667, 249.706743701533, 0.000380009295535951, 0.9575,101.325210571289
0.0974967516666667, 249.71125887108, 0.000185749552991648, 0.9625,130.641067504883
0.0981632233333333, 249.716361219767, 2.51466198706541E-05, 0.97,105.332153320313
0.0988297766666667, 249.721260902248, 0.000266325505728568, 0.97625,111.330726623535
0.0994967433333333, 249.726037362262, 0.000363373631110115, 0.985,103.755142211914
0.100163373333333, 249.730735041821, 0.000565890458918377, 0.99125,103.755142211914
0.100829771666667, 249.735613063204, 0.00137667923387441, 0.9975,109.086875915527
0.101496646666667, 249.739774944511, 0.00140692671461901, 1.00375,104.804046630859
0.102163298333333, 249.744239131743, 0.00143352637853476, 1.01,102.944969177246
0.102829613333333, 249.74817460854, 0.00143486731118507, 1.01625,101.30623626709
0.103496538333333, 249.75222633173, 0.00137440984789096, 1.0225,101.30623626709
0.104163333333333, 249.756186818345, 0.000754334993594815, 1.02875,103.770774841309
0.104830226666667, 249.760525038424, 0.000544788018897, 1.0375,106.904808044434
0.105496585, 249.764413487272, 0.000181605261164061, 1.04375,103.759399414063
0.106163061666667, 249.768842193302, -1.73012479254275E-05, 1.05,103.918563842773
0.106829665, 249.773272195389, -0.00036061750353656, 1.05625,103.918563842773
0.10749651, 249.777248477835, -0.000276291739132619, 1.0625,104.201293945313
0.108163355, 249.781000481055, 6.60120672937743E-05, 1.06875,109.803550720215
0.108829645, 249.784837649336, 0.000484330555602887, 1.075,111.739761352539
0.109496361666667, 249.78871902164, 0.000658669798683104, 1.0825,110.29337310791
0.110162881666667, 249.791750322741, 0.00114938815042546, 1.08875,110.29337310791
0.110829948333333, 249.796063693291, 0.00122728073795862, 1.095,105.859237670898
0.11149648, 249.799910366412, 0.00121010060093189, 1.1025,101.613990783691
0.112163488333333, 249.804196779003, 0.000903784486855298, 1.11125,105.657653808594
0.11283023, 249.807927468243, 0.000803231037526969, 1.115,112.162010192871
0.113496891666667, 249.811932650406, 0.000864579456065396, 1.12125,112.162010192871
0.114163748333333, 249.814944485542, 0.00116747424198304, 1.12875,128.228897094727
0.114829795, 249.818534405152, 0.00113699577285908, 1.13625,101.141647338867
0.115496456666667, 249.821403933905, 0.00155257689866466, 1.1425,99.5816116333008
0.116163301666667, 249.824576513525, 0.00196641811184365, 1.1475,107.368423461914
0.116829955, 249.827804412376, 0.00166471126626592, 1.155,107.368423461914
0.117496496666667, 249.830865732651, 0.00151661770485727, 1.1625,109.632637023926
0.118163333333333, 249.834195635912, 0.00124148502445918, 1.16875,108.513984680176
0.118829918333333, 249.837542517129, 0.00102139357944238, 1.17375,100.257369995117
0.119496391666667, 249.841046760469, 0.000399398821612504, 1.18125,103.789588928223
0.120163105, 249.844532819145, 0.00039095724562569, 1.1875,103.789588928223
0.120829885, 249.848746280031, 0.000131504777659788, 1.195,110.15803527832
0.121496478333333, 249.852249426482, 0.000238897883414694, 1.20125,103.589477539063
0.122163111666667, 249.855637188325, 0.000223417160970654, 1.2075,107.584030151367
0.122829723333333, 249.858854154521, 0.000634783498501691, 1.21375,105.901878356934
0.123496615, 249.861579587794, 0.00078623839105065, 1.22125,105.901878356934
0.124164711666667, 249.864603684431, 0.000679986727936655, 1.22875,107.247604370117
0.124829595, 249.86781523908, 0.000673763540524834, 1.235,106.123481750488
0.12549646, 249.871348355086, 0.000512539638615875, 1.24,104.061546325684
0.126163306666667, 249.874580770921, 8.92369006433183E-05, 1.24625,111.796104431152
0.126829536666667, 249.878294263391, 0.000233337662610366, 1.25375,111.796104431152
0.127496646666667, 249.88159734975, 0.000104692124351249, 1.26125,104.528366088867
0.128163355, 249.885466999213, -3.1070556434064E-05, 1.2675,104.904663085938
0.128829618333333, 249.888996005284, -0.000366869189575806, 1.27375,100.120864868164
0.129496215, 249.892894676556, -0.000143177925374811, 1.28,108.249633789063
0.130163171666667, 249.896416090535, -0.00031039702610128, 1.2875,108.249633789063
0.130830205, 249.900512836101, -0.000210134562170945, 1.29375,126.669326782227
0.131496671666667, 249.903271821626, 0.000121900760026654, 1.3,102.694618225098
0.1321633, 249.906669773298, 0.000571516676290177, 1.30625,101.507797241211
0.132830051666667, 249.909948847838, 0.000608032342136194, 1.31375,107.032569885254
0.133496311666667, 249.913688177007, 0.000494249557296942, 1.32125,107.032569885254
0.134163175, 249.916640476753, 0.000481693687949353, 1.3275,106.786956787109
0.134829678333333, 249.920904354294, 0.0004130301368635, 1.3325,104.858642578125
0.135496318333333, 249.924978463966, 0.000217864439809596, 1.33875,103.94620513916
0.136163051666667, 249.928916447332, 2.18122873058431E-05, 1.34625,107.729782104492
0.136829771666667, 249.932850269634, 0.000256195014502367, 1.3525,107.729782104492
0.137496641666667, 249.937283095351, 0.000216106528090167, 1.36,108.421752929688
0.138163003333333, 249.941229787489, 5.11058158749274E-05, 1.36625,105.980346679688
0.138829915, 249.944617595782, 0.000381221234560054, 1.3725,107.759346008301
0.139496335, 249.948500654185, 0.000235407558626928, 1.37875,106.957168579102
0.140163056666667, 249.952236682677, 0.000154371129013191, 1.385,106.957168579102
0.140830133333333, 249.955576684516, 0.000425260522530566, 1.3925,104.033294677734
0.141496391666667, 249.9588758221, 0.000385439022704654, 1.39875,101.064567565918
0.142163086666667, 249.96239935126, 0.000330936260332925, 1.405,104.126319885254
0.142830041666667, 249.965873359926, 0.000845461416263324, 1.4125,107.585487365723
0.143496658333333, 249.969049922841, 0.00105046661906042, 1.42,107.585487365723
0.144163168333333, 249.972626249431, 0.00103397494739855, 1.42625,101.257820129395
0.144829703333333, 249.976024851544, 0.00103930267977159, 1.43125,103.136352539063
0.14549636, 249.980239606808, 0.000924385951913446, 1.43875,105.060981750488
0.146162996666667, 249.98346512852, 0.000819860702127667, 1.445,110.932235717773
0.146829785, 249.987433947918, 0.000776013404544534, 1.45125,110.932235717773
0.147496421666667, 249.990563404921, 0.000754588480691441, 1.45875,121.516052246094
0.148163153333333, 249.994188588074, 0.000879097226723733, 1.465,108.610015869141
0.148829646666667, 249.997462746829, 0.000805021947498254, 1.47125,111.16716003418
0.14949647, 250.001009585553, 0.000874576453828421, 1.4775,98.3182754516602
0.150163245, 250.004263645425, 0.000829148235584189, 1.48375,98.3182754516602
0.150829596666667, 250.007792997666, 0.000973313494343085, 1.4925,107.427742004395
0.151496386666667, 250.011256935299, 0.00084140561997553, 1.4975,105.015731811523
0.152163395, 250.015037343102, 0.00079453597418848, 1.50125,102.086936950684
0.15282987, 250.018745881699, 0.000813387027297993, 1.51,109.152236938477
0.153496383333333, 250.022646646928, 0.00081840127549201, 1.5175,109.152236938477
0.15416318, 250.026452970322, 0.000662160123322092, 1.52375,108.079071044922
0.1548302, 250.030058677543, 0.000701086168066718, 1.53125,101.001770019531
0.155497498333333, 250.033564952752, 0.000562880110024669, 1.5375,103.84716796875
0.156163008333333, 250.037275726488, 0.000393318126976484, 1.54375,112.371131896973
0.15682976, 250.04019489257, 0.00033749693084175, 1.55,112.371131896973
0.15749639, 250.043648941262, 0.000221171773713895, 1.5575,100.47119140625
0.158163073333333, 250.046745870994, 0.000233372160935404, 1.56375,106.624519348145
0.158829851666667, 250.050170016972, 0.000366343481896156, 1.57,107.511840820313
0.159496476666667, 250.053627986857, 0.000284303602665353, 1.57625,103.742240905762
0.160163541666667, 250.056682352246, 0.00044553050438061, 1.58375,103.742240905762
0.160829763333333, 250.060043446686, 0.000420990237010597, 1.59,107.033996582031
