Time (min), Depth (µm), Load (N), Position (µm), Acoustic (aJ)
8.36833333333333E-06, 249.49830614777, -8.56945033712687E-05, 0,101.312164306641
0.000663595, 249.498123387241, 1.48829447475127E-05, 0,101.312164306641
0.001330235, 249.496873723603, -0.000221253194395231, 0.00374999999999998,110.824119567871
0.00199713166666667, 249.493928552185, -2.17677143373054E-05, 0.0125,96.7408676147461
0.00266394166666667, 249.492932274366, 0.00012022115372989, 0.02,127.97338104248
0.00333017833333333, 249.492933305241, -0.000289193781812443, 0.02875,127.97338104248
0.00416352166666667, 249.493808921946, -0.000140549748041525, 0.0375,102.615608215332
0.00483019, 249.497075001153, 0.000231242577211392, 0.045,102.615608215332
0.00549700333333333, 249.503292354783, -4.04372765940244E-05, 0.05125,107.370971679688
0.00616521666666667, 249.509019501289, 0.000138334243905476, 0.06,105.379447937012
0.00683031166666667, 249.514049555381, 0.000178001251496598, 0.06625,104.684326171875
0.00749711666666667, 249.519639066004, -1.05272789039142E-05, 0.0725,99.4883117675781
0.008163585, 249.524598896651, -2.3080148402697E-05, 0.07875,99.4883117675781
0.00883023333333333, 249.529091572977, 8.26975384935972E-05, 0.085,108.928649902344
0.00949725, 249.533433745034, -6.58534999643184E-05, 0.09375,103.46321105957
0.0101637733333333, 249.540286195254, 2.05901580583431E-05, 0.1,107.25218963623
0.0109968916666667, 249.545202578885, -0.000113840589623082, 0.10625,110.376007080078
0.01166372, 249.550470977159, -5.02197852098916E-05, 0.115,103.102195739746
0.0123302216666667, 249.556097696556, -0.00013764889375678, 0.12125,103.102195739746
0.0129971583333333, 249.560884213622, -0.000180048764014466, 0.1275,109.627716064453
0.0136641366666667, 249.565816224712, -0.000110449259952201, 0.13375,102.765594482422
0.0143301483333333, 249.569696713868, 0.000395412331137193, 0.14,102.514869689941
0.01499691, 249.573803381112, 0.000503361908973233, 0.14625,100.498146057129
0.0156635166666667, 249.577666017589, 0.000689219073565207, 0.1525,100.498146057129
0.0163301866666667, 249.582504452202, 0.000658536614679894, 0.16,103.250297546387
0.016997265, 249.587223895208, 0.000485971782445034, 0.1675,107.324493408203
0.01766364, 249.592774986612, 7.26915410778823E-05, 0.17375,103.939102172852
0.0183301816666667, 249.597795312628, 0.000149274694373199, 0.17875,104.253082275391
0.0189971266666667, 249.602856709067, 6.79067814238341E-05, 0.18625,104.253082275391
0.0196635866666667, 249.607828742077, 0.000193678464037465, 0.19375,124.097770690918
0.0203304066666667, 249.612234167195, 0.000697593152911366, 0.2,112.111625671387
0.02099697, 249.616751379362, 0.000960705437037586, 0.20625,106.23072052002
0.02166369, 249.621650352935, 0.000934413257667011, 0.2125,106.568580627441
0.0223302183333333, 249.626646251205, 0.000965545693937063, 0.22,106.568580627441
0.0229977316666667, 249.63114642404, 0.000758206608385926, 0.22625,99.919921875
0.0236635933333333, 249.635758746002, 0.000353652928705969, 0.23375,102.615982055664
0.0243302816666667, 249.640735265753, -1.513054766266E-05, 0.24,108.698669433594
0.0249969, 249.645287046364, 0.000120014164183495, 0.245,105.613174438477
0.0256636433333333, 249.649570295099, 8.55233965794334E-05, 0.25375,105.613174438477
0.0263308183333333, 249.654375042184, 0.000340767075947155, 0.26,105.582069396973
0.02699692, 249.658732979487, 0.000256525307309796, 0.26625,107.357032775879
0.0276635383333333, 249.663788434176, 0.000530258557963337, 0.2725,104.145172119141
0.0283303516666667, 249.668868260068, 0.000246681301729633, 0.27875,105.540885925293
0.02899703, 249.673673888358, 0.000362502484172977, 0.28625,105.540885925293
0.0296638283333333, 249.678529773713, 0.000372075003351134, 0.2925,105.073486328125
0.0303301583333333, 249.683503814017, 0.000636085742364939, 0.29875,103.24698638916
0.030997435, 249.687942051861, 0.000703507355874862, 0.305,104.594100952148
0.031663705, 249.692656829787, 0.000843051346718411, 0.3125,100.521408081055
0.0323301966666667, 249.698379051155, 0.000873219331427136, 0.31875,100.521408081055
0.032997225, 249.704173484854, 0.000551074512402438, 0.325,104.508476257324
0.0336636966666667, 249.710061511583, 0.000392377983559304, 0.33125,105.117866516113
0.034330145, 249.716223741424, 6.00891740950462E-05, 0.33875,106.970863342285
0.034997015, 249.722527298378, -3.25971703779335E-05, 0.345,101.486122131348
0.0356635633333333, 249.727696753859, -5.42395832907537E-05, 0.3525,101.486122131348
0.0363302183333333, 249.732960927427, 0.000296772785687487, 0.35875,127.88272857666
0.0369970966666667, 249.73806059641, 0.000652115437225588, 0.36375,106.937545776367
0.037663525, 249.743359697626, 0.000755242757233736, 0.3725,103.402633666992
0.038330275, 249.748860661317, 0.000609684068491672, 0.37875,105.719505310059
0.038996855, 249.75446355941, 0.000610605022245305, 0.385,105.719505310059
0.03966366, 249.760323251706, 0.000268986681377472, 0.39,104.267784118652
0.0403303533333333, 249.766265534853, -0.000244625020463819, 0.3975,108.666610717773
0.0409968283333333, 249.772170922251, -0.000278902798696347, 0.405,105.359710693359
0.04166361, 249.777502262933, -0.000455239941506786, 0.41,103.567886352539
0.042330185, 249.783055938292, -0.00039356153953588, 0.4175,103.567886352539
0.0429968533333333, 249.787584444658, -0.000246210440834366, 0.42375,105.22208404541
0.043663555, 249.792537172069, 0.000149043705972589, 0.43125,108.863693237305
0.0443301933333333, 249.797042651517, 0.000320533092240281, 0.4375,103.201370239258
0.0449971783333333, 249.801979852522, 0.000816982656083921, 0.44375,100.491744995117
0.0456636633333333, 249.806575909922, 0.000835764712713393, 0.45125,100.491744995117
0.0463302366666667, 249.812470098879, 0.000763499842497695, 0.4575,104.195190429688
0.0469970033333333, 249.817709226508, 0.00104712659625796, 0.4625,99.475700378418
0.0476635366666667, 249.822589765925, 0.00130562061236015, 0.47,109.741905212402
0.048330275, 249.82768503426, 0.00112000643560652, 0.4775,105.170143127441
0.04899692, 249.832887595078, 0.00137900442639322, 0.4825,105.170143127441
0.04966368, 249.837802979949, 0.00142185427409941, 0.49,106.31241607666
0.0503302266666667, 249.843057867361, 0.00108750156829495, 0.49625,105.320907592773
0.0509969566666667, 249.847730637759, 0.00110612163300385, 0.50375,108.38020324707
0.0516636716666667, 249.852861555324, 0.00121085687226985, 0.51,100.556144714355
0.0523302333333333, 249.858199254685, 0.00117418521424338, 0.51625,100.556144714355
0.0529973283333333, 249.862262243232, 0.00129544362356246, 0.5225,123.16081237793
0.0536636866666667, 249.867051698775, 0.00139824845976015, 0.52875,103.414779663086
0.054330285, 249.872096951958, 0.00138819446476353, 0.535,104.301094055176
0.0549970283333333, 249.876314189841, 0.00149044732871705, 0.5425,102.357025146484
0.0556635866666667, 249.880619451906, 0.00158121076976499, 0.54875,102.357025146484
0.056330205, 249.885566535483, 0.00181887083229273, 0.555,103.54598236084
0.056997105, 249.890211473763, 0.00176896683890654, 0.5625,107.09139251709
0.05766368, 249.89497565502, 0.0016265939901496, 0.56875,113.478210449219
0.05833054, 249.899828174604, 0.00143833544618418, 0.575,106.616119384766
0.0589973466666667, 249.904465425822, 0.00131806098746493, 0.58125,106.616119384766
0.0596636483333333, 249.908969398476, 0.00124808800214123, 0.58875,102.807548522949
0.0603301516666667, 249.91334704185, 0.00120383722485112, 0.5925,103.24227142334
0.0609968983333333, 249.917934177315, 0.00139274673611382, 0.60125,108.018112182617
0.061664345, 249.92233080154, 0.00135639756187656, 0.60875,104.978141784668
0.0623306666666667, 249.927630340214, 0.00104213184712369, 0.615,104.978141784668
0.0629969616666667, 249.932779753975, 0.000902227874359601, 0.62125,103.738998413086
0.0636638833333333, 249.937962165638, 0.000949550497358943, 0.6275,108.703262329102
0.0643301516666667, 249.943411417998, 0.000504047374510538, 0.635,102.758247375488
0.0649972516666667, 249.948896015853, 0.000735343256753804, 0.64125,103.206909179688
0.0656636683333333, 249.953875459278, 0.000864566265993192, 0.6475,103.206909179688
0.06633051, 249.959395682286, 0.000882134883525379, 0.65375,103.10619354248
0.0669970866666667, 249.964127433082, 0.00104128288972016, 0.66125,101.808219909668
0.06766354, 249.969847827093, 0.00119829050338767, 0.6675,107.865112304688
0.068330285, 249.975331298671, 0.000936340660844009, 0.67375,100.394752502441
0.068997135, 249.980425770655, 0.000855058243585629, 0.68,100.394752502441
0.0696637316666667, 249.985769264025, 0.000725988226677882, 0.6875,136.099258422852
0.0703302583333333, 249.991078117668, 0.000471998484323825, 0.69375,101.002365112305
0.07099715, 249.996485460141, 0.000497278214552168, 0.7,102.219940185547
0.0716636833333333, 250.001929766937, 0.000598628123844898, 0.7075,105.784736633301
0.0723302333333333, 250.007263087215, 0.000895523211108063, 0.71375,105.784736633301
0.0729971283333333, 250.01221297141, 0.00101090491559498, 0.72,107.659439086914
0.0736636833333333, 250.0172332379, 0.00154396914038027, 0.72625,106.048484802246
0.0743301516666667, 250.022051893872, 0.00176150171394004, 0.7325,104.984367370605
0.0749971, 250.026922825364, 0.00200610492778445, 0.74,104.984367370605
0.07566353, 250.032125948989, 0.00203011122200314, 0.74625,102.855247497559
0.07633034, 250.037374888923, 0.00197908978474524, 0.75375,102.412033081055
0.0769971783333333, 250.04315796754, 0.00172181670727733, 0.75875,110.019248962402
0.077663715, 250.047730589757, 0.00158289668509181, 0.765,105.029479980469
0.07833018, 250.053437847597, 0.00112313527842181, 0.7725,98.1687088012695
0.0789970983333333, 250.058054124188, 0.000853934800101319, 0.78,98.1687088012695
0.0796636033333333, 250.063170570279, 0.000956706637983386, 0.78625,105.470100402832
0.0803301666666667, 250.0678513404, 0.000715337261726258, 0.7925,105.974472045898
0.0809970383333333, 250.073130491938, 0.000885208229307786, 0.79875,112.778312683105
0.081663595, 250.077624204226, 0.000985164708617348, 0.80625,104.30330657959
0.0823303483333333, 250.08317527655, 0.00091439676321115, 0.8125,104.30330657959
0.082996855, 250.088338719848, 0.000817920109112261, 0.81875,107.368385314941
0.0836639933333333, 250.093711761324, 0.000742332905748232, 0.82625,102.771133422852
0.0843302833333333, 250.09893458281, 0.000660597511213798, 0.8325,103.048622131348
0.084997115, 250.104011744139, 0.000575691275980779, 0.83875,125.220367431641
0.0856636533333333, 250.109101063963, 0.000659478567438935, 0.84625,125.220367431641
0.0863303316666667, 250.113730999572, 0.000718335611097215, 0.8525,105.718620300293
0.086997185, 250.119131223233, 0.000780379994665024, 0.85875,104.435905456543
0.08766351, 250.123481260642, 0.000544500342659, 0.86625,104.973762512207
0.0883302766666667, 250.128436907662, 0.000751357952391675, 0.8725,103.119842529297
0.088997445, 250.133188377603, 0.00104251882772601, 0.87875,103.119842529297
0.08966388, 250.138591489832, 0.00100587566828446, 0.885,103.940063476563
0.09033021, 250.143092886409, 0.000830255489466301, 0.8925,104.285697937012
0.0909970916666667, 250.148499226533, 0.00124218879846428, 0.89875,105.321174621582
0.091664295, 250.153182006026, 0.00114857850045262, 0.905,105.511657714844
0.092330355, 250.157898737515, 0.00107640212577671, 0.91125,105.511657714844
0.0929969083333333, 250.161921119551, 0.00113898948204227, 0.91875,103.925979614258
0.0936637816666667, 250.166838011244, 0.00125489016052149, 0.925,100.331100463867
0.0943302466666667, 250.171618609667, 0.000868791553844825, 0.9325,107.379386901855
0.0949970433333333, 250.176337958995, 0.000937179118776717, 0.93875,105.1982421875
0.0956636266666667, 250.181295215709, 0.000929309014051306, 0.945,105.1982421875
0.0963302433333333, 250.186199361695, 0.000706037728746986, 0.95125,100.421142578125
0.0969968383333333, 250.190845870116, 0.000876258178735726, 0.9575,112.435333251953
0.097663565, 250.194995361601, 0.00128439667837709, 0.96625,106.544921875
0.09833023, 250.199912430229, 0.00111496368882759, 0.9725,106.597518920898
0.0989968366666667, 250.20445355477, 0.000973429297982103, 0.97875,106.597518920898
0.0996637066666667, 250.209557678231, 0.00126377721407733, 0.98375,104.738021850586
0.100330218333333, 250.213964037322, 0.00125303625355524, 0.99125,106.995010375977
0.100996918333333, 250.219157911585, 0.00103355977760753, 0.99875,108.755065917969
0.10166391, 250.223384888111, 0.0012467635685956, 1.005,122.960037231445
0.102330251666667, 250.228052644391, 0.00124620709653572, 1.01125,122.960037231445
0.1029969, 250.232201926925, 0.00114979793909874, 1.01875,106.694747924805
0.103663738333333, 250.23654652979, 0.00101750608397768, 1.025,100.420440673828
0.104330353333333, 250.240911067246, 0.00107347277284329, 1.03125,105.717918395996
0.104997128333333, 250.245187961766, 0.000890690453788094, 1.03875,112.163551330566
0.105663535, 250.249421934907, 0.000961716386212906, 1.045,112.163551330566
0.106330366666667, 250.253532194102, 0.00111832202007658, 1.05,103.678367614746
0.10699706, 250.25781948902, 0.00120661658513167, 1.05875,105.198745727539
0.107663675, 250.262060290446, 0.00113447320881389, 1.065,102.987197875977
0.108330308333333, 250.266775047531, 0.0012044266951416, 1.07,105.150001525879
0.108996921666667, 250.271271743101, 0.00119290877371486, 1.07625,105.150001525879
0.109663601666667, 250.27591085566, 0.000869009042840789, 1.08375,103.143257141113
0.11033035, 250.280254842306, 0.00094679513572006, 1.09125,107.340713500977
0.11099692, 250.284558944407, 0.000937953079896322, 1.0975,104.552093505859
0.11166375, 250.28879923229, 0.000796415689159524, 1.105,108.004417419434
0.112330201666667, 250.292326265043, 0.000755613238646357, 1.11,108.004417419434
0.112997093333333, 250.296624579998, 0.00104158437458898, 1.1175,107.812805175781
0.113663731666667, 250.300231852079, 0.00120739954588271, 1.12375,102.495101928711
0.114330303333333, 250.304450750411, 0.00120471468073329, 1.13,104.821929931641
0.114996888333333, 250.309024121298, 0.00103147788221699, 1.13625,106.237724304199
0.115663551666667, 250.313237720981, 0.00110946046521434, 1.1425,106.237724304199
0.116330251666667, 250.317185743341, 0.00103487221171543, 1.15,104.047836303711
0.116997013333333, 250.321860031822, 0.000814209295394707, 1.1575,107.714447021484
0.117663975, 250.326254440224, 0.000864411773758403, 1.1625,102.729675292969
0.11833016, 250.32988545239, 0.0012269225652099, 1.16875,129.553634643555
0.11899743, 250.3342907096, 0.00148016384518046, 1.17625,129.553634643555
0.119663611666667, 250.33900215225, 0.00123402320854641, 1.1825,105.450897216797
0.12033039, 250.343570830822, 0.00102874801931422, 1.19,103.042747497559
0.120997656666667, 250.347626387426, 0.00122401121145434, 1.1975,105.950294494629
0.121663731666667, 250.352207716632, 0.00119331975306511, 1.2025,102.580680847168
0.12233022, 250.356586620275, 0.000733538847399128, 1.21,102.580680847168
0.122997058333333, 250.360914366684, 0.00115187083500662, 1.21625,103.583869934082
0.12366369, 250.365472387925, 0.00116757054645604, 1.2225,101.359153747559
0.124330291666667, 250.369738753594, 0.000904965236884391, 1.22875,104.21590423584
0.124996958333333, 250.374525434782, 0.000548764628481355, 1.23625,110.771812438965
0.125663656666667, 250.378529365639, 0.000759877524489966, 1.2425,110.771812438965
0.12633034, 250.382574860776, 0.000802100403689322, 1.24875,99.9442367553711
0.126997115, 250.386572100228, 0.000883483315882719, 1.255,101.970527648926
0.127663545, 250.390752631121, 0.00114744605727311, 1.2625,102.196586608887
0.128330326666667, 250.394124889353, 0.00153091529602453, 1.26875,108.066459655762
0.128996998333333, 250.398658486804, 0.00152127378030257, 1.275,108.066459655762
0.1296636, 250.402713900497, 0.00120370673136427, 1.28125,108.025047302246
0.130330158333333, 250.407080724242, 0.00140183177975465, 1.2875,100.37442779541
0.13099712, 250.411325359465, 0.00148918739198452, 1.295,112.175933837891
0.131663818333333, 250.415655412207, 0.00173078325686905, 1.3025,103.061233520508
0.132330131666667, 250.419605631218, 0.00184320560999824, 1.3075,103.061233520508
0.13299707, 250.423484563847, 0.00206724035699385, 1.31375,101.685813903809
0.133663628333333, 250.427523041298, 0.00211268957411597, 1.3225,103.776840209961
0.134331058333333, 250.431075322951, 0.00206265508730669, 1.32875,104.396751403809
0.134996848333333, 250.434808648536, 0.00182752539760857, 1.33375,121.447471618652
0.135663635, 250.438997405217, 0.00167707695446172, 1.34125,121.447471618652
0.136330786666667, 250.443212999094, 0.00148379666274403, 1.3475,105.909652709961
0.13699718, 250.447526987393, 0.00104296130546747, 1.355,105.115364074707
0.137663686666667, 250.451763278644, 0.000789183052475531, 1.36,106.94319152832
0.138330296666667, 250.455792660547, 0.000417404226542243, 1.3675,102.979499816895
0.138997063333333, 250.459763359814, 0.000607452180682067, 1.37375,102.979499816895
0.139664403333333, 250.463460627167, 0.000632976398609396, 1.38,111.069267272949
0.14033023, 250.466699971609, 0.000951129918074385, 1.3875,108.62425994873
0.14099687, 250.471157250432, 0.00103576316704476, 1.39375,106.482749938965
0.141663573333333, 250.475436073875, 0.00105184385933512, 1.40125,112.016616821289
0.142330201666667, 250.479804413051, 0.000563829871759423, 1.40625,112.016616821289
0.142996888333333, 250.484097006901, 0.000512440953001464, 1.41375,108.80012512207
0.143663543333333, 250.488241717119, 0.000503111421597889, 1.42,105.098159790039
0.144330216666667, 250.491495053804, 0.000634414826367169, 1.42625,104.571662902832
0.144997116666667, 250.49550583726, 0.000690985984809802, 1.43375,109.393310546875
0.145663651666667, 250.498823884472, 0.00116224581391055, 1.44,109.393310546875
0.146330253333333, 250.502418495958, 0.00143858743354769, 1.44625,101.77352142334
0.146997186666667, 250.505898357169, 0.00134637056549795, 1.4525,106.523063659668
0.147663545, 250.509877247123, 0.00140541509972789, 1.46,104.845169067383
0.148330315, 250.513075987698, 0.00170162172158369, 1.46625,105.802505493164
0.148997513333333, 250.516913511904, 0.00161381163221712, 1.4725,105.802505493164
0.14966375, 250.520703927178, 0.00141551859225107, 1.47875,105.021667480469
0.150330195, 250.524788254855, 0.00148868491720316, 1.48625,104.691604614258
0.150997035, 250.52840963351, 0.00128625508503154, 1.4925,106.284774780273
0.151663673333333, 250.532219715705, 0.00125764402215095, 1.49875,121.873069763184
0.152330228333333, 250.535945012165, 0.0013790689231213, 1.50375,121.873069763184
0.152997016666667, 250.539740306785, 0.00161745944902472, 1.51125,102.986282348633
0.153663703333333, 250.5434790958, 0.00185314261091266, 1.51875,100.132942199707
0.154330155, 250.547853841428, 0.00177683244387999, 1.525,103.247550964355
0.154997096666667, 250.552531803123, 0.00161939735169379, 1.5325,102.136535644531
0.155663648333333, 250.556927172607, 0.00128636907934995, 1.53875,102.136535644531
0.156330243333333, 250.561638532309, 0.00104825903935245, 1.545,105.158058166504
0.15699699, 250.565683111084, 0.000712851886479962, 1.5525,102.605323791504
0.157663645, 250.570080790208, 0.000626438226924111, 1.55875,99.9731597900391
0.158330261666667, 250.574212648433, 0.000479697597518485, 1.565,107.071067810059
0.158997231666667, 250.57887390665, 0.000687036683048368, 1.57125,107.071067810059
0.15966355, 250.583159716761, 0.000661239478815884, 1.57875,107.068214416504
0.160330216666667, 250.587572352234, 0.000837899105415532, 1.585,105.518981933594
0.160997078333333, 250.591336442091, 0.00109438172253163, 1.59125,107.044960021973
0.161664135, 250.595835495602, 0.00127602559873096, 1.59875,102.000900268555
0.162330196666667, 250.599402530293, 0.00117310076855976, 1.605,102.000900268555
0.162997035, 250.602954142531, 0.00142729750052398, 1.61125,102.585060119629
