Time (min), Depth (µm), Load (N), Position (µm), Acoustic (aJ)
7.575E-06, 249.254873635493, -0.00128325271489144, 0,107.555107116699
0.000665903333333333, 249.254246448809, -0.00122625707769391, 0,107.555107116699
0.00133113166666667, 249.252143613396, -0.000892598837015683, 0.00374999999999998,110.373519897461
0.00199815333333333, 249.249441131917, -0.000690339996268544, 0.0125,103.523223876953
0.00266468666666667, 249.248104372454, -0.000535961750505029, 0.02125,103.793090820313
0.00333134833333333, 249.248356985643, -0.000477113706414423, 0.02875,103.793090820313
0.00399810166666667, 249.25089292569, -0.000680447993149985, 0.035,100.746673583984
0.00466615, 249.25531170792, -0.000785076737762097, 0.04375,105.992134094238
0.00533111666666667, 249.261533244432, -0.00052787865653561, 0.05,106.71280670166
0.00599817833333333, 249.267783509372, -0.00055412883800164, 0.0575,104.089988708496
0.00666516166666667, 249.273105949721, -0.000496456734813221, 0.06375,104.593772888184
0.00733115666666667, 249.277812089997, -0.000457310201117554, 0.07125,104.593772888184
0.00799798166666667, 249.283013237577, -0.000305267338053739, 0.07875,106.709426879883
0.00866462166666667, 249.287771050712, -0.000543242384833688, 0.08375,106.789573669434
0.00933118333333333, 249.292572007534, -0.00091725909835921, 0.09125,105.616432189941
0.009998065, 249.297245618535, -0.000922562831963056, 0.09875,105.616432189941
0.0106646866666667, 249.301466418049, -0.000955427681195175, 0.105,102.127494812012
0.0113311883333333, 249.306107244514, -0.00098060241671529, 0.11125,125.657066345215
0.0119981466666667, 249.310538652162, -0.000999162484448063, 0.1175,104.153137207031
0.0126645816666667, 249.315241766264, -0.000624235316682239, 0.125,107.694213867188
0.0133311966666667, 249.319685811451, -0.000911974863857623, 0.1325,104.863998413086
0.0141647666666667, 249.323929500897, -0.000904952216590087, 0.14,103.815483093262
0.0148311383333333, 249.327352949494, -0.00110680907755464, 0.145,103.815483093262
0.015497945, 249.33035371875, -0.000977419576621478, 0.15125,106.018486022949
0.01616461, 249.333144232502, -0.00129241875451381, 0.15875,104.545631408691
0.016831235, 249.336307966313, -0.000853777786958031, 0.16625,105.774963378906
0.0174980416666667, 249.339416054747, -0.000562610912011104, 0.17125,107.161430358887
0.0181647466666667, 249.34347395858, -0.000226440297511083, 0.1775,107.161430358887
0.0188312316666667, 249.34792469943, -0.000222640988360008, 0.185,103.946571350098
0.0194979116666667, 249.352022954916, 0.000156037490997241, 0.1925,102.528213500977
0.0201647216666667, 249.356789062506, -0.000222781981275169, 0.1975,103.574867248535
0.0208311666666667, 249.361578454287, -0.000442451947492153, 0.205,104.762847900391
0.02149794, 249.366162921445, -0.000338544666666786, 0.2125,104.762847900391
0.02216456, 249.370897182823, -0.000615819239431534, 0.21875,105.926872253418
0.0228313966666667, 249.375759956763, -0.000276501782980872, 0.22375,109.238632202148
0.0234981083333333, 249.380361801689, -0.000239099661642497, 0.23125,105.816253662109
0.0241645683333333, 249.385445968592, -0.000272111503466135, 0.23875,106.899627685547
0.02483111, 249.390021467471, -0.000540112042072737, 0.245,106.899627685547
0.0254978833333333, 249.394889354955, -0.000637424154213019, 0.25125,102.79271697998
0.0261645166666667, 249.399237241107, -0.00101573215220016, 0.25875,112.856399536133
0.0268314616666667, 249.404097263524, -0.00101138987033008, 0.265,102.664779663086
0.02749804, 249.408705174499, -0.00105349125563152, 0.27125,124.369682312012
0.0281646116666667, 249.413791338837, -0.00102654060934165, 0.2775,124.369682312012
0.02883119, 249.418105514681, -0.00082078094439968, 0.28375,103.039939880371
0.0294978933333333, 249.423031631045, -0.00089132540100603, 0.29125,103.052925109863
0.0301645216666667, 249.427669540877, -0.000707959611251695, 0.29875,108.026702880859
0.0308311883333333, 249.432709213527, -0.000773881300082057, 0.30375,108.63313293457
0.0314982716666667, 249.437490219021, -0.00109572463423794, 0.31,108.63313293457
0.032164645, 249.442773608322, -0.00108164934127856, 0.3175,101.97550201416
0.0328311083333333, 249.447594520604, -0.00101399373956173, 0.32375,113.00643157959
0.0334980783333333, 249.454810643897, -0.000823074329279852, 0.3325,105.592155456543
0.0343312066666667, 249.459549703615, -0.000640735987911781, 0.33875,111.41446685791
0.034998115, 249.465093211679, -0.000388720146369969, 0.345,108.17195892334
0.0356647566666667, 249.47017786296, -0.000769774506385806, 0.3525,108.17195892334
0.0363311, 249.475935365186, -0.000731265440625286, 0.35875,111.191474914551
0.0369978866666667, 249.48141803594, -0.00122283724948062, 0.36625,113.090316772461
0.0378311533333333, 249.486947566785, -0.00168309513121311, 0.3725,109.072952270508
0.038497945, 249.491750981833, -0.00179475252276912, 0.38,103.186233520508
0.0391648166666667, 249.496619874341, -0.00154477807874397, 0.3875,103.186233520508
0.0398312733333333, 249.50189723918, -0.00147891638693225, 0.39375,99.7967300415039
0.0404985766666667, 249.507346803131, -0.00123225227659644, 0.39875,106.210479736328
0.0411646683333333, 249.512144275669, -0.00084220586823152, 0.40625,108.48291015625
0.04183119, 249.517275661479, -0.000560235031352516, 0.41375,106.026168823242
0.0424982333333333, 249.522742660056, -0.000618501104689641, 0.42,105.211311340332
0.0431648, 249.527773615383, -0.000916998111491789, 0.425,105.211311340332
0.043831415, 249.532415001564, -0.0010587664906292, 0.4325,127.598159790039
0.0444983133333333, 249.537743018138, -0.0014327067079889, 0.44,103.62858581543
0.0451645283333333, 249.543390493044, -0.00164023778392742, 0.44625,107.727363586426
0.045831185, 249.548218723164, -0.00169933031575952, 0.45125,104.00813293457
0.04649791, 249.553074037296, -0.00172343110519436, 0.45875,104.00813293457
0.0471645216666667, 249.558024343243, -0.00164900334362784, 0.465,104.346221923828
0.0478314133333333, 249.562436517036, -0.00148367864772024, 0.4725,107.62629699707
0.0484984416666667, 249.567144073763, -0.00147341016349145, 0.47875,103.584106445313
0.0491645166666667, 249.571734825545, -0.00166606648659362, 0.485,103.38011932373
0.0498312583333333, 249.576371809411, -0.00184223863763469, 0.49125,103.38011932373
0.0504980716666667, 249.580786042031, -0.00166234967328473, 0.49875,104.111961364746
0.05116483, 249.585858794412, -0.00171205717655284, 0.505,104.002006530762
0.051831165, 249.589682526248, -0.00140428913544135, 0.51125,101.718864440918
0.05249788, 249.59413644182, -0.000849568998444867, 0.51875,103.398292541504
0.053164765, 249.597968897225, -0.000466923218382124, 0.52375,103.398292541504
0.05383117, 249.602577184598, -0.000262129504947143, 0.53125,103.704345703125
0.0544978733333333, 249.606327467785, -0.000170446610069975, 0.5375,106.222305297852
0.0551647233333333, 249.610649154939, -8.29515048493432E-05, 0.54375,101.183952331543
0.0558311933333333, 249.614865699033, -0.000563503367243584, 0.55125,99.7556762695313
0.0564979633333333, 249.619758254612, -0.000539438575951912, 0.5575,99.7556762695313
0.0571646033333333, 249.623732160385, -0.000567467668121525, 0.56375,101.753257751465
0.0578314416666667, 249.628519947941, -0.000401589500024109, 0.57125,107.257827758789
0.0584984166666667, 249.633040922096, -0.000333398425189045, 0.5775,108.470672607422
0.05916461, 249.637398717846, -0.000141312073445128, 0.58375,103.716133117676
0.0598312466666667, 249.641749891725, -0.000367008736934599, 0.58875,103.716133117676
0.06049804, 249.646783764995, -0.000689452040936799, 0.595,124.514541625977
0.0611650866666667, 249.650786041123, -0.000490290544592485, 0.60375,107.063255310059
0.061831205, 249.654663003077, -0.000867715086957324, 0.61,98.8283462524414
0.0624985533333333, 249.659309272058, -0.000702004910414327, 0.61625,105.257865905762
0.0631645633333333, 249.663218820267, -0.000513027902532225, 0.62375,105.257865905762
0.0638311833333333, 249.667391946609, -3.07571264742938E-05, 0.63,106.697074890137
0.064497915, 249.672111193344, -0.000318894153701558, 0.63625,107.806030273438
0.06516462, 249.676887626757, -0.000157638753358876, 0.6425,99.7878875732422
0.0658311733333333, 249.681489187287, 3.88858753956653E-05, 0.65,107.357872009277
0.0664982633333333, 249.686248839916, 0.000134744560491634, 0.65625,107.357872009277
0.0671645166666667, 249.690515672836, 0.000241456700439936, 0.6625,110.31941986084
0.067831195, 249.694980783454, 0.00066852124947474, 0.66875,105.209762573242
0.0684978833333333, 249.69969879052, 0.000854534406183399, 0.67625,104.816856384277
0.0691645216666667, 249.704596227808, 0.000787132291733226, 0.6825,102.559959411621
0.06983114, 249.709316798943, 0.000864132424118919, 0.68875,102.559959411621
0.0704978866666667, 249.714313857748, 0.00047586792624263, 0.69625,107.633583068848
0.0711645133333333, 249.719387473888, 0.000331159694785992, 0.7025,99.8157119750977
0.071831185, 249.723441502252, 0.000501336646967038, 0.70875,104.829803466797
0.0724980333333333, 249.727732168178, 0.000727763773768419, 0.715,108.484733581543
0.07316461, 249.732014872251, 0.000812062539511848, 0.72125,108.484733581543
0.07383117, 249.735858095946, 0.00119267292186181, 0.72875,101.074127197266
0.0744978783333333, 249.739669230511, 0.00121762416856083, 0.735,104.172630310059
0.0751646383333333, 249.745011182135, 0.00102233697767277, 0.7425,107.016754150391
0.0758312116666667, 249.749397590177, 0.000839253173791262, 0.74875,108.703514099121
0.07649799, 249.754291946337, 0.000820078136968137, 0.75375,108.703514099121
0.07716453, 249.758894381719, 0.000585714908767602, 0.76125,124.549545288086
0.0778313466666667, 249.763860102056, 0.000593884998394918, 0.76875,104.864517211914
0.0784980983333333, 249.768131650798, 0.000412880090055139, 0.775,102.454360961914
0.0791650016666667, 249.772893604157, 0.000326271440305611, 0.78125,104.247047424316
0.0798312483333333, 249.777196010458, 6.75419360083487E-05, 0.78875,104.247047424316
0.0804979666666667, 249.782444785991, 0.000343496575128197, 0.795,106.089408874512
0.0811646983333333, 249.787114647659, 0.000396163429711527, 0.80125,106.597732543945
0.0818312066666667, 249.792630566555, 0.000474714484206492, 0.8075,103.344451904297
0.08249807, 249.797756678067, 0.000584703959571027, 0.815,109.538482666016
0.083164635, 249.80362435491, 0.000626568356752988, 0.82125,109.538482666016
0.0838311716666667, 249.808895027456, 0.000262080664576674, 0.8275,111.982147216797
0.0844980233333333, 249.814253808545, 0.000326065950683618, 0.83375,104.554824829102
0.0851646916666667, 249.818835351167, 0.000595876898321256, 0.84125,105.5107421875
0.0858312783333333, 249.823010855187, 0.000720004663491358, 0.8475,104.589584350586
0.0864979566666667, 249.827707765787, 0.000889368656518314, 0.85375,104.589584350586
0.0871645166666667, 249.832612735554, 0.00109013057245595, 0.86125,106.508895874023
0.0878311266666667, 249.837283728718, 0.000958737172201223, 0.8675,104.421188354492
0.0884978716666667, 249.841868098785, 0.00108392238430942, 0.87375,109.652854919434
0.08916514, 249.846733466855, 0.000738660726449702, 0.88125,102.693817138672
0.0898311966666667, 249.851545129089, 0.000518803269682311, 0.8875,102.693817138672
0.090497985, 249.856178641651, 0.000494296000627916, 0.89375,106.178916931152
0.0911646166666667, 249.860544440332, 0.000326268440478058, 0.90125,108.599571228027
0.091831155, 249.865529661965, 0.000314005056452866, 0.9075,105.817947387695
0.092498335, 249.870537007887, 0.000648830238550624, 0.915,99.4255218505859
0.0931647266666667, 249.874817479442, 0.000580471172139886, 0.92,99.4255218505859
0.0938313716666667, 249.879721069331, 0.000329061300184514, 0.92625,124.241020202637
0.0944980633333333, 249.884358222053, 0.000259755781326542, 0.93375,108.260772705078
0.0951645133333333, 249.88899167775, -0.000208114218048981, 0.94,104.120246887207
0.0958312383333333, 249.893086973101, -0.000351643508733371, 0.9475,103.106552124023
0.0964980933333333, 249.897690164326, -8.03131373564225E-05, 0.955,103.106552124023
0.0971646633333333, 249.901415116092, 0.000168818349047827, 0.96125,107.985633850098
0.0978311933333333, 249.906186371943, 0.000202623651050821, 0.96625,102.798377990723
0.0984994516666667, 249.909764407592, 0.000299232298475942, 0.97375,103.21403503418
0.099166305, 249.914969675727, 0.000617838795195732, 0.98125,102.09903717041
0.099832755, 249.918969062692, 0.00062987119079906, 0.9875,102.09903717041
0.100499373333333, 249.924106858879, 0.00063920222208453, 0.9925,105.52840423584
0.101164703333333, 249.928858831581, 0.000458272310028676, 1,108.609741210938
0.101831515, 249.934352053164, 0.000458099818679793, 1.0075,107.648620605469
0.10249787, 249.93882870865, 0.000243018122020031, 1.01375,103.949905395508
0.103164613333333, 249.943899855324, 0.000219685294007182, 1.02,103.949905395508
0.10383115, 249.948594367494, 0.000361026194625899, 1.02625,104.709777832031
0.104497968333333, 249.953262172427, 0.000581863102219905, 1.0325,106.87385559082
0.105164663333333, 249.957782451684, 0.000819107685730451, 1.03875,108.892601013184
0.105831156666667, 249.962676932741, 0.000891377055698104, 1.0475,105.115249633789
0.106498303333333, 249.967827588466, 0.000561278136223922, 1.05375,105.115249633789
0.107164975, 249.97237747711, 0.000338627819686312, 1.05875,107.888595581055
0.10783122, 249.976952591645, 0.000262184159339245, 1.065,110.676651000977
0.108497936666667, 249.982063857737, -8.59408547163885E-05, 1.07375,105.602561950684
0.109164581666667, 249.987238939048, -0.000444239857742156, 1.08,106.826393127441
0.109831498333333, 249.991868345116, -0.00029434938657959, 1.085,106.826393127441
0.110498308333333, 249.996647349871, -0.000366087783223474, 1.0925,125.160804748535
0.111164678333333, 250.001532658759, -0.000313585920324502, 1.1,105.111038208008
0.111831185, 250.005600466646, 6.51375568073527E-05, 1.10625,103.280807495117
0.112498025, 250.009831124298, 0.000239446801442013, 1.1125,101.15705871582
0.113165161666667, 250.014263596243, 0.000233901579987989, 1.11875,101.15705871582
0.113831178333333, 250.018147336162, 0.000562043097775854, 1.125,103.549407958984
0.114497916666667, 250.022395665286, 0.000735011409738953, 1.1325,104.757606506348
0.11516456, 250.02700648343, 0.000470058717987361, 1.13875,101.61499786377
0.115831215, 250.030687184426, 0.000651506104089864, 1.145,105.761558532715
0.116497866666667, 250.034571307592, 0.000640537155058479, 1.15125,105.761558532715
0.117164738333333, 250.038569801505, 0.000108726867350617, 1.15875,106.681427001953
0.117831225, 250.041877906689, 0.000358179337640926, 1.165,104.858665466309
0.118498028333333, 250.045236102825, 0.000762191544568798, 1.17125,104.091522216797
0.11916454, 250.049232655021, 0.000619211226343524, 1.1775,104.534889221191
0.119831186666667, 250.052714943884, 0.000650105174569696, 1.18375,104.534889221191
0.12049809, 250.056266184729, 0.00105863215467401, 1.19125,105.008140563965
0.121164781666667, 250.060582438658, 0.000721632081808959, 1.19875,104.380928039551
0.121831223333333, 250.064406478387, 0.000203600102028628, 1.20375,101.021598815918
0.122497925, 250.068423139353, -4.94776861819777E-05, 1.21125,111.043418884277
0.123164556666667, 250.071906684523, -0.000207173765278105, 1.21875,111.043418884277
0.123831248333333, 250.075948241401, -0.000422325958384821, 1.22375,106.657196044922
0.124498015, 250.079379800358, -0.000576281225360347, 1.23,104.751533508301
0.125164643333333, 250.082709472885, -0.000177275767004475, 1.23875,104.958198547363
0.125831161666667, 250.084708754443, 0.000232670141819119, 1.245,127.85139465332
0.126497923333333, 250.088028330568, 0.00061864875452227, 1.25,127.85139465332
0.127165116666667, 250.091471479964, 0.000783811458530553, 1.25625,110.94278717041
0.127831361666667, 250.094471478578, 0.000984676869294524, 1.265,108.955070495605
0.12849786, 250.098352886143, 0.000614001987934576, 1.27125,101.444046020508
0.12916464, 250.10266490844, 0.000428116324800194, 1.2775,107.637870788574
0.129831176666667, 250.106793451381, 0.000504696478267958, 1.285,107.637870788574
0.130498, 250.110715167951, 0.000709515690417795, 1.29,106.277839660645
0.131164736666667, 250.114628215804, 0.000662403056834909, 1.29625,104.92765045166
0.131831206666667, 250.118160406248, 0.000825632357947327, 1.30375,103.646903991699
0.132498003333333, 250.122269820984, 0.000744742920925109, 1.31125,106.850654602051
0.133164521666667, 250.126100938708, 0.000192167676207858, 1.3175,106.850654602051
0.133831483333333, 250.129829947049, -5.22570466113128E-05, 1.3225,107.633514404297
0.134497863333333, 250.133406576419, 7.55244921306837E-06, 1.32875,104.497673034668
0.135165025, 250.137259315164, 8.43140935761351E-05, 1.33625,107.432418823242
0.135831318333333, 250.140902223323, 0.000489511240952614, 1.34375,102.87028503418
0.136498235, 250.144695325911, 0.000874285414147407, 1.34875,102.87028503418
0.137164521666667, 250.148546679615, 0.00119593525803401, 1.35625,105.889572143555
0.137831271666667, 250.152565280429, 0.00117504280742909, 1.3625,99.3313140869141
0.138497878333333, 250.157060257941, 0.0012139163548196, 1.36875,100.739555358887
0.139164516666667, 250.161069728167, 0.000764355935780256, 1.37625,106.985565185547
0.139831243333333, 250.165095518513, 0.000462412102083053, 1.3825,106.985565185547
0.140497926666667, 250.168974836267, 0.000135005547401563, 1.38875,107.864143371582
0.141164693333333, 250.173483006453, 0.000265797477843062, 1.395,106.023094177246
0.141831216666667, 250.17727854252, 0.000259145311945638, 1.4025,106.698631286621
0.142497965, 250.181637058908, 0.000257990369942588, 1.40875,128.386367797852
0.143164643333333, 250.185517772872, 0.000494772976609406, 1.415,128.386367797852
0.14383129, 250.190112076173, 0.000416482909003116, 1.4225,105.048782348633
0.144498508333333, 250.194118242896, 0.00021635996098879, 1.42875,104.041595458984
0.14516454, 250.197976459636, 3.53415101410128E-06, 1.435,108.58235168457
0.145831196666667, 250.201772292204, 7.26341802075729E-05, 1.44125,102.147109985352
0.146498146666667, 250.206253249309, -0.000336737257463303, 1.44875,102.147109985352
0.147164601666667, 250.209859350344, -8.51893924203236E-05, 1.455,107.078941345215
0.147831423333333, 250.213966182926, -0.000238606186471317, 1.46125,108.625289916992
0.148498243333333, 250.217712982011, -0.000343639910736071, 1.4675,106.069763183594
0.149164515, 250.221777704305, -0.00041711372025459, 1.475,105.779113769531
0.149831198333333, 250.225255534136, -0.000158628703698822, 1.48125,105.779113769531
0.150497845, 250.229069438159, -0.000331204035468267, 1.4875,102.747520446777
0.151164788333333, 250.232789230956, -0.000257926716089083, 1.49375,101.65274810791
0.151831163333333, 250.236809518024, -4.12685986264477E-05, 1.5,105.565582275391
0.152497955, 250.241308103261, 0.000125761511646465, 1.505,111.865074157715
0.153164651666667, 250.246335886045, 0.000253732083796592, 1.51375,111.865074157715
0.153831166666667, 250.250940027078, 9.2953616247031E-06, 1.52125,106.167785644531
0.154497838333333, 250.255520233194, 0.000235433002973748, 1.5275,101.541778564453
0.155164828333333, 250.260007792502, 0.000216095974251309, 1.53375,103.845291137695
0.155831156666667, 250.263915243566, 1.74639513276157E-05, 1.54,104.245834350586
0.156497911666667, 250.267417031799, 4.96883327545265E-05, 1.5475,104.245834350586
0.157164525, 250.270869829747, 0.000206355463497478, 1.55375,104.802200317383
0.157831381666667, 250.274304614573, -1.23140529937537E-05, 1.56,103.372093200684
0.158498338333333, 250.278061456038, -0.000228793679431147, 1.5675,103.411849975586
0.159164548333333, 250.2814171785, -8.43029370767442E-05, 1.57375,129.170059204102
0.159831253333333, 250.285032059973, -5.61403516352408E-05, 1.58,129.170059204102
