Time (min), Depth (µm), Load (N), Position (µm), Acoustic (aJ)
8.625E-06, 249.211885840808, 0.000641433312737163, 0,102.429550170898
0.000664376666666667, 249.212297867203, 0.000707379000357977, 0,105.633239746094
0.00132945333333333, 249.210643770948, 0.000840900793680995, 0.00374999999999998,101.107086181641
0.00199606166666667, 249.208871793642, 0.000893540649625066, 0.0125,105.84992980957
0.00266271833333333, 249.207380748933, 0.000952685678853788, 0.02,105.84992980957
0.00332929166666667, 249.208034028624, 0.000714002667627976, 0.02875,109.048217773438
0.00399611333333333, 249.209484351374, 0.000644995633790015, 0.035,103.408103942871
0.00466274333333333, 249.213478140332, 0.000379732457665695, 0.0425,108.837730407715
0.005329685, 249.218534062298, 0.0003482160407059, 0.04875,103.314002990723
0.00599641, 249.223890711922, 8.03249965594824E-05, 0.0575,103.314002990723
0.006662795, 249.228184563511, 0.000635738098715288, 0.06375,103.181869506836
0.00732950666666667, 249.232435614189, 0.000790360832199042, 0.07,109.801513671875
0.00799612833333333, 249.236402442694, 0.000988049402503053, 0.07875,105.101112365723
0.008662725, 249.240497335658, 0.00133654639787446, 0.085,103.076164245605
0.00932944833333333, 249.244756838515, 0.0014360409003828, 0.09125,103.076164245605
0.00999605666666667, 249.248985952113, 0.000950411793033367, 0.0975,101.348709106445
0.0106634183333333, 249.253702188625, 0.000585298632274624, 0.10375,97.5812454223633
0.0113298433333333, 249.258296730878, 0.00045628711239735, 0.11125,100.320953369141
0.0119961016666667, 249.262658294802, 0.000109053053607284, 0.11875,108.381141662598
0.0126628966666667, 249.267564003675, 9.36806065722016E-06, 0.125,108.381141662598
0.0133294983333333, 249.272353059405, -4.51736997702474E-05, 0.13,103.515426635742
0.0139962183333333, 249.277166627253, -3.07174259061731E-05, 0.1375,103.701019287109
0.0146630566666667, 249.282246632375, -0.000315673112857759, 0.1425,130.456832885742
0.01532942, 249.287242799643, -0.000596703496987141, 0.15,102.950752258301
0.0159963566666667, 249.292495979765, -0.000781155232136959, 0.1575,108.458290100098
0.0166630466666667, 249.297567153306, -0.000827822388087061, 0.16375,108.458290100098
0.01732951, 249.302129558015, -0.00062157974740223, 0.17,107.11043548584
0.0179961966666667, 249.307183903655, -0.00065668848394545, 0.17625,105.315979003906
0.0186627616666667, 249.311743338844, -0.000603889636014633, 0.1825,101.290985107422
0.0193294333333333, 249.316036283218, -0.00021910646327342, 0.19,101.290985107422
0.0199961983333333, 249.320936610427, -0.000402797736644516, 0.1975,104.25227355957
0.02066285, 249.325752256585, -0.000394665145148535, 0.2025,105.661338806152
0.0213293366666667, 249.330153731708, -0.000146280621267141, 0.20875,109.386459350586
0.0219966133333333, 249.334858092495, -6.05404278746238E-05, 0.21625,98.4819869995117
0.0226630716666667, 249.339694437797, -0.000274033704336287, 0.22375,98.4819869995117
0.0233293666666667, 249.344158131224, -0.000308899453062417, 0.23,108.986282348633
0.023996155, 249.349192989207, -0.000287822511734641, 0.23625,102.502067565918
0.0246627516666667, 249.354395077842, -0.000166348113258983, 0.2425,106.130577087402
0.0253295333333333, 249.359272849205, -1.31218096922195E-05, 0.25,112.661834716797
0.0259964033333333, 249.364245671745, 0.000287913069667831, 0.25625,112.661834716797
0.02666272, 249.369289740214, 0.000701802280491484, 0.26375,107.648132324219
0.02732959, 249.37379140715, 0.000883995129128676, 0.27,104.43775177002
0.0279962333333333, 249.378155989451, 0.00101426658573848, 0.27625,109.376724243164
0.0286628283333333, 249.382723093577, 0.00110067124572666, 0.28125,101.251853942871
0.0293294916666667, 249.386535984252, 0.00141898225725399, 0.29,101.251853942871
0.0299961616666667, 249.390990140581, 0.00115097271905846, 0.29625,103.250869750977
0.030662875, 249.395020345932, 0.000929334851705591, 0.3025,126.600242614746
0.0313295733333333, 249.399250501026, 0.000891907231631107, 0.30875,109.703407287598
0.0319960583333333, 249.403431514659, 0.000806761008451058, 0.315,102.926727294922
0.0326628366666667, 249.408150058441, 0.000252837331482737, 0.3225,104.874542236328
0.0333296, 249.41198564503, 0.000633722200019752, 0.32875,104.874542236328
0.033996405, 249.416355271275, 0.000667080524465559, 0.335,106.531936645508
0.0346629316666667, 249.421051735462, 0.000369769958078928, 0.34125,109.935928344727
0.0353293766666667, 249.426280024138, 0.000366029145958326, 0.34875,106.804222106934
0.0359960616666667, 249.431027744103, 0.00046314476793802, 0.355,106.804222106934
0.03666271, 249.436476143819, 0.000434890687150426, 0.3625,99.9238586425781
0.0373293583333333, 249.441751235271, 0.00035806304613487, 0.36875,105.254570007324
0.0379962666666667, 249.446750235925, 0.000679582396555885, 0.375,104.32315826416
0.038662965, 249.452135284874, 0.000516971064403879, 0.38125,106.482566833496
0.039329415, 249.457140940934, 0.000625798098143349, 0.3875,106.482566833496
0.03999619, 249.462568540526, 0.000718491942217091, 0.395,104.681518554688
0.0406627283333333, 249.468142074728, 0.000929718832522858, 0.40125,105.356651306152
0.041329515, 249.473864054888, 0.000785981052303906, 0.40875,104.305770874023
0.041996385, 249.479600245099, 0.000683615694020139, 0.41375,107.213722229004
0.04266292, 249.485603177791, 0.000764583127132579, 0.42,107.213722229004
0.0433294, 249.490882797293, 0.000552604774615764, 0.4275,106.488494873047
0.0439964133333333, 249.496496548125, 0.000594298180394499, 0.435,106.838668823242
0.0446628733333333, 249.501610178176, 0.000727116509066119, 0.44125,107.919731140137
0.04532938, 249.506713083607, 0.00102374760957055, 0.4475,107.965240478516
0.04599607, 249.511600605734, 0.00086078229513185, 0.45375,107.965240478516
0.0466637133333333, 249.517027883487, 0.0010136426170592, 0.46,112.322708129883
0.0473294733333333, 249.521957108099, 0.000824116636739236, 0.4675,123.773696899414
0.0479964333333333, 249.52736254436, 0.000727341497620337, 0.47375,106.427574157715
0.04866437, 249.532161719526, 0.000770183845704508, 0.48,100.70597076416
0.04933074, 249.5371898712, 0.000742249248857316, 0.48625,103.382385253906
0.0499962166666667, 249.541923320069, 0.00035731758360018, 0.49375,103.382385253906
0.0506627166666667, 249.547063130139, 0.000479217960712634, 0.5,104.191818237305
0.0513297033333333, 249.551749556496, 0.000456938079822159, 0.50625,104.396308898926
0.0519961033333333, 249.556032265041, 0.000242615344995461, 0.5125,104.195869445801
0.05266283, 249.5605726613, 0.000450344410955208, 0.51875,104.195869445801
0.0533293633333333, 249.565184680852, 0.000567128544992969, 0.52625,106.498504638672
0.05399606, 249.56956503357, 0.000532201299323797, 0.5325,101.592094421387
0.0546630166666667, 249.574215803444, 0.000473821231689516, 0.53875,100.891792297363
0.0553296916666667, 249.578985821013, 0.000623503213381283, 0.545,101.418739318848
0.0559960716666667, 249.584039203375, 0.000450702892972603, 0.5525,101.418739318848
0.056664365, 249.588429528478, 0.000362949800712102, 0.55875,104.826644897461
0.0573313033333333, 249.593497990739, 0.000397245578101232, 0.565,105.900352478027
0.0579964566666667, 249.597923348164, 0.000180602459861375, 0.5725,110.549880981445
0.05866333, 249.602670721314, 0.000234286263360146, 0.57875,103.120376586914
0.059329685, 249.607007121367, 0.000139510523832108, 0.585,103.120376586914
0.059996165, 249.611623813958, 0.000294154256278762, 0.59,102.157264709473
0.06066284, 249.615595296233, 0.000156264682307056, 0.5975,104.828948974609
0.061329495, 249.620082067991, 0.000439756442786012, 0.605,105.361381530762
0.061997715, 249.62433905455, 0.000264568242323518, 0.61125,102.019729614258
0.0626628366666667, 249.629249468518, 0.000632165278297884, 0.61875,102.019729614258
0.06333099, 249.633475149227, 0.000845381068702436, 0.625,106.743446350098
0.06399622, 249.638376015259, 0.000841277274812483, 0.63125,121.903465270996
0.06466461, 249.6432160896, 0.000814050642368645, 0.6375,107.855209350586
0.06532954, 249.647939868386, 0.00100385710855202, 0.64375,106.966789245605
0.06599622, 249.65248686499, 0.000677621994999507, 0.65125,106.966789245605
0.0666629933333333, 249.65742255614, 0.000415520660091115, 0.6575,105.804328918457
0.067329405, 249.661341779941, 0.000471248860891592, 0.66375,104.929801940918
0.0679964816666667, 249.665525896961, 0.000617094035258441, 0.67125,103.07543182373
0.068662805, 249.669812793952, 0.000533054756479283, 0.6775,108.645896911621
0.0693293966666667, 249.673734726428, 0.000665528102474392, 0.68375,108.645896911621
0.0699960583333333, 249.678584289681, 0.000501673332737036, 0.69125,102.807418823242
0.0706628933333333, 249.683065299963, 0.000849795346943863, 0.6975,102.105674743652
0.0713293483333333, 249.687578184931, 0.00114891032268517, 0.70375,104.138145446777
0.0719967, 249.692672568966, 0.00105272165417798, 0.71,101.048446655273
0.072663275, 249.697955081814, 0.0010941840715561, 0.7175,101.048446655273
0.0733294016666667, 249.702888432082, 0.00143524144059085, 0.72375,100.649322509766
0.0739962216666667, 249.708241787864, 0.00107489954020903, 0.73,104.727661132813
0.074664505, 249.714228152461, 0.000423434262645474, 0.7375,110.319091796875
0.0753295783333333, 249.719646773244, 0.00081757096555946, 0.7425,106.779579162598
0.0759963533333333, 249.724809727195, 0.000755711072693252, 0.74875,106.779579162598
0.0766627566666667, 249.730785206374, 0.000347535074941805, 0.75625,102.549858093262
0.0773295783333333, 249.736326950634, 0.000550539378223634, 0.76375,104.404830932617
0.07799623, 249.741287159835, 0.000832478716732678, 0.77,106.805595397949
0.07866319, 249.746825268963, 0.000450362410026793, 0.77625,101.673980712891
0.07933025, 249.75274491834, 0.000328748518560378, 0.78375,101.673980712891
0.0799961566666667, 249.758375006646, 0.000502634784428303, 0.79,105.854652404785
0.0806628733333333, 249.764279805798, 0.000298423041746803, 0.79625,123.216247558594
0.081329485, 249.770342301613, 0.000101202447920371, 0.8025,105.544555664063
0.08199633, 249.775676701218, 0.000468327007622694, 0.81,98.0359878540039
0.0826637216666667, 249.781014463583, 0.00056731453555521, 0.81625,98.0359878540039
0.08332958, 249.785466467283, 0.000819126387314417, 0.8225,102.539947509766
0.0839960583333333, 249.7906469765, 0.00124759936555517, 0.82875,105.470176696777
0.0846628966666667, 249.795428571352, 0.00156169408890481, 0.83625,102.670585632324
0.0853294783333333, 249.800902085278, 0.00145384950586201, 0.8425,111.315299987793
0.0859961983333333, 249.805864656873, 0.00151019267583786, 0.84875,111.315299987793
0.0866627283333333, 249.811547323414, 0.00142511694910477, 0.85625,105.800750732422
0.0873293333333333, 249.81647682984, 0.00145949822216363, 0.8625,108.786140441895
0.0879961, 249.821541024423, 0.00131602292875775, 0.86875,102.324729919434
0.088662845, 249.826626562561, 0.00121476451487488, 0.875,107.327903747559
0.0893295683333333, 249.831838432197, 0.00126755736312933, 0.8825,107.327903747559
0.0899966066666667, 249.836369090823, 0.00150373100038216, 0.88875,105.034698486328
0.0906630683333333, 249.841378858505, 0.00133316406777125, 0.895,106.90160369873
0.091329365, 249.845941943785, 0.00148454246417564, 0.9025,103.217292785645
0.091996085, 249.850529493938, 0.00168833422791796, 0.90875,103.576034545898
0.0926629133333333, 249.855140005912, 0.00169483040163494, 0.915,103.576034545898
0.0933293916666667, 249.859389926383, 0.00144657937100418, 0.9225,105.183815002441
0.09399609, 249.863761572207, 0.00131061120055436, 0.92875,106.710243225098
0.0946628466666667, 249.868206623474, 0.00146706834188086, 0.935,107.373161315918
0.0953295083333333, 249.872662640384, 0.00149861325744682, 0.9425,106.561561584473
0.09599618, 249.877384956534, 0.00132041620810004, 0.94875,106.561561584473
0.0966633166666667, 249.882080408557, 0.00155341600476297, 0.955,105.932319641113
0.097329395, 249.886732172804, 0.00155987768017616, 0.9625,121.364242553711
0.0979962133333333, 249.891735401125, 0.00123393655187045, 0.96875,105.556625366211
0.0986628583333333, 249.896032477789, 0.00115231065183871, 0.975,105.248435974121
0.0993294733333333, 249.900391832057, 0.00112577248478098, 0.98125,105.248435974121
0.0999962183333333, 249.904164409081, 0.00119239313851079, 0.9875,105.230247497559
0.10066275, 249.907978719566, 0.00127498648995266, 0.995,102.857246398926
0.101329498333333, 249.912056497344, 0.00138265558184028, 1.00125,109.620147705078
0.101996241666667, 249.916132181652, 0.00126386754843844, 1.00875,101.260887145996
0.102662861666667, 249.919977295465, 0.00170119458194066, 1.015,101.260887145996
0.103329358333333, 249.92440822717, 0.00137290607154003, 1.02125,99.1886749267578
0.103996225, 249.92852036688, 0.00140600640896722, 1.0275,97.2955932617188
0.10466292, 249.932220855908, 0.00142934223685013, 1.03375,106.88459777832
0.105329613333333, 249.935856316842, 0.0015638839789799, 1.04125,103.944595336914
0.105998056666667, 249.939672484058, 0.00144480046044937, 1.04875,103.944595336914
0.106664391666667, 249.943539959817, 0.00159485442339315, 1.055,104.860038757324
0.107329623333333, 249.947044945241, 0.00183128754758899, 1.06,103.462776184082
0.107996656666667, 249.950943186694, 0.00179427240687418, 1.0675,107.014350891113
0.1086632, 249.954876376191, 0.00159319100695363, 1.07375,108.186408996582
0.109329588333333, 249.957909382668, 0.00163296300921047, 1.08125,108.186408996582
0.109996486666667, 249.961657472147, 0.00189266146488478, 1.0875,104.2529296875
0.110662903333333, 249.964919112834, 0.00188677276067865, 1.095,108.623077392578
0.111329455, 249.968226477605, 0.00199923861161554, 1.1,103.854965209961
0.111996041666667, 249.971672387236, 0.00195484984121656, 1.10625,101.949058532715
0.112663283333333, 249.975364117988, 0.00189120953782863, 1.115,101.949058532715
0.113329593333333, 249.978875844138, 0.00170687479671851, 1.12125,127.848571777344
0.11399626, 249.982748633219, 0.00147226108112137, 1.12625,100.704383850098
0.114662911666667, 249.986850321882, 0.00127160565985887, 1.1325,103.751762390137
0.115329385, 249.990998542143, 0.00108873784511269, 1.14125,106.937705993652
0.115996801666667, 249.995163316519, 0.00099042078343094, 1.1475,106.937705993652
0.11666317, 249.999519471558, 0.000596693559964059, 1.1525,103.948104858398
0.117329448333333, 250.00353790888, 0.000703984670859544, 1.15875,101.413558959961
0.117996101666667, 250.007202344747, 0.00106588049319944, 1.1675,102.813331604004
0.11866275, 250.010513718388, 0.00165808224748516, 1.17375,103.535369873047
0.119329533333333, 250.014480322415, 0.00152877224263038, 1.17875,103.535369873047
0.119996071666667, 250.017875557018, 0.00170872120395647, 1.18625,104.343849182129
0.120662763333333, 250.022377813278, 0.00144845277694517, 1.1925,102.969139099121
0.121329528333333, 250.025976423653, 0.00107974729664551, 1.2,104.035949707031
0.121996275, 250.030554216742, 0.000481208360608298, 1.20625,104.477355957031
0.122662946666667, 250.034073609675, 0.000648143975601297, 1.2125,104.477355957031
0.123329641666667, 250.037424163587, 0.00107732491833042, 1.21875,107.629959106445
0.123996656666667, 250.040968959452, 0.00146792779875521, 1.225,105.237121582031
0.124662998333333, 250.044928913185, 0.00148733532392461, 1.23375,107.19189453125
0.12532961, 250.048459597357, 0.0017736064448329, 1.24,102.657249450684
0.125996366666667, 250.052515759886, 0.00190656126666772, 1.245,102.657249450684
0.126662986666667, 250.05681826726, 0.00140056768218833, 1.2525,104.127151489258
0.127329525, 250.06071404921, 0.00106905583369249, 1.26,109.756843566895
0.127996051666667, 250.063977079127, 0.00114224915726258, 1.26625,106.682640075684
0.128663143333333, 250.067273273151, 0.00120791585892313, 1.27375,108.648727416992
0.129329346666667, 250.071024322892, 0.000731842771562169, 1.27875,108.648727416992
0.129996858333333, 250.074529466115, 0.00107035776830831, 1.285,124.696479797363
0.130662866666667, 250.078094330185, 0.000940402795811353, 1.29125,100.536994934082
0.131329471666667, 250.082455511589, 0.000781350784820885, 1.29875,114.619850158691
0.131996171666667, 250.085735207027, 0.000785781562230748, 1.305,105.181015014648
0.132662853333333, 250.08921411817, 0.000930093813602418, 1.31125,105.181015014648
0.133329546666667, 250.092945405498, 0.00082251021740579, 1.3175,105.258995056152
0.133996078333333, 250.096769228451, 0.00084483809587717, 1.32375,104.810691833496
0.134663085, 250.100593861264, 0.000761019306006545, 1.33125,104.511940002441
0.13532943, 250.105002372495, 0.000512985764478022, 1.33875,101.653564453125
0.13599619, 250.108970921944, 0.000703635188367314, 1.345,101.653564453125
0.136663825, 250.112682492034, 0.000585109641736051, 1.35125,101.737174987793
0.137329431666667, 250.116461301773, 0.000545144149188681, 1.3575,104.115707397461
0.137996246666667, 250.120123092627, 0.000476821080984875, 1.36375,102.425567626953
0.138663196666667, 250.123969897606, 0.000509295949808384, 1.37125,102.01602935791
0.139330275, 250.127999207238, 0.000321343390484994, 1.3775,102.01602935791
0.139996306666667, 250.132005474725, 0.000104278793445313, 1.38375,99.6014556884766
0.140663186666667, 250.135646840557, 0.000320524431633291, 1.39,100.162406921387
0.141329398333333, 250.139407458843, 0.00054835248806111, 1.3975,104.737129211426
0.141996053333333, 250.142953637507, 0.000547601025807553, 1.40375,110.839004516602
0.142662963333333, 250.146949512121, 0.000648500957673035, 1.41,110.839004516602
0.143329511666667, 250.151333889397, 0.000737627980920715, 1.4175,106.394073486328
0.143996221666667, 250.155402170813, 0.000415039184208891, 1.42375,103.022491455078
0.144662981666667, 250.159348430628, 0.000411886342603144, 1.43125,100.970397949219
0.14532949, 250.163103804624, 0.000726461041846846, 1.43625,108.632545471191
0.145996206666667, 250.166762867911, 0.000647807992513714, 1.44375,108.632545471191
0.146662848333333, 250.17017520977, 0.000847914441402112, 1.45,132.651489257813
0.1473298, 250.173814358721, 0.000912907676878079, 1.45625,105.150970458984
0.147996215, 250.177702137441, 0.000755417087488959, 1.4625,103.316772460938
0.14866282, 250.182008689597, 0.000774398634064064, 1.46875,105.698905944824
0.149329615, 250.185406268272, 0.00119052723236185, 1.47625,105.698905944824
0.14999606, 250.189423358286, 0.00107117822712692, 1.4825,109.330375671387
0.150662793333333, 250.192629116307, 0.0011519791685881, 1.48875,106.94792175293
0.151331838333333, 250.196314810554, 0.00131631991391712, 1.49625,102.269470214844
0.15199606, 250.200256535621, 0.000803351679772355, 1.5,109.086502075195
0.15266293, 250.204823362073, 0.000441227868901912, 1.5075,109.086502075195
0.15332935, 250.208794385315, 0.000423780745267643, 1.51625,106.700881958008
0.153996191666667, 250.213666525446, 0.000429655950154146, 1.5225,101.607032775879
0.15466289, 250.217698884895, 0.000374521719502376, 1.52875,102.371337890625
0.155331076666667, 250.221518475885, 0.000915331555202587, 1.535,106.667694091797
0.155996831666667, 250.224706510602, 0.000860266321073367, 1.5425,106.667694091797
0.156662856666667, 250.227952320421, 0.000867612952033261, 1.54875,105.311180114746
0.157329493333333, 250.231218272042, 0.00095396061487286, 1.555,102.045700073242
0.15799637, 250.234503290908, 0.000983839114065485, 1.5625,104.304931640625
0.158663005, 250.23789861315, 0.000636995035705284, 1.56875,105.508438110352
0.159329563333333, 250.241405893211, 0.000465945127351509, 1.575,105.508438110352
0.159996225, 250.244691996755, 0.000219681496916387, 1.58125,110.881866455078
0.160662753333333, 250.248232702492, 0.00028581917492458, 1.58875,106.171760559082
0.16132942, 250.251580414455, 0.000402130832711552, 1.595,104.665138244629
0.161996193333333, 250.255080472886, 0.000710482344543432, 1.60125,103.330642700195
