Time (min), Depth (µm), Load (N), Position (µm), Acoustic (aJ)
7.71666666666667E-06, 249.67132679023, -0.000777326712473012, 0,106.858367919922
0.00066614, 249.67114398694, -0.00077000558016421, 0,104.636276245117
0.00133244166666667, 249.670539466196, -0.00102546824855857, 0.00499999999999999,100.654556274414
0.00199913333333333, 249.66927345451, -0.00115661566112615, 0.01375,104.456443786621
0.00266637666666667, 249.667737998277, -0.00142732056389941, 0.02125,104.456443786621
0.00333233666666667, 249.667098863613, -0.00146810951513546, 0.02875,97.9990386962891
0.00399892666666667, 249.667657540435, -0.00184248771050593, 0.035,102.385612487793
0.00466585166666667, 249.669689009348, -0.00204158920983161, 0.0425,102.928871154785
0.00533317833333333, 249.67334387574, -0.00189817841323883, 0.04875,103.890594482422
0.0059992, 249.677698837571, -0.00168012836565367, 0.05625,103.890594482422
0.00666564166666667, 249.682460293906, -0.00151431919407881, 0.06375,105.760368347168
0.00733276666666667, 249.687168815819, -0.00151115435305658, 0.07,108.520492553711
0.00799899833333333, 249.692129522353, -0.00143885198470955, 0.0775,109.488136291504
0.00866580666666667, 249.696536086303, -0.00138680009919531, 0.085,104.884887695313
0.00933244, 249.701640635495, -0.0015949971416964, 0.09125,104.884887695313
0.009998925, 249.706628680927, -0.00171618805441734, 0.0975,102.631744384766
0.0106659866666667, 249.710979658463, -0.00128008945919267, 0.105,102.291641235352
0.0113324466666667, 249.714926630987, -0.00113213089100157, 0.11125,104.664642333984
0.011998955, 249.719902036285, -0.00125298132077669, 0.1175,124.693176269531
0.012665715, 249.723887774044, -0.00123835105561807, 0.12375,124.693176269531
0.0133327283333333, 249.728516594636, -0.00156673406127737, 0.13125,99.8230590820313
0.0139989566666667, 249.733071177086, -0.00183195673942155, 0.1375,103.907318115234
0.0146659233333333, 249.737876804208, -0.00199923733709106, 0.1425,101.674919128418
0.0153323083333333, 249.741865328094, -0.00163072384717878, 0.15125,102.438743591309
0.0159990016666667, 249.746216388629, -0.00155829548518187, 0.1575,102.438743591309
0.0166657233333333, 249.750562311005, -0.00117377479925374, 0.1625,107.017333984375
0.0173323933333333, 249.754668294974, -0.000804467849162102, 0.17,102.127548217773
0.0179989183333333, 249.759202128414, -0.000598367701338088, 0.1775,109.640846252441
0.018665735, 249.764368603028, -0.000896302236382744, 0.18375,103.054054260254
0.0193324416666667, 249.769529331962, -0.000954098833339142, 0.19,103.054054260254
0.0199990133333333, 249.773759449954, -0.000689693614143518, 0.19625,102.388931274414
0.020665595, 249.779077919663, -0.000971238472470742, 0.2025,106.409858703613
0.0213324966666667, 249.783777989409, -0.00104033550179415, 0.21,104.126998901367
0.0219992583333333, 249.788099910105, -0.00083810215976187, 0.21625,103.094841003418
0.0226657816666667, 249.792576134613, -0.000837520188987135, 0.22375,103.094841003418
0.0233325866666667, 249.797384628393, -0.00119857155373922, 0.22875,106.156127929688
0.02399904, 249.802068637854, -0.000984853288574556, 0.23625,104.131164550781
0.0246658383333333, 249.807208117805, -0.000789252613422454, 0.24375,101.91633605957
0.02533241, 249.812815151751, -0.000721994491736249, 0.25,109.130561828613
0.0259989883333333, 249.818408284229, -0.00081345989755369, 0.25625,109.130561828613
0.026666065, 249.823865946396, -0.000535651351616365, 0.26125,103.292778015137
0.0273324066666667, 249.829354281458, -0.000681628519309446, 0.27,105.874153137207
0.027998965, 249.835091055696, -0.00114211738944255, 0.27625,107.48274230957
0.0286656683333333, 249.839922346281, -0.000942762402828958, 0.2825,125.074462890625
0.029332265, 249.845160964573, -0.000927130188020189, 0.28875,125.074462890625
0.0299990516666667, 249.84987893879, -0.000745027334847192, 0.29625,108.541053771973
0.0306665233333333, 249.855050852503, -0.000256783858795292, 0.3025,114.65446472168
0.0313323233333333, 249.859786496681, 4.87199854407855E-06, 0.30875,103.334457397461
0.031998975, 249.864468511779, 0.000122749577663101, 0.315,106.036499023438
0.03266566, 249.869381767731, 0.000477018283158437, 0.32125,106.036499023438
0.033332595, 249.874981645823, 0.000368000759019754, 0.32875,101.833801269531
0.033999035, 249.880065077035, 0.00024714132959194, 0.335,103.028701782227
0.034666095, 249.885364045442, 0.000302079070146884, 0.3425,98.0630035400391
0.0353327433333333, 249.891092155758, 0.000268921735571114, 0.34875,102.053268432617
0.0359989633333333, 249.896484453382, 0.000234126483313191, 0.355,102.053268432617
0.0366657316666667, 249.902035108334, 0.000202002596863807, 0.36125,109.346900939941
0.037333795, 249.907661180934, -0.000269122238976884, 0.36875,102.820777893066
0.0380005983333333, 249.912977728117, -0.000102474609533073, 0.37375,106.033447265625
0.0386670516666667, 249.918063367372, -0.000165853926032322, 0.38125,100.56999206543
0.0393337566666667, 249.923283060004, 0.000130268700056895, 0.38875,100.56999206543
0.0400004016666667, 249.928605681548, -0.00021158212917846, 0.395,107.743873596191
0.0406658983333333, 249.933690738184, -0.000272710058808354, 0.4,103.796096801758
0.041332265, 249.938920391787, -0.000332203070519885, 0.4075,102.94026184082
0.04199892, 249.943797980055, -0.000492572015370209, 0.415,102.584579467773
0.0426656433333333, 249.9490189196, -0.000923878351318811, 0.42125,102.584579467773
0.0433323866666667, 249.953921056846, -0.00097292288783065, 0.4275,104.924163818359
0.0439988833333333, 249.958516388254, -0.000637448238381266, 0.43375,106.046440124512
0.0446657033333333, 249.962833027559, -0.000613105961074991, 0.44125,120.410766601563
0.04533243, 249.967460281581, -0.00071331142781424, 0.4475,108.210792541504
0.045999055, 249.971811182906, -0.000907722662744526, 0.45375,108.210792541504
0.0466659666666667, 249.97632036331, -0.000564592397801905, 0.46,103.814872741699
0.0473327083333333, 249.980811179941, -0.000626144806101684, 0.4675,106.980125427246
0.047999025, 249.98608234244, -0.000810850028539414, 0.4725,104.700119018555
0.0486658033333333, 249.991246412112, -0.00101129846023426, 0.48,105.353057861328
0.0493323583333333, 249.99645606595, -0.000688130692617766, 0.48625,105.353057861328
0.04999969, 250.001578085279, -0.000763041429948401, 0.49375,107.819671630859
0.0506660966666667, 250.007472168828, -0.000907110693481726, 0.5,103.632942199707
0.05133247, 250.012419236734, -0.00103899606902574, 0.5075,111.57194519043
0.051999005, 250.017794363522, -0.000670554575484817, 0.5125,101.859916687012
0.05266582, 250.022844056416, -0.00100368184290304, 0.51875,101.859916687012
0.0533333433333333, 250.028068010851, -0.00111294385476196, 0.52625,105.233467102051
0.0539989333333333, 250.032494591127, -0.00104504376530364, 0.5325,99.8456573486328
0.054665705, 250.037624342454, -0.00106314485610525, 0.53875,99.7143096923828
0.05533249, 250.042536308143, -0.00124159239284863, 0.545,97.9376831054688
0.0559989366666667, 250.047495602463, -0.00119089793915314, 0.5525,97.9376831054688
0.0566658716666667, 250.052563499389, -0.00109542923446578, 0.55875,108.497528076172
0.0573323066666667, 250.058031752326, -0.00103824010702023, 0.565,104.72241973877
0.05799911, 250.062941036253, -0.000938018141027527, 0.5725,106.617118835449
0.05866624, 250.068007608528, -0.000495847850777022, 0.57875,106.68359375
0.0593323966666667, 250.073350403034, -0.000608660184336079, 0.585,106.68359375
0.05999918, 250.078233257568, -0.000457226290686258, 0.59,104.049606323242
0.0606656766666667, 250.083397003019, -0.000416756823433122, 0.5975,102.541694641113
0.0613323933333333, 250.088458875064, -0.000551552052829556, 0.605,122.831832885742
0.0619994, 250.094338075034, -0.00116594369260532, 0.61125,103.785377502441
0.0626657183333333, 250.099682285816, -0.00086411235328087, 0.61875,103.785377502441
0.0633323166666667, 250.104973922298, -0.000793213914430335, 0.625,99.0121383666992
0.0639989733333333, 250.109987846261, -0.000793377406211544, 0.63125,107.970932006836
0.0646658233333333, 250.115150584293, -0.00030037166935039, 0.6375,105.512840270996
0.0653324016666667, 250.119754923148, 4.23266172790756E-05, 0.64375,106.47248840332
0.0659990183333333, 250.12524629433, -0.000121391659295075, 0.65125,106.47248840332
0.0666658433333333, 250.13023901534, -3.18746556387857E-05, 0.6575,106.081665039063
0.0673323066666667, 250.136122771913, -4.80948409199027E-05, 0.66375,104.986938476563
0.067999025, 250.142072674478, -0.00033600537943475, 0.67125,103.635787963867
0.068665855, 250.148103636921, -0.000246329383749208, 0.6775,104.748382568359
0.069332405, 250.15321557591, -1.51249026325239E-07, 0.68375,104.748382568359
0.0699989666666667, 250.159038517087, -0.00042458643007212, 0.69,106.839416503906
0.07066591, 250.164203763164, -0.000447245791921636, 0.6975,106.174865722656
0.0713327933333333, 250.169984664138, -0.000524226425290086, 0.70375,108.379196166992
0.0719989833333333, 250.174875276767, -0.000470637117049974, 0.71,103.579605102539
0.0726659933333333, 250.180165193359, -0.000454052450096358, 0.7175,103.579605102539
0.0733324216666667, 250.185267705424, -0.000239035250207189, 0.72375,103.229187011719
0.0739989266666667, 250.190099605437, 0.000101714634303633, 0.72875,101.647583007813
0.0746656783333333, 250.194616839066, 0.000389217193338287, 0.7375,101.73420715332
0.0753326166666667, 250.199935978465, 0.000395339885793836, 0.74375,105.780708312988
0.07599897, 250.205209785248, 0.000160654173825346, 0.75,105.780708312988
0.07666581, 250.210378107255, 0.000283583499184705, 0.755,107.80428314209
0.0773326083333333, 250.215823203491, 0.000311749084453761, 0.7625,105.543792724609
0.0779989683333333, 250.221794917335, 0.000241153630396446, 0.77,124.048835754395
0.0786656816666667, 250.227071311381, 0.000558332198850539, 0.77625,99.2091751098633
0.079332495, 250.232543298211, 0.000615390832830501, 0.78375,99.2091751098633
0.079998985, 250.238528404058, 0.000559115159516564, 0.78875,100.561103820801
0.0806659083333333, 250.243642677529, 0.000312626540399699, 0.795,101.841682434082
0.0813326383333333, 250.248613288975, 0.000314120465339139, 0.8025,106.924011230469
0.0819989533333333, 250.253471796355, 7.07306905707576E-05, 0.81,106.290153503418
0.08266562, 250.257865769492, 0.000417988748130021, 0.81625,106.290153503418
0.0833323083333333, 250.262129621311, 0.000358545233923797, 0.8225,104.70987701416
0.083999035, 250.267174529017, 0.000397478778332947, 0.82875,102.922401428223
0.0846658133333333, 250.27173500953, 0.000409604169291785, 0.83625,108.932052612305
0.0853324633333333, 250.276678609819, 0.000397040800343433, 0.8425,101.911392211914
0.08599919, 250.281576334735, 2.26101076188499E-05, 0.84875,101.911392211914
0.0866658733333333, 250.286216103927, 0.000289043224947744, 0.85625,104.995468139648
0.0873327683333333, 250.290459482371, 0.000622656467915128, 0.8625,103.099281311035
0.08799906, 250.294867134608, 0.000746485748086474, 0.86875,108.129608154297
0.088665925, 250.299267303292, 0.00111773360071725, 0.875,105.852210998535
0.0893324216666667, 250.303643155194, 0.00142121035738837, 0.8825,105.852210998535
0.0899989666666667, 250.308486149862, 0.000988077113240301, 0.88875,105.787994384766
0.0906658066666667, 250.313435028819, 0.000576790271766399, 0.895,103.376029968262
0.0913324316666667, 250.318294115032, 0.000333145509806955, 0.9025,110.355010986328
0.0919989783333333, 250.323305505391, 6.01862202305108E-05, 0.90875,106.385711669922
0.0926659783333333, 250.32802799546, -0.000344817436834185, 0.915,106.385711669922
0.0933323683333333, 250.332406428127, 2.27511005552643E-05, 0.9225,104.55216217041
0.0939990483333333, 250.336618358256, 0.000219157235303203, 0.93,104.036010742188
0.0946657816666667, 250.34117168248, 0.000214948446705022, 0.935,133.502029418945
0.095332465, 250.345295162693, -3.10610063209564E-06, 0.94125,109.408073425293
0.0959991033333333, 250.349797694974, -0.000137257862353261, 0.94875,109.408073425293
0.0966659466666667, 250.35419604402, 6.93739485119249E-06, 0.955,102.685882568359
0.0973324366666667, 250.358583355857, -0.00013495697793609, 0.96125,105.97974395752
0.0979990133333333, 250.362699200745, -8.20216368208144E-05, 0.96875,106.350341796875
0.09866579, 250.367404955054, -3.86423156940063E-05, 0.97625,108.676734924316
0.0993324816666667, 250.372731659863, 0.000378474732955556, 0.9825,108.676734924316
0.09999995, 250.377595300201, 0.000332857524257767, 0.98875,101.433494567871
0.100665915, 250.383074713025, 0.000570438090834643, 0.99375,109.669288635254
0.1013323, 250.387886831064, 0.00062267596693237, 1.00125,106.224945068359
0.101999025, 250.392835078192, 0.000602437483516049, 1.00875,107.526168823242
0.102666165, 250.397017818604, 0.000397162294262606, 1.015,107.526168823242
0.10333247, 250.401336887201, 0.000491156573027767, 1.0225,105.975959777832
0.103998936666667, 250.405774303263, 3.11986762396911E-05, 1.0275,101.992637634277
0.104665655, 250.410516351918, 4.26266022659977E-05, 1.03375,106.606506347656
0.105332708333333, 250.414354143248, 9.96162397021558E-05, 1.04,101.665252685547
0.105999125, 250.419338810148, 0.000175746415763926, 1.04875,101.665252685547
0.106665796666667, 250.423605335945, -0.00017370303173107, 1.055,103.535285949707
0.107332716666667, 250.428077740743, -1.62814388432468E-05, 1.06,105.274909973145
0.107998968333333, 250.432254875009, -0.000376827328986414, 1.0675,102.924919128418
0.108665821666667, 250.436651769894, -4.37503686853862E-06, 1.075,107.682342529297
0.10933263, 250.440276137759, -1.45265269513695E-05, 1.08125,107.682342529297
0.10999893, 250.444883283281, -1.24971288936961E-05, 1.0875,106.742721557617
0.110666056666667, 250.44873688695, 0.000145732923375008, 1.09375,110.716430664063
0.11133247, 250.453590436329, 0.000496767791240551, 1.1,122.762199401855
0.111999, 250.458207156512, 0.000241201628062367, 1.1075,102.258323669434
0.112665628333333, 250.463056008555, 0.000393965954849165, 1.11375,102.258323669434
0.113332363333333, 250.46759468317, 0.000673277425314857, 1.12,103.658172607422
0.113998951666667, 250.472139627676, 0.00048574634479129, 1.12625,108.296264648438
0.11466553, 250.476519971189, 0.00056616780529342, 1.13375,106.726135253906
0.115332518333333, 250.481151221523, 0.000452918993669253, 1.14,100.89599609375
0.115998876666667, 250.485590136412, 0.000108345801259411, 1.14625,100.89599609375
0.116665668333333, 250.490342001178, 4.85018071737554E-05, 1.1525,100.706382751465
0.117332626666667, 250.494924328382, 0.000335024915424303, 1.16,105.400207519531
0.117999015, 250.499547789997, 0.000265803392311659, 1.1675,100.03059387207
0.118665555, 250.503992852498, 0.000133102057764747, 1.17375,105.748962402344
0.119332468333333, 250.508275421827, 0.000275419409276256, 1.17875,105.748962402344
0.119999755, 250.51225719878, -0.000146029421772554, 1.18625,108.773490905762
0.120665613333333, 250.51673152445, -0.000480319130752077, 1.1925,102.83283996582
0.121332266666667, 250.52036519027, -0.000717004242268921, 1.2,113.687759399414
0.12199894, 250.52487228015, -0.000501039089986861, 1.20625,104.777702331543
0.122665816666667, 250.52931725573, -0.000689719112773357, 1.2125,104.777702331543
0.12333296, 250.533924923471, -0.00035941770348348, 1.21875,103.721664428711
0.123998896666667, 250.537921486358, -0.000358939227513825, 1.22625,103.269264221191
0.124665543333333, 250.542923612072, -0.000531493560299116, 1.2325,103.721801757813
0.125332203333333, 250.54780034234, -0.000582528496855398, 1.23875,101.059211730957
0.125998981666667, 250.552238573111, -0.000731403519026926, 1.24625,101.059211730957
0.126666401666667, 250.55714305083, -0.000901842958042304, 1.2525,103.949577331543
0.127332376666667, 250.562193365827, -0.00115188789855692, 1.26,120.565490722656
0.127999096666667, 250.56670579354, -0.00112892855178424, 1.265,105.697296142578
0.128665663333333, 250.570623659145, -0.00114596769589581, 1.27125,106.448844909668
0.129332731666667, 250.575052483266, -0.000931382474277285, 1.27875,106.448844909668
0.129998996666667, 250.579162106811, -0.000975687248909682, 1.2875,105.558715820313
0.130665841666667, 250.583792929868, -0.000670638571166383, 1.2925,110.728187561035
0.131332346666667, 250.587920378542, -0.000467265286396336, 1.2975,103.890869140625
0.131998983333333, 250.592706927872, -0.000448991704309602, 1.30375,98.9405822753906
0.132665661666667, 250.597526005339, -0.000673728416032209, 1.31125,98.9405822753906
0.133332571666667, 250.602068202016, -0.000624473890018897, 1.31875,102.15478515625
0.133999035, 250.607033762536, -0.00061454588871466, 1.32375,101.60489654541
0.134666028333333, 250.61130697357, -0.000848384143267784, 1.33125,105.948280334473
0.135332531666667, 250.615762557284, -0.000847053710067045, 1.33875,101.728622436523
0.135998945, 250.619654076972, -0.000492116038224094, 1.345,101.728622436523
0.136665816666667, 250.624249275368, -0.000386630836607689, 1.35125,103.133399963379
0.137333076666667, 250.628185298053, -0.000402432542916535, 1.3575,101.591491699219
0.137998928333333, 250.632993861513, -0.000353416504925849, 1.36375,106.083587646484
0.138665616666667, 250.636778700486, -0.000275909398091855, 1.37,104.459373474121
0.139332606666667, 250.641867426287, -0.000276500368370501, 1.37875,104.459373474121
0.13999899, 250.645640440284, -2.67704120655895E-05, 1.38375,104.815078735352
0.140665838333333, 250.649116087768, 0.000265873888716104, 1.39,101.753463745117
0.141332446666667, 250.652815374135, 0.000681602007134454, 1.3975,104.064735412598
0.141999745, 250.656559419634, 0.000754627339171383, 1.40375,103.238739013672
0.142665793333333, 250.659719852107, 0.000705731295154212, 1.41,103.238739013672
0.143332298333333, 250.663349378559, 0.000464394917233956, 1.41625,101.323150634766
0.143999218333333, 250.667863996824, -8.07085132080533E-06, 1.42375,131.315719604492
0.144665693333333, 250.671994219083, -0.000247586320717949, 1.43,101.629081726074
0.145332488333333, 250.676651728448, -0.000824515842157955, 1.43625,106.472023010254
0.145998995, 250.681148900273, -0.000960731500176815, 1.44375,106.472023010254
0.146665538333333, 250.686060597328, -0.000760139075717998, 1.45,112.275550842285
0.147332941666667, 250.689958812213, -0.000658174197313663, 1.45625,108.271110534668
0.147998966666667, 250.694600670367, -0.000730826048089164, 1.4625,106.969009399414
0.148665823333333, 250.698637923429, -0.000371274607995389, 1.46875,100.365776062012
0.14933243, 250.703265019199, -0.000463309985171085, 1.47625,100.365776062012
0.149998978333333, 250.707289620796, -0.000679837609210637, 1.4825,104.336433410645
0.150665823333333, 250.711786533519, -0.000668337686812974, 1.48875,109.823837280273
0.151332405, 250.71595890191, -0.000413686477690809, 1.49625,100.840560913086
0.151999023333333, 250.720709292934, -0.000388388748327119, 1.50125,112.837471008301
0.152665633333333, 250.725088179512, -0.000493209483284101, 1.5075,112.837471008301
0.153332473333333, 250.729437615611, -0.000293335522720716, 1.515,109.257789611816
0.153998908333333, 250.733362333346, -0.000386984818809366, 1.52375,107.629409790039
0.154665616666667, 250.737449470793, -0.000483383476796777, 1.52875,106.169120788574
0.155332525, 250.741647155646, -0.000678898656300402, 1.535,110.627891540527
0.155999223333333, 250.745333940848, -0.000455285388168377, 1.5425,110.627891540527
0.156665768333333, 250.74931292042, -1.93652840114597E-05, 1.54875,105.908409118652
0.157332303333333, 250.753241630891, 0.000174502978178576, 1.555,105.265510559082
0.157998938333333, 250.757439623452, -0.000119084775222799, 1.5625,103.160385131836
0.158665676666667, 250.76119552636, 0.000149179750142539, 1.56875,105.112365722656
0.159332613333333, 250.765118955426, 7.83113097588144E-05, 1.575,105.112365722656
