Time (min), Depth (µm), Load (N), Position (µm), Acoustic (aJ)
8.02833333333333E-06, 248.993896584106, -8.69535615648083E-05, 0,102.824020385742
0.000664293333333333, 248.993863906456, -0.00026981837644093, 0,104.382789611816
0.001331825, 248.99294520612, -0.000259080415788901, 0.00499999999999999,102.945907592773
0.00199679166666667, 248.990559305765, -0.000489156859301032, 0.0125,102.945907592773
0.002663455, 248.988985178251, -0.000567506923883452, 0.02125,105.214241027832
0.00333008833333333, 248.987690690345, -0.000835766949433071, 0.02875,107.263069152832
0.00399705, 248.987492086739, -0.000753152599070804, 0.03625,110.308685302734
0.00483025666666667, 248.991452439881, -0.000557367433132085, 0.045,102.811836242676
0.00549688666666667, 248.995748632749, -0.000109780914926235, 0.05125,120.474601745605
0.00616349, 248.999728497909, 5.65397309976663E-05, 0.05875,120.474601745605
0.00683010333333333, 249.00353273224, 0.000128458118591195, 0.06625,108.876724243164
0.00749682666666667, 249.006667257735, -0.000114283688771217, 0.075,103.833114624023
0.00833029166666667, 249.009192221121, -0.000356740510411993, 0.08,104.527534484863
0.00899677333333333, 249.011885518219, -0.000484993068434949, 0.0875,109.985130310059
0.00966408166666667, 249.014379158512, -0.00076276861607791, 0.095,102.909851074219
0.0103301666666667, 249.017416034852, -0.000600367273321106, 0.10125,102.909851074219
0.01099904, 249.020963049823, -0.000257997470199716, 0.10875,113.119575500488
0.0116647616666667, 249.025343456469, -0.00015682305212593, 0.115,98.8424301147461
0.012331645, 249.029997030479, -0.000465272059022767, 0.12125,111.697326660156
0.0129968183333333, 249.034253654822, -0.000425830040155896, 0.1275,102.657997131348
0.013663745, 249.038486952173, -0.000483886124034058, 0.13375,102.657997131348
0.0143316866666667, 249.042817082452, -0.000729015811450284, 0.14125,99.1133270263672
0.01499683, 249.046921947765, -0.00103019468353179, 0.14625,103.033073425293
0.0156643783333333, 249.050590883313, -0.000763401584261101, 0.15375,106.920066833496
0.0163302633333333, 249.054872523414, -0.000608331873283922, 0.16125,102.176399230957
0.01699739, 249.058725894765, -0.00046898287263405, 0.16625,102.176399230957
0.01766369, 249.063298815018, -0.000374696108525237, 0.17375,104.324272155762
0.018330295, 249.067435559307, -0.000423643149950864, 0.18,108.707817077637
0.0189968966666667, 249.072316546665, -0.000303386690324447, 0.18625,105.942985534668
0.019663505, 249.076383732003, -0.000341409780472041, 0.1925,98.8485412597656
0.0203307866666667, 249.082126677704, -0.000408150428154106, 0.2,98.8485412597656
0.020997255, 249.086869490702, -0.000325912558944581, 0.2075,107.88020324707
0.021664155, 249.092137194791, -0.000277934468832237, 0.21375,100.715835571289
0.022330225, 249.096939877506, -0.000207072028188634, 0.22,125.914169311523
0.02299681, 249.103000361749, -0.00047513706356583, 0.225,106.386032104492
0.0236634966666667, 249.106774746464, -0.000488315401625788, 0.23375,106.386032104492
0.024330815, 249.111669854349, -0.000552585673369351, 0.24,100.663887023926
0.02499691, 249.115426098395, -0.000113407732813444, 0.24625,105.297241210938
0.0256642983333333, 249.120013868669, -0.000122665267803154, 0.2525,99.4315567016602
0.02633017, 249.124063305578, 0.000228639586561246, 0.26,103.226089477539
0.026997355, 249.128811966367, 0.000352245377953999, 0.26625,103.226089477539
0.027663715, 249.133611097991, 0.00024048149176536, 0.2725,103.634880065918
0.0283303233333333, 249.139246677427, -0.000139807906741053, 0.28,106.271690368652
0.0289970316666667, 249.143939986008, -0.000174468165802683, 0.285,102.874641418457
0.0296635383333333, 249.149263493217, -4.91614598603324E-05, 0.2925,107.475784301758
0.0303308966666667, 249.154920363181, -0.000354448625562496, 0.29875,107.475784301758
0.0309968433333333, 249.160359739332, -0.000466350504902505, 0.305,105.611915588379
0.0316640433333333, 249.165604295738, -0.000489303851977568, 0.31125,103.969390869141
0.0323309933333333, 249.17075395226, -0.000532840665166718, 0.31875,107.580940246582
0.0329969283333333, 249.175950902771, -0.000566365481285048, 0.32625,106.631324768066
0.0336635683333333, 249.180440348834, -0.000483304153386848, 0.3325,106.631324768066
0.03433015, 249.185242259315, -0.000230596846546355, 0.33875,107.300552368164
0.034996865, 249.190720539309, -0.000213082226292685, 0.345,105.294799804688
0.0356635966666667, 249.196279173633, -0.000365633563792966, 0.3525,101.004470825195
0.0363307233333333, 249.202322518945, -0.000623161628409424, 0.35875,105.919166564941
0.0369968233333333, 249.207907123977, -0.000897740836575181, 0.365,105.919166564941
0.0376636733333333, 249.213799886373, -0.00102650936869913, 0.3725,101.267776489258
0.038330585, 249.219120255132, -0.0010842729672974, 0.37875,105.949523925781
0.0389968183333333, 249.225083172451, -0.00101516093872996, 0.38375,125.339782714844
0.0396636983333333, 249.229740534499, -0.000782441627930441, 0.39125,108.798362731934
0.040330975, 249.235353266096, -0.000617811397127823, 0.39875,108.798362731934
0.0409971266666667, 249.240047746784, -0.000763371585773036, 0.40375,108.345703125
0.0416644483333333, 249.245805437104, -0.000675907978964872, 0.41125,105.359329223633
0.0423308816666667, 249.250423288098, -0.000824699005369817, 0.4175,107.812294006348
0.0429968516666667, 249.256098032439, -0.00130104057924147, 0.425,103.225921630859
0.04366358, 249.261221986879, -0.00129856720347542, 0.43,103.225921630859
0.0443301766666667, 249.266430074309, -0.00128193153909209, 0.4375,103.475486755371
0.0449971316666667, 249.271198624425, -0.00133221201352476, 0.44375,104.762016296387
0.0456641383333333, 249.276328356716, -0.00149178449834692, 0.45,102.407768249512
0.0463301466666667, 249.2812196259, -0.00109293803197779, 0.4575,109.017242431641
0.0469968233333333, 249.286065122846, -0.000834342020973673, 0.46375,109.017242431641
0.0476642966666667, 249.291458590358, -0.000534472583130003, 0.47,105.058227539063
0.0483302333333333, 249.296186094831, -0.000534922560557251, 0.47625,108.26342010498
0.0489968783333333, 249.301200145869, -0.000252749233820045, 0.4825,103.506385803223
0.0496643633333333, 249.305522076184, -0.000535206046333229, 0.49,102.094909667969
0.0503307433333333, 249.311168257015, -0.000597442420224655, 0.4975,102.094909667969
0.0509968266666667, 249.315957962992, -0.000775781962411001, 0.5025,103.876167297363
0.051664445, 249.321303966543, -0.000593167634931477, 0.50875,107.426635742188
0.05233113, 249.326108140286, -0.000808601813889767, 0.51625,101.727806091309
0.05299836, 249.330981186901, -0.000416511008244398, 0.5225,109.396705627441
0.05366353, 249.336034309334, -0.000604249078378123, 0.52875,109.396705627441
0.05433104, 249.341149467126, -0.000798315330653151, 0.53625,108.226539611816
0.0549968433333333, 249.345671435617, -0.000771898657535852, 0.5425,102.500282287598
0.0556636333333333, 249.350477963762, -0.000522098204783987, 0.54875,125.39501953125
0.05633016, 249.355683302734, -0.000705502992530298, 0.555,106.869743347168
0.056997145, 249.360460716146, -0.000475204560185231, 0.5625,106.869743347168
0.0576642766666667, 249.365070338639, -0.000213461707230472, 0.56875,102.032997131348
0.05833107, 249.369383818627, -0.000327893959400096, 0.575,108.314804077148
0.0589970216666667, 249.374265663576, -0.000613019137830504, 0.5825,110.423988342285
0.059664165, 249.378297554665, -0.00049695346766692, 0.58875,110.06282043457
0.0603303483333333, 249.382536649768, -0.000659996778174588, 0.59375,110.06282043457
0.06099695, 249.386552089433, -0.00100494795161907, 0.60125,106.374755859375
0.0616636616666667, 249.390701348248, -0.0008114051730883, 0.60875,101.751274108887
0.0623302616666667, 249.39520422097, -0.000271496792124479, 0.615,101.639266967773
0.0629983083333333, 249.400388988987, -0.000380481317926291, 0.62125,111.19652557373
0.0636636883333333, 249.405244408162, -0.000333550175196199, 0.6275,111.19652557373
0.0643301316666667, 249.410267067789, 0.000333586315210611, 0.635,102.475028991699
0.064996785, 249.415976118477, 0.000160841492004852, 0.64125,105.929298400879
0.0656636033333333, 249.420879195669, -8.41712012441584E-05, 0.6475,103.524269104004
0.0663301916666667, 249.426521258193, -7.2899267440807E-05, 0.655,103.162010192871
0.0669968083333333, 249.431633859532, -0.000147010544915727, 0.66125,103.162010192871
0.067663535, 249.43716800055, -0.000405500061265959, 0.6675,105.542602539063
0.0683309366666667, 249.442049386056, -0.000314234145457914, 0.67375,106.562705993652
0.068996995, 249.447562597738, -0.000246128566335089, 0.68125,109.959846496582
0.0696636566666667, 249.452529882153, -0.000319102900878545, 0.6875,109.023147583008
0.0703308783333333, 249.45721898565, -0.000131241836943753, 0.69375,109.023147583008
0.0709969433333333, 249.462589081928, -0.000236064071825139, 0.7,102.608726501465
0.0716635116666667, 249.467370877856, -4.24672960158549E-05, 0.7075,107.23787689209
0.0723306816666667, 249.472206629452, 4.21269548775241E-05, 0.71375,133.229629516602
0.07299719, 249.477308606044, -0.000182837745375632, 0.72,106.302940368652
0.0736635433333333, 249.482590436572, -0.000201874789153657, 0.72625,106.302940368652
0.0743308616666667, 249.487607570982, -0.000159222931553716, 0.73375,107.440620422363
0.0749968766666667, 249.493850908085, -0.000150007394447297, 0.74,105.277809143066
0.0756648916666667, 249.499035912008, -0.000177827997018587, 0.74625,107.35962677002
0.0763308266666667, 249.504924853345, 3.04500413577685E-05, 0.7525,107.33975982666
0.076996815, 249.510723393998, -3.54506485096936E-05, 0.76,107.33975982666
0.077664365, 249.516398167942, 0.000254753274864071, 0.76625,101.618438720703
0.0783301416666667, 249.521935723444, 0.000117745656611513, 0.77375,103.649230957031
0.07899699, 249.527698801895, 0.000352875346288384, 0.77875,104.568695068359
0.07966409, 249.532797104675, 0.000670070413932167, 0.785,105.365280151367
0.080330475, 249.538435276448, 0.000590475411882502, 0.7925,105.365280151367
0.0809968533333333, 249.543999487582, 0.000225546741889122, 0.8,108.272392272949
0.0816636666666667, 249.548959065702, 0.000240956967864955, 0.80625,107.319534301758
0.0823310233333333, 249.554367013287, -0.000277192006061338, 0.8125,109.321441650391
0.0829968616666667, 249.559582402496, -0.000561709715023409, 0.82,104.405014038086
0.083663735, 249.564859513226, -0.000515302046016326, 0.82625,104.405014038086
0.084330455, 249.569381644432, -0.000295788072001043, 0.8325,105.79566192627
0.08499829, 249.574937996206, -0.000271115811241035, 0.83875,104.542793273926
0.085664305, 249.579932173184, -0.00011358022407731, 0.84625,110.024719238281
0.0863308066666667, 249.585269120774, 0.000214774283018326, 0.8525,104.555046081543
0.08699717, 249.590271172099, 2.06465338427639E-05, 0.85875,104.555046081543
0.0876635716666667, 249.595502034395, -0.000122716265169103, 0.86625,105.035743713379
0.0883301416666667, 249.599892607708, -0.000218786439648438, 0.8725,125.489646911621
0.0889969233333333, 249.604835387447, -0.000261424797992513, 0.87875,102.093742370605
0.08966362, 249.609369753568, -0.000711106710951033, 0.885,101.361923217773
0.0903301866666667, 249.614350853369, -0.000505179054454648, 0.8925,101.361923217773
0.0909968166666667, 249.61893717688, -0.000260647837045355, 0.89875,108.59107208252
0.0916635366666667, 249.624150434254, -0.000410739298120465, 0.905,101.737098693848
0.09233037, 249.629029979301, -0.000129270935959061, 0.91375,103.042030334473
0.0929968816666667, 249.63372404301, 0.000375432713320986, 0.92,105.535575866699
0.093664035, 249.637996746693, 0.00060356075469322, 0.925,105.535575866699
0.09433095, 249.642500252864, 0.000640587894845764, 0.93125,109.012641906738
0.0949968366666667, 249.646653455993, 0.000555618662787808, 0.93875,104.858413696289
0.09566392, 249.651473924931, 0.000537613567148003, 0.945,108.813079833984
0.0963308316666667, 249.65612471858, 0.000416034173964117, 0.95125,101.716522216797
0.096996905, 249.66103776459, 0.000191970928426097, 0.95875,101.716522216797
0.0976636183333333, 249.665515222263, -2.77440355017302E-05, 0.96625,106.004028320313
0.098330175, 249.670879489174, 0.000199949027687288, 0.9725,107.366310119629
0.0989972133333333, 249.675403225732, 0.00018434681134533, 0.97875,106.254981994629
0.0996651, 249.679767392116, 3.4036361264835E-05, 0.985,108.569259643555
0.100330276666667, 249.68389796953, 0.000213776833077618, 0.99125,108.569259643555
0.100996851666667, 249.688598779742, 0.000361735401268723, 0.9975,102.040328979492
0.101664366666667, 249.692464732944, 0.00062411722212554, 1.005,106.48461151123
0.102330703333333, 249.697183345936, 0.000687507038116867, 1.0125,100.608024597168
0.102996986666667, 249.701571439396, 0.000729869410285725, 1.01875,105.34447479248
0.103663506666667, 249.706027381958, 0.000730169395230139, 1.02375,105.34447479248
0.104330981666667, 249.710456272001, 0.000775857100396135, 1.03125,108.686309814453
0.104996848333333, 249.71492292249, 0.000731159345485068, 1.0375,130.596588134766
0.10566406, 249.719182799223, 0.000734364684466182, 1.04375,108.135437011719
0.106330965, 249.723455657709, 0.000984609114947682, 1.05,100.570571899414
0.106996906666667, 249.727537884665, 0.000816806543522075, 1.05875,100.570571899414
0.107664308333333, 249.731965119342, 0.000844606147172973, 1.065,102.320350646973
0.108330348333333, 249.736194744455, 0.000685654631160032, 1.07,104.598770141602
0.108997561666667, 249.740010770818, 0.000427568594580546, 1.0775,107.667221069336
0.109663738333333, 249.743706722682, 0.00011461981366628, 1.08375,103.32356262207
0.110330795, 249.747051869161, 0.000298711566916808, 1.09125,103.32356262207
0.110996946666667, 249.751222047459, 0.00012501579146935, 1.0975,102.790016174316
0.11166349, 249.754945597305, -2.24927992945065E-05, 1.105,107.387916564941
0.112330255, 249.75796903696, 2.56247838085947E-05, 1.11,104.543388366699
0.112997691666667, 249.761621318838, 0.000288345587623057, 1.11625,104.178451538086
0.113665506666667, 249.765506137574, 0.000558636511197261, 1.12375,104.178451538086
0.114331006666667, 249.768880833058, 0.000527942052937976, 1.13125,102.937835693359
0.114996908333333, 249.772003702561, 0.000572908294295972, 1.1375,106.879356384277
0.115665363333333, 249.775681526334, 0.000617867036053206, 1.1425,106.253402709961
0.116330396666667, 249.778793336252, 0.000375513709217508, 1.15,103.411918640137
0.116997053333333, 249.782415176127, 3.55647844868039E-05, 1.15625,103.411918640137
0.117664276666667, 249.785691768036, 0.000475429690525674, 1.1625,106.460060119629
0.118330995, 249.789690748813, 0.000952059249946518, 1.17,110.403343200684
0.118997755, 249.793148932214, 0.00085731800870101, 1.1775,105.383453369141
0.119664193333333, 249.7969986827, 0.00117749192667725, 1.1825,105.338645935059
0.120330365, 249.800627134253, 0.00132149669348249, 1.18875,105.338645935059
0.120997585, 249.804218629593, 0.00106910887064616, 1.19625,104.333869934082
0.121664221666667, 249.807038142746, 0.000961324284558245, 1.20375,130.245361328125
0.122330316666667, 249.810675183949, 0.000818486459151281, 1.21,104.718116760254
0.12299751, 249.814254046462, 0.000672599286901141, 1.21625,99.8790283203125
0.123664341666667, 249.817662273092, 0.000522392331625726, 1.2225,99.8790283203125
0.124331058333333, 249.820831280194, 0.000535228686857978, 1.22875,104.05419921875
0.124997656666667, 249.824860913119, 0.000176329713943384, 1.23625,103.036209106445
0.125664875, 249.828318355931, 0.000445543691604762, 1.2425,102.085243225098
0.126330893333333, 249.832466476624, 0.000115414773663769, 1.25,102.350433349609
0.12699699, 249.836905207022, -0.00018350971165707, 1.255,102.350433349609
0.127664095, 249.841046396472, -0.000168532963918795, 1.26125,108.520011901855
0.128330296666667, 249.844662494394, -4.15973397769491E-05, 1.27,105.75399017334
0.1289978, 249.849142400206, -0.000211247818428689, 1.27625,105.190071105957
0.129663645, 249.852748383398, 0.000108225634744962, 1.2825,100.53133392334
0.130330701666667, 249.85648051809, 0.000345653208990197, 1.2875,100.53133392334
0.130997433333333, 249.860358627011, 0.000133071886735748, 1.29375,105.38102722168
0.131664066666667, 249.864409172302, 2.39613672628079E-05, 1.30125,108.063316345215
0.132331265, 249.86776728411, 6.27839172661171E-05, 1.30875,99.3055953979492
0.132997613333333, 249.872103851446, -0.000130328382897153, 1.315,104.26602935791
0.133663793333333, 249.876318948061, -0.000409789845845678, 1.32125,104.26602935791
0.134331198333333, 249.880125143045, -0.000496393995800743, 1.3275,104.59782409668
0.134996998333333, 249.884060674911, -0.000481145761724224, 1.33375,102.724571228027
0.135663743333333, 249.888641589925, -0.00055593200528688, 1.34125,104.844703674316
0.136331005, 249.892708342581, -0.000468588392473485, 1.34875,102.824966430664
0.136997651666667, 249.896019502191, -0.000375843550948779, 1.355,102.824966430664
0.137664355, 249.899959135178, -0.000258574941222495, 1.36,102.110778808594
0.138330513333333, 249.90371308893, -0.000449677342345333, 1.3675,127.736671447754
0.138997088333333, 249.907077273867, -0.000365743058274404, 1.37375,107.822822570801
0.139664256666667, 249.910458333904, -0.000314876113272541, 1.38,105.773391723633
0.14033031, 249.913783015049, -0.000167544513588269, 1.3875,105.773391723633
0.1409971, 249.917132900866, -0.000245450600462309, 1.39375,109.847808837891
0.141663901666667, 249.921065054861, -0.000286067060349472, 1.4,102.277465820313
0.142330438333333, 249.924845561943, -0.000295054608882833, 1.4075,101.457778930664
0.142996965, 249.928312739419, -0.000729686277786065, 1.41375,108.873252868652
0.143663753333333, 249.931977637146, -0.000551003252826357, 1.42,108.873252868652
0.144331545, 249.935679172492, -0.00069287062697438, 1.4275,105.985832214355
0.144996998333333, 249.939309405137, -0.000473746633346453, 1.43375,106.734977722168
0.145663655, 249.942642483099, -0.000413148177179687, 1.44,107.382835388184
0.14633031, 249.945618093095, -0.000108038002535854, 1.44625,103.316032409668
0.146997496666667, 249.949165610859, -0.000149959396908901, 1.4525,103.316032409668
0.147664905, 249.952716126998, 3.56142819283491E-05, 1.45875,101.260444641113
0.148331353333333, 249.9555270069, 2.14954911400242E-05, 1.46625,105.323913574219
0.148996975, 249.959111724904, 6.53907863253152E-05, 1.4725,106.065505981445
0.149663891666667, 249.96281066145, 7.83516353255465E-05, 1.47875,103.09294128418
0.150330875, 249.966652897531, -0.000104019704315633, 1.48625,103.09294128418
0.150998156666667, 249.970497773426, -0.000378405422233371, 1.4925,102.553161621094
0.15166447, 249.974444449125, -0.000749456784724808, 1.49875,102.647727966309
0.152330856666667, 249.978984481313, -0.000878597298164525, 1.50375,108.026397705078
0.152997631666667, 249.983586863375, -0.000861925635574265, 1.51125,101.01212310791
0.153663636666667, 249.987735488441, -0.000988511777287643, 1.51875,101.01212310791
0.15433053, 249.991781464918, -0.000747971859353042, 1.52625,110.174324035645
0.154997641666667, 249.995746911856, -0.000295647079149645, 1.5325,119.207405090332
0.155663656666667, 249.99858673992, -0.000109309938642358, 1.53875,100.622085571289
0.156330291666667, 250.00148354178, -3.15448447047331E-05, 1.545,104.849586486816
0.156997571666667, 250.004058047991, 0.000412758338408524, 1.5525,104.849586486816
0.15766373, 250.007020049627, 0.000477939064477406, 1.55875,105.168846130371
0.158330938333333, 250.010172324948, 0.000409672993379671, 1.565,104.191467285156
0.158997033333333, 250.013066031377, 0.000232468894136624, 1.5725,101.634239196777
0.159664405, 250.016606495036, 0.000162795893757346, 1.57875,110.766716003418
0.16033089, 250.020174536312, -3.66130901560135E-05, 1.585,110.766716003418
0.160997015, 250.023199829513, 7.06165237964294E-05, 1.59125,104.094268798828
