Time (min), Depth (µm), Load (N), Position (µm), Acoustic (aJ)
7.90666666666667E-06, 248.607386975712, 0.000213272403980052, 0,104.600227355957
0.000663413333333333, 248.607613290856, 0.000454800772266433, 0,102.211463928223
0.00133156666666667, 248.607093071422, 0.000139225623275726, 0.00124999999999998,101.340507507324
0.00199699, 248.604946581416, 4.25989767365112E-05, 0.00749999999999999,110.434478759766
0.00266333833333333, 248.602989666155, -0.000489634289738086, 0.02,110.434478759766
0.0033303, 248.60252893492, -0.000768377288748672, 0.02875,101.43090057373
0.003996645, 248.602875465928, -0.000676320912631332, 0.03625,108.975112915039
0.004663805, 248.605203791214, -0.000419193327873052, 0.04375,105.852600097656
0.00533025833333333, 248.609811351014, -0.000213885140282738, 0.05125,103.360023498535
0.005996935, 248.614726902722, 0.000171880483112642, 0.0575,103.360023498535
0.00666331166666667, 248.618176181394, 0.000495373734367156, 0.065,103.871025085449
0.00733003666666667, 248.621910298388, 0.0001715459998857, 0.07125,105.424087524414
0.00799712666666667, 248.624563682699, -0.000354140095463464, 0.0775,103.790397644043
0.008663295, 248.627358101518, -0.00076338553950572, 0.085,109.134078979492
0.00933015333333333, 248.62975468831, -0.00108712477840488, 0.09125,109.134078979492
0.00999716, 248.632553538082, -0.00136174598445393, 0.09875,101.161315917969
0.0106638733333333, 248.63492287015, -0.00153926956759487, 0.10375,111.18953704834
0.0113304883333333, 248.637583579823, -0.00104921868231823, 0.11125,106.34806060791
0.01199685, 248.640863777274, -0.000990063153618684, 0.11875,110.224113464355
0.0126633316666667, 248.644547724986, -0.000977447287294964, 0.125,110.224113464355
0.01333097, 248.648598391021, -0.000864574956738523, 0.13,102.58683013916
0.0139967633333333, 248.652621325371, -0.000742904068166038, 0.1375,104.77278137207
0.0146633116666667, 248.657055605863, -0.00103087310379638, 0.14625,103.501411437988
0.0154969766666667, 248.661329440341, -0.000725395447609982, 0.15125,105.249725341797
0.0161637983333333, 248.666393216615, -0.000467364908233417, 0.15875,100.812286376953
0.0168303, 248.671048751625, -0.000566361435733607, 0.16625,100.812286376953
0.01749679, 248.676466934531, -0.000610589714178929, 0.17125,104.142379760742
0.018163335, 248.681797921317, -0.000818422274965009, 0.17875,109.747131347656
0.0188304333333333, 248.686858945032, -0.000992770517655408, 0.185,107.079032897949
0.0194970783333333, 248.691976176662, -0.00123664176824225, 0.1925,103.724105834961
0.02016333, 248.697054257579, -0.00128337792073616, 0.19875,103.724105834961
0.0208301233333333, 248.701577789008, -0.00100457042495498, 0.20375,105.508110046387
0.021496885, 248.706660647381, -0.000520850721689704, 0.2125,107.144271850586
0.022163575, 248.711805966488, -0.000622878596940231, 0.21875,126.22176361084
0.0228302266666667, 248.717200750292, -0.000620912195707494, 0.225,100.312973022461
0.02349743, 248.722295665511, -0.00070622491058132, 0.23125,100.312973022461
0.024163315, 248.727577345182, -0.000789508227333711, 0.2375,107.192291259766
0.0248302, 248.732196764676, -0.00109463490110347, 0.245,102.519821166992
0.0254970733333333, 248.737205710624, -0.000965096907675638, 0.25125,111.16487121582
0.0261637616666667, 248.741801970801, -0.00093356999124502, 0.2575,103.987869262695
0.02683019, 248.746648905669, -0.000753774022208062, 0.26375,103.987869262695
0.0274966566666667, 248.751457802963, -0.000763529532227179, 0.27,102.039474487305
0.0281632883333333, 248.757713561901, -0.000849926692572085, 0.2775,106.34447479248
0.02883078, 248.762883532244, -0.000841471617286897, 0.285,104.499588012695
0.029497455, 248.768169651281, -0.000824964946402249, 0.29125,107.809638977051
0.0301635033333333, 248.773879279513, -0.00103926368235348, 0.2975,107.809638977051
0.0308301766666667, 248.779508209509, -0.00106670030425628, 0.30375,106.221000671387
0.0314969816666667, 248.784172974658, -0.00105779675146825, 0.31125,103.431327819824
0.03216382, 248.790294529914, -0.00129127052430636, 0.3175,103.087646484375
0.0328306416666667, 248.795824965956, -0.00160782062432922, 0.32375,104.403831481934
0.0334979966666667, 248.801361199207, -0.00154221541961171, 0.33,104.403831481934
0.034163295, 248.806587717383, -0.00166043648146159, 0.3375,104.233909606934
0.03483011, 248.812033217213, -0.00151021152711458, 0.34375,103.958099365234
0.0354969583333333, 248.816768792047, -0.00158593972339377, 0.34875,109.084465026855
0.0361636966666667, 248.821944066985, -0.00158505026807386, 0.3575,107.786895751953
0.03683018, 248.82711707686, -0.0018016858866917, 0.36375,107.786895751953
0.0374967616666667, 248.832404892169, -0.00166485375965809, 0.37,102.680473327637
0.0381636783333333, 248.837499538175, -0.00169362231464353, 0.3775,104.519973754883
0.03883073, 248.842290636604, -0.00146405584553477, 0.38375,133.250640869141
0.0394968866666667, 248.84729419267, -0.0011922349988142, 0.39,106.048110961914
0.0401653283333333, 248.852258002978, -0.000805188439765893, 0.39625,106.048110961914
0.04083078, 248.857382364456, -0.000817574817592152, 0.4025,105.283554077148
0.04149684, 248.862191687069, -0.000588377329950363, 0.41,101.906425476074
0.0421633383333333, 248.86781596184, -0.000668374311761355, 0.41625,109.511764526367
0.04283019, 248.873463696763, -0.000616862399181075, 0.4225,104.46662902832
0.04349709, 248.878654720215, -0.000551044205155792, 0.42875,104.46662902832
0.044163355, 248.884021020153, -0.000691326158933269, 0.43625,105.67455291748
0.0448302133333333, 248.889397039541, -0.00107483439569792, 0.4425,106.57918548584
0.0454970516666667, 248.89455444074, -0.00103350547161294, 0.44875,106.938407897949
0.046163345, 248.899023664715, -0.00135189297930609, 0.455,109.498565673828
0.0468301633333333, 248.903581585276, -0.0013154358105118, 0.4625,109.498565673828
0.0474971533333333, 248.908542379944, -0.00117090607012291, 0.46875,105.195762634277
0.0481636116666667, 248.913269927191, -0.000923701986916913, 0.475,104.503608703613
0.0488308483333333, 248.917970771992, -0.000577814860474769, 0.48125,100.186264038086
0.04949704, 248.922569383461, -0.000370369280248492, 0.48875,101.196090698242
0.05016392, 248.927737560889, -0.000536952412942964, 0.495,101.196090698242
0.0508304066666667, 248.932187385225, -0.000526622431792383, 0.50125,103.779457092285
0.0514973883333333, 248.936909864603, -0.000706928375253973, 0.5075,105.134780883789
0.0521635033333333, 248.940839266091, -0.00103809224126701, 0.515,105.001106262207
0.0528302666666667, 248.945503308325, -0.000779740718004385, 0.5225,103.953109741211
0.0534975016666667, 248.949868983438, -0.000865243923256171, 0.5275,103.953109741211
0.0541634233333333, 248.95449221189, -0.00102190055459206, 0.53375,101.624923706055
0.05483022, 248.958208978951, -0.000817177337625289, 0.54125,107.705528259277
0.05549736, 248.962059255215, -0.00065119117492833, 0.5475,130.851913452148
0.0561633366666667, 248.965928998435, -0.000709488746720433, 0.55375,102.886253356934
0.0568302266666667, 248.969678426617, -0.000504743030908864, 0.56125,102.886253356934
0.057496855, 248.973528043375, -0.000671360661822102, 0.5675,112.774078369141
0.058163285, 248.977500240608, -0.000754379991858265, 0.57375,106.325721740723
0.05883017, 248.981943867121, -0.00128119853030192, 0.58,110.091331481934
0.059496915, 248.9858061941, -0.00123951262410269, 0.5875,104.15990447998
0.0601634333333333, 248.989706244524, -0.00130247796140288, 0.5925,104.15990447998
0.0608301733333333, 248.99353344218, -0.000926833829623522, 0.59875,105.54744720459
0.06149681, 248.997590791028, -0.000861609605746946, 0.60625,101.670448303223
0.062163315, 249.001651396942, -0.000390210283655442, 0.61375,107.037094116211
0.06283061, 249.00575729138, -0.000447040929126109, 0.62,104.651092529297
0.0634969416666667, 249.009385120815, -0.000204203126623143, 0.62625,104.651092529297
0.0641632966666667, 249.012370563893, -4.20402719102197E-05, 0.63375,104.611427307129
0.0648304483333333, 249.016197750403, 0.00016095053205198, 0.64,104.469673156738
0.0654974283333333, 249.019421126247, 0.000441920919183978, 0.64625,103.188018798828
0.066163395, 249.023221926533, 0.000805087177748481, 0.6525,104.142105102539
0.06683134, 249.027140158134, 0.000739339480212659, 0.66,104.142105102539
0.0674974083333333, 249.031952593777, 0.000524715260559653, 0.66625,105.487586975098
0.0681634666666667, 249.03624175104, 0.000222121959510822, 0.6725,103.846740722656
0.0688301366666667, 249.041090198391, 2.46943760954865E-05, 0.67875,103.543487548828
0.06949699, 249.044904882228, -0.000212611704273085, 0.685,108.724655151367
0.0701634833333333, 249.049105458264, -0.000449809790063367, 0.6925,108.724655151367
0.0708307233333333, 249.052692323101, -0.000337873412504592, 0.69875,105.220504760742
0.07149715, 249.056826979, -0.000194239127111973, 0.705,103.554893493652
0.07216331, 249.060575650596, -0.00029889487034209, 0.7125,117.132461547852
0.0728304233333333, 249.065323438286, -0.000313243149670383, 0.71875,107.865478515625
0.0734969433333333, 249.069159070076, 8.19270013487347E-05, 0.725,107.865478515625
0.0741633116666667, 249.0736926673, -0.000122047753234543, 0.7325,103.181732177734
0.0748303433333333, 249.077899803468, -0.000409275826039638, 0.7375,101.046363830566
0.07549699, 249.082636851896, -0.000433034632646774, 0.745,102.539520263672
0.0761633733333333, 249.086738456913, -0.000548089353571276, 0.75125,103.795654296875
0.0768302733333333, 249.092116776294, -0.000601246683519487, 0.75875,103.795654296875
0.0774968583333333, 249.096287683408, -0.000339437833890985, 0.76375,100.770881652832
0.0781636483333333, 249.100987339016, 0.000262909410822465, 0.77125,106.157470703125
0.078830125, 249.105492307236, 0.000562097882880785, 0.77875,102.846778869629
0.0794968516666667, 249.110435155311, 0.000878605984977843, 0.785,106.888832092285
0.0801639683333333, 249.114695477172, 0.000700665422767781, 0.79125,106.888832092285
0.0808301933333333, 249.119423619015, 0.000540746455344705, 0.79875,100.891418457031
0.0814968183333333, 249.123805702245, 0.000309414574894506, 0.805,103.457511901855
0.082163995, 249.128026243625, 0.000121702003496891, 0.81125,105.833221435547
0.0828301033333333, 249.132021741888, -0.000129988354364398, 0.8175,105.128868103027
0.0834973533333333, 249.136590302205, -9.48631186527423E-05, 0.825,105.128868103027
0.0841634816666667, 249.141375145314, -0.000249088372127125, 0.83125,100.056777954102
0.0848302866666667, 249.145924591845, -0.000352014702222728, 0.8375,104.502906799316
0.0854968133333333, 249.150471625293, -0.000533139604514767, 0.84375,108.119636535645
0.0861632866666667, 249.154342005909, -0.000436320967609427, 0.85125,105.076232910156
0.0868303383333333, 249.157978251836, -0.000116886512449006, 0.8575,105.076232910156
0.08749702, 249.161829863248, -5.65730419188601E-05, 0.86375,105.269470214844
0.0881636466666667, 249.165607788005, -0.000110010857794243, 0.87125,125.266860961914
0.08883053, 249.169253646116, -4.62430607895333E-05, 0.8775,107.319465637207
0.0894968466666667, 249.173683928554, -3.50851212408295E-05, 0.88375,104.551040649414
0.0901640266666667, 249.177247048995, -0.000420589757768789, 0.89125,104.551040649414
0.090830155, 249.180845047593, -0.000164668112464524, 0.8975,105.392608642578
0.0914974166666667, 249.184147479883, -5.70050202957772E-05, 0.90375,107.751426696777
0.0921639, 249.187920683259, 4.55838267453303E-05, 0.91125,107.233047485352
0.0928306683333333, 249.191406154409, -0.000138960903802506, 0.91875,108.675224304199
0.0934970333333333, 249.195782773831, -0.000221359264986942, 0.92375,108.675224304199
0.0941634316666667, 249.199787282772, -0.000484417551855899, 0.93,106.323333740234
0.0948301283333333, 249.20383341589, -0.000632866595390631, 0.93625,104.510292053223
0.0954968516666667, 249.207462094955, -0.000732829074376552, 0.94375,105.76636505127
0.096163635, 249.210844625189, -0.0004004547691788, 0.95,101.435317993164
0.0968301866666667, 249.214152532933, -0.000264993573262304, 0.9575,101.435317993164
0.0974969033333333, 249.217367808381, -0.000142850208354014, 0.96375,105.798446655273
0.0981634583333333, 249.220911410295, 6.37749130749019E-05, 0.97,104.471984863281
0.098830245, 249.22396777498, 0.00052475725842169, 0.97625,105.24072265625
0.099497675, 249.227506434278, 0.00040574423631686, 0.9825,108.802337646484
0.100163998333333, 249.230723374745, 0.000285436779218224, 0.99,108.802337646484
0.100830886666667, 249.23434457732, 0.000295030297338026, 0.9975,104.078346252441
0.101497473333333, 249.23731979103, 0.000454926765895053, 1.00375,106.049369812012
0.102163338333333, 249.240854840231, -3.8038472985959E-05, 1.01,108.536827087402
0.102830141666667, 249.244221053539, -0.000263171164793534, 1.0175,108.072410583496
0.103497085, 249.247347501165, -0.000282886174508102, 1.0225,108.072410583496
0.104163861666667, 249.249951980474, -7.14312957142946E-05, 1.02875,108.845161437988
0.104830231666667, 249.252909657514, -0.000349428832168938, 1.03625,119.050323486328
0.105496991666667, 249.256076186377, -8.1759776897964E-05, 1.0425,103.381767272949
0.106163391666667, 249.259466534833, 0.000435183257595568, 1.05,100.563591003418
0.106830376666667, 249.262758862064, 0.000754892198921785, 1.05625,100.563591003418
0.107496861666667, 249.26619399317, 0.000691880363922588, 1.0625,109.814315795898
0.108163871666667, 249.268968183609, 0.00113373117023269, 1.06875,105.414756774902
0.108830761666667, 249.27216292941, 0.000834203715195472, 1.075,101.128883361816
0.109496766666667, 249.274824776157, 0.000272106948729775, 1.08375,105.560501098633
0.11016377, 249.277774209535, -5.10578190379173E-05, 1.08875,105.560501098633
0.110830336666667, 249.280431842372, -0.000262455700725655, 1.095,107.007949829102
0.111496933333333, 249.283700525887, -0.000598944299241675, 1.1025,100.944450378418
0.11216332, 249.286594402567, -0.000624660507556383, 1.11,100.985908508301
0.112830136666667, 249.289668019485, -0.000694273510980785, 1.11625,103.638526916504
0.113497173333333, 249.292912006462, -0.000717354351651379, 1.1225,103.638526916504
0.114163481666667, 249.29592977961, -0.000788338286235408, 1.12875,107.42862701416
0.114830161666667, 249.299457619165, -0.00115756124051795, 1.135,102.881378173828
0.115496718333333, 249.302245978114, -0.00125412939000544, 1.14125,104.972808837891
0.116163456666667, 249.305698464222, -0.00142713070032667, 1.14875,101.573104858398
0.116830263333333, 249.30890385451, -0.00133192898218309, 1.15625,101.573104858398
0.117497041666667, 249.312664131497, -0.00122764372032308, 1.16125,99.9103393554688
0.118163681666667, 249.316045811288, -0.000970379642444108, 1.1675,104.172904968262
0.118830123333333, 249.320043858324, -0.0010122785379086, 1.17375,104.984672546387
0.119497123333333, 249.322558710313, -0.000245130070989305, 1.18125,104.788291931152
0.12016361, 249.326101628649, -0.00020352966056608, 1.18875,104.788291931152
0.120830446666667, 249.328746476885, -0.000156988498265852, 1.195,108.209098815918
0.121497263333333, 249.331885308527, 0.000113369921906499, 1.20125,122.384063720703
0.122163925, 249.334537388895, 0.000225037812933329, 1.2075,105.214683532715
0.122830171666667, 249.338305591242, -0.00048301812213261, 1.215,104.53653717041
0.123498541666667, 249.340994505307, -0.000543415588408085, 1.22125,104.53653717041
0.124164986666667, 249.34470198404, -0.00054474152181436, 1.2275,111.304885864258
0.124830538333333, 249.347932485181, -0.000885866387489759, 1.235,105.991226196289
0.125496858333333, 249.351747568689, -0.000793976503002434, 1.24125,102.453338623047
0.126164946666667, 249.354835338447, -0.000578297836345159, 1.2475,107.687004089355
0.126830695, 249.358441925852, -0.000535431489470536, 1.255,107.687004089355
0.127496693333333, 249.361060802506, -0.000701266159739003, 1.26125,101.06999206543
0.128163731666667, 249.364144155766, -0.000282836676981541, 1.26625,105.811195373535
0.128830565, 249.366174082059, -0.0001911162840368, 1.27375,112.048156738281
0.129497188333333, 249.369139862327, 9.57363552948201E-06, 1.28125,108.580413818359
0.130163943333333, 249.372251516034, -0.000246916481251142, 1.2875,108.580413818359
0.130830708333333, 249.375939287053, -0.000255038573318808, 1.29375,106.197143554688
0.13149713, 249.378887758149, -0.000752608580946731, 1.3,110.623245239258
0.132163475, 249.382693441207, -0.00105373045587966, 1.3075,101.54475402832
0.132830783333333, 249.385995597844, -0.00119204150865119, 1.31375,100.898612976074
0.133496975, 249.389048200111, -0.00119840118920496, 1.3225,100.898612976074
0.13416347, 249.392654284782, -0.00134498432646323, 1.32625,108.812423706055
0.134830445, 249.396225931791, -0.00134280943571719, 1.33125,104.724731445313
0.135497621666667, 249.39974570254, -0.00114492737512265, 1.33875,102.992240905762
0.136163303333333, 249.402848643517, -0.00111337046022522, 1.3475,103.832794189453
0.136830085, 249.405348250492, -0.000542011658996603, 1.3525,103.832794189453
0.137496826666667, 249.408271064188, -0.00053703040920322, 1.35875,102.942581176758
0.138163406666667, 249.410827468476, -0.000257186465446847, 1.36625,129.551361083984
0.138830183333333, 249.413578855298, -0.00044645745857575, 1.3725,105.239028930664
0.139496856666667, 249.416494802844, -0.000291369748484478, 1.38,105.064002990723
0.140163353333333, 249.41996544881, -0.000651813643746969, 1.38625,105.064002990723
0.140830101666667, 249.423076977205, -0.000564302039336647, 1.3925,106.049346923828
0.141496978333333, 249.426354975495, -0.000747286848228792, 1.39875,104.735946655273
0.142163866666667, 249.429153759169, -0.000349173845020384, 1.405,110.913108825684
0.1428302, 249.432538135189, -0.000379172338207778, 1.41125,104.632019042969
0.143496793333333, 249.435312832666, -0.000186334524231559, 1.41875,104.632019042969
0.144164015, 249.438464709203, 0.000117793199758108, 1.425,105.901344299316
0.144830526666667, 249.441378796497, 0.000363506357852218, 1.43125,105.200744628906
0.1454969, 249.444997834072, 0.000264938808816376, 1.43875,106.236663818359
0.146163635, 249.447703253471, 0.000189842080838483, 1.445,104.052047729492
0.146830733333333, 249.45140678706, 0.000143216922771672, 1.45125,104.052047729492
0.147496988333333, 249.454029354923, 5.13870352817315E-05, 1.45875,98.1420593261719
0.148163346666667, 249.45800657696, -0.000273339154066055, 1.465,108.293914794922
0.148830948333333, 249.460332958546, -0.000467840384503045, 1.47125,105.319213867188
0.149498416666667, 249.46401426908, -0.000315383542261423, 1.47875,110.946273803711
0.150163345, 249.466322176774, -0.000183880647504001, 1.485,110.946273803711
0.150830168333333, 249.469297338889, 0.000242064957692178, 1.49125,102.083702087402
0.151496823333333, 249.471092718758, 0.00033634122228766, 1.4975,99.9173202514648
0.152163886666667, 249.475225725594, 0.000476617176367523, 1.50125,101.225952148438
0.152830426666667, 249.478546276864, 0.000274119847597758, 1.51,101.452850341797
0.153496825, 249.482712632757, 1.11560559662058E-05, 1.5175,101.452850341797
0.154163625, 249.486524906827, -0.000589332782092796, 1.52375,96.9938049316406
0.154830793333333, 249.490626402561, -0.000388620363681719, 1.53125,121.624183654785
0.155497041666667, 249.493272823472, -0.000614972494241683, 1.5375,101.123474121094
0.156163323333333, 249.496032484638, -0.00038200569591563, 1.54375,103.1513671875
0.156830895, 249.499094464688, -0.000280147312143926, 1.55,103.1513671875
0.157497286666667, 249.50211503828, -0.000313123155824393, 1.5575,110.448188781738
0.158163801666667, 249.505408733614, -0.000722982069032599, 1.56375,108.31721496582
0.158832255, 249.508238968563, -0.000347969405533281, 1.57,104.735633850098
0.159497366666667, 249.511391101807, -0.000651095179851538, 1.5775,101.956970214844
