Time (min), Depth (µm), Load (N), Position (µm), Acoustic (aJ)
8.29333333333333E-06, 249.059028019061, -0.00028033591900315, 0,105.654350280762
0.000665578333333333, 249.059317092959, -0.000714141129432662, 0,106.347732543945
0.001332, 249.057809595464, -0.000461970795677314, 0.00499999999999999,106.347732543945
0.00199907666666667, 249.055254270543, -0.00017944348673843, 0.01375,105.283134460449
0.00266577666666667, 249.05311141777, -2.1130938606293E-05, 0.02,105.096611022949
0.00333246166666667, 249.052217415601, 9.94705036966361E-05, 0.02875,102.506004333496
0.00399860666666667, 249.052705861379, 0.000421879309416307, 0.035,109.434684753418
0.00466525666666667, 249.05601017752, -9.94660039659345E-05, 0.0425,109.434684753418
0.00533214, 249.06088448455, -5.44652643041556E-05, 0.04875,109.038635253906
0.00599884166666667, 249.06589960134, -3.71381350259756E-06, 0.0575,105.279243469238
0.00666538166666667, 249.070626434093, -0.000125258708403954, 0.06375,101.332740783691
0.00733217666666667, 249.074983289603, -0.000314135221329785, 0.07125,99.3349456787109
0.00799874833333333, 249.079187573154, -0.000323319260002481, 0.07875,99.3349456787109
0.00866531166666667, 249.082625714406, -0.000338747485071154, 0.085,126.327430725098
0.00933210333333333, 249.087129231841, -0.000175450687275573, 0.09,107.072265625
0.00999874333333333, 249.090947000399, -0.000415593125200803, 0.09875,105.437377929688
0.0106652833333333, 249.095340225603, -0.000270838396087664, 0.105,104.168273925781
0.0113319983333333, 249.099128414861, 3.29308458846075E-05, 0.11125,104.168273925781
0.0119986266666667, 249.104370942014, -0.000271570359323978, 0.1175,104.421768188477
0.0126655983333333, 249.108250259805, -0.000567150012715454, 0.12375,103.780891418457
0.0133321083333333, 249.113191985383, -0.000429834909853957, 0.13125,109.668495178223
0.01399882, 249.117438295214, -0.000344870177526703, 0.1375,106.757377624512
0.0146654383333333, 249.122724334039, -0.000440473875452863, 0.14375,106.757377624512
0.0153322983333333, 249.127362571535, -0.000215158192804329, 0.15,102.809143066406
0.01599869, 249.132632004277, -0.000243905748826865, 0.1575,104.29817199707
0.0166654166666667, 249.137621697193, -0.000176103154476006, 0.1625,101.280364990234
0.0173320383333333, 249.142259644036, -0.000265572160551391, 0.17,104.30770111084
0.01799863, 249.147706664725, -0.000425575123741049, 0.1775,104.30770111084
0.0186655333333333, 249.152378693495, -0.000366218605171468, 0.1825,101.713241577148
0.019332185, 249.157055272669, -9.52917135652663E-05, 0.18875,112.909118652344
0.0199987966666667, 249.161677108596, -0.000171511885154995, 0.1975,106.321144104004
0.0206653216666667, 249.167100204133, -0.000206743615499282, 0.20375,103.12232208252
0.0213320233333333, 249.171672018725, -0.000296184122989751, 0.20875,103.12232208252
0.0219988966666667, 249.176949554134, -0.000531600298270152, 0.21625,104.732398986816
0.0226652483333333, 249.181529265261, -0.000676560517047791, 0.22375,102.683090209961
0.0233322433333333, 249.186710194845, -0.000560448349185198, 0.23125,101.891120910645
0.0241653316666667, 249.191266040255, -0.00046336122579042, 0.23875,101.773307800293
0.02483199, 249.195909589446, 0.000295402662269383, 0.24375,126.440765380859
0.0254985633333333, 249.199974201536, 0.000728774394482591, 0.25,126.440765380859
0.0261653366666667, 249.204742376358, 0.00104959927975612, 0.2575,104.792999267578
0.026832285, 249.209906096216, 0.000985829982827005, 0.265,105.268859863281
0.02749864, 249.215444182518, 0.00108089220795857, 0.27125,104.251510620117
0.0281656466666667, 249.221257572835, 0.00047544311902658, 0.2775,105.707885742188
0.02883216, 249.226743974858, 0.000292968284559068, 0.28375,105.707885742188
0.029498565, 249.232274136735, -1.94330238417395E-05, 0.29125,108.454635620117
0.0301655933333333, 249.236833341372, 0.000252879798125614, 0.2975,106.141563415527
0.0308322933333333, 249.241915078839, 0.000171039408861698, 0.30375,107.028656005859
0.031498575, 249.246010034047, 9.87760386129113E-05, 0.31,111.965713500977
0.032165485, 249.251386889904, 2.83875741445002E-05, 0.3175,111.965713500977
0.0328321316666667, 249.25610805437, 9.21808698853195E-05, 0.32375,104.413841247559
0.0334986216666667, 249.261859972403, -5.54567143984712E-05, 0.33,106.567588806152
0.0341658866666667, 249.266806650048, -0.000293271269203509, 0.3375,106.432205200195
0.034832125, 249.272666289199, -0.000332800283685769, 0.34375,105.45467376709
0.03549888, 249.278074914728, -0.000264615208569572, 0.35,105.45467376709
0.036165245, 249.284260175688, -0.000420119897729966, 0.3575,100.186027526855
0.0368324266666667, 249.289755624009, -0.000558919925941975, 0.3625,106.192237854004
0.03749884, 249.295581270989, -0.000710643305022879, 0.37,107.776351928711
0.0381658616666667, 249.301310584614, -0.00069696549205162, 0.3775,106.66332244873
0.0388319316666667, 249.30693139962, -0.00089483405332653, 0.38375,106.66332244873
0.039498795, 249.312417009641, -0.00104137519274401, 0.39,102.695602416992
0.0401656033333333, 249.317592221119, -0.00115949875952893, 0.39625,106.300727844238
0.0408324766666667, 249.323333522886, -0.0011073313798144, 0.4025,123.475692749023
0.0414986366666667, 249.327611194645, -0.0012000477227967, 0.41,108.037826538086
0.04216575, 249.33305165855, -0.0010357879734067, 0.41625,108.037826538086
0.0428326716666667, 249.337773324858, -0.000745404059062035, 0.4225,103.486404418945
0.043498625, 249.343125572749, -0.000778280907710633, 0.42875,103.654396057129
0.0441653583333333, 249.34763326758, -0.000572482244776691, 0.43625,100.988265991211
0.0448320133333333, 249.353243310382, -0.000222941301850587, 0.4425,101.098571777344
0.0454990083333333, 249.357883551491, -0.000203407782988813, 0.44875,101.098571777344
0.0461652683333333, 249.36305549322, -0.000435371131719054, 0.455,101.196746826172
0.0468324633333333, 249.367332491299, -0.000283851742356993, 0.4625,101.354553222656
0.0474986366666667, 249.372451074235, -0.000431538824188599, 0.46875,107.928199768066
0.0481653483333333, 249.377548948973, -0.000852227193437433, 0.475,105.885772705078
0.0488320483333333, 249.381780090028, -0.000775504547151359, 0.48125,105.885772705078
0.049498815, 249.385978608211, -0.000443938701355741, 0.4875,109.010787963867
0.0501653266666667, 249.390373208456, -0.000447604517234926, 0.495,105.848976135254
0.0508319666666667, 249.394831922126, -0.000426157094558292, 0.5025,103.021430969238
0.05149878, 249.398555737346, 7.24238622236975E-05, 0.5075,105.162635803223
0.0521654483333333, 249.403440208111, 0.000267205578524096, 0.51375,105.162635803223
0.052831925, 249.408126287002, 0.000243815753383923, 0.52125,106.268600463867
0.0534990833333333, 249.413006364434, 0.000411037854001707, 0.5275,105.928359985352
0.05416527, 249.417541701767, 0.000564349653301965, 0.53375,105.067306518555
0.0548322983333333, 249.422687705142, 0.000149776476907918, 0.54,103.447189331055
0.05549867, 249.42719500067, -0.000304819189182076, 0.5475,103.447189331055
0.056165415, 249.431969458611, -0.000586160057705442, 0.55375,104.733154296875
0.056832, 249.436479365692, -0.000514244669939465, 0.56,105.92261505127
0.05749869, 249.440684734408, -0.000691261278589596, 0.5675,127.851928710938
0.0581653816666667, 249.445452132392, -0.000150457442629506, 0.57375,101.861518859863
0.05883214, 249.449868947092, -0.000177378090410062, 0.58,101.861518859863
0.0594986066666667, 249.454493556675, 0.000130503944977327, 0.58625,108.133666992188
0.0601653233333333, 249.458953185915, -0.000238162537287848, 0.5925,108.190696716309
0.0608321233333333, 249.463714533211, -7.61391755231736E-05, 0.59875,101.168800354004
0.0614987516666667, 249.467322710784, -0.000449045944820252, 0.60625,105.421455383301
0.06216576, 249.472246999072, -0.000107688590883602, 0.61375,105.421455383301
0.062832045, 249.476127144766, -0.00024630862816722, 0.62,105.658584594727
0.0634991283333333, 249.481190538961, -0.000138087563971682, 0.62625,105.280136108398
0.0641658233333333, 249.485276303103, -0.000411229844346578, 0.6325,101.184623718262
0.0648319533333333, 249.4908322194, -0.000112068370885008, 0.64,102.691299438477
0.0654987716666667, 249.494817070962, -0.000210632920093298, 0.64625,102.691299438477
0.0661653666666667, 249.500121173705, -9.37527908724746E-05, 0.6525,104.063446044922
0.0668320016666667, 249.504357975637, 0.000120962924147876, 0.66,103.458030700684
0.067498705, 249.509228495437, 0.000649227389992576, 0.66625,109.123840332031
0.0681653516666667, 249.51374322581, 0.000549981874998937, 0.6725,105.570159912109
0.0688321433333333, 249.518633519776, 0.00090428507871304, 0.67875,105.570159912109
0.0694986916666667, 249.523339793164, 0.000581324300706699, 0.685,103.814231872559
0.0701659566666667, 249.527872823077, 0.000409165948048884, 0.6925,103.997505187988
0.0708319283333333, 249.532798981504, 8.67661418543784E-05, 0.69875,103.653991699219
0.0714986933333333, 249.53720267995, -0.000182861815006061, 0.705,106.071479797363
0.0721659266666667, 249.542121538711, -0.00058254823918979, 0.7125,106.071479797363
0.0728321266666667, 249.546123972086, -0.000419977404932911, 0.71875,103.85620880127
0.07349871, 249.551104739215, -0.000402938260821344, 0.725,109.334831237793
0.0741653983333333, 249.555610918377, -0.000283860741967175, 0.7325,135.777603149414
0.0748321133333333, 249.560714995971, -6.39012902978538E-05, 0.73875,111.842674255371
0.075498945, 249.565637464784, 1.89545479145921E-05, 0.745,111.842674255371
0.0761654383333333, 249.570985090838, 0.000128701035440784, 0.75,104.57657623291
0.076832095, 249.576218014677, 9.4490753806402E-05, 0.75875,102.622032165527
0.0774986466666667, 249.581819853915, 0.000122471848352603, 0.765,104.891891479492
0.0781657133333333, 249.587179395578, -0.000119518496713744, 0.77125,103.836082458496
0.07883197, 249.592462713618, -0.000284034733219207, 0.77875,103.836082458496
0.0794987933333333, 249.598091266128, -0.000153446792517805, 0.78375,105.973594665527
0.0801655016666667, 249.603016095374, -1.43302802142007E-05, 0.79,109.055397033691
0.0808320083333333, 249.608388689823, -0.000184733721022647, 0.7975,105.387313842773
0.0814986083333333, 249.613471403395, -0.000148674032258983, 0.805,102.988357543945
0.0821653416666667, 249.618655891157, -0.00010023696521548, 0.81125,102.988357543945
0.082832255, 249.623698733904, -0.00020339578365735, 0.8175,101.525856018066
0.0834987366666667, 249.629193697614, -0.000443250236033392, 0.825,104.150505065918
0.08416529, 249.634475999703, -0.000286800594286404, 0.83125,104.58544921875
0.0848326466666667, 249.639467832224, -7.95935021040076E-05, 0.8375,104.958045959473
0.0855007, 249.644920201042, -5.21673794594873E-06, 0.84375,104.958045959473
0.086332045, 249.653302488704, -2.68306522951071E-05, 0.8525,103.660263061523
0.08699888, 249.65882015231, -0.000220203939347052, 0.85875,101.05004119873
0.087665335, 249.664071892519, -0.000249533466186831, 0.86625,106.036430358887
0.088331945, 249.669808394766, -0.000598454940249372, 0.8725,105.032180786133
0.08899886, 249.675078776228, -0.000531051325832289, 0.87875,108.222633361816
0.0896659316666667, 249.679765398587, -0.000496001086383304, 0.885,108.222633361816
0.090331955, 249.684516624468, -0.000341535845046908, 0.8925,108.294898986816
0.09099868, 249.689074688694, -0.000202299338748535, 0.89875,126.747222900391
0.0916653916666667, 249.693733705864, -0.000339503447140428, 0.905,99.8046875
0.0923318966666667, 249.698580214692, -0.000332176315176522, 0.9125,102.532157897949
0.0929988233333333, 249.703241810233, -1.22258859363644E-05, 0.92,102.532157897949
0.093665325, 249.708473832133, 4.987699472568E-05, 0.925,104.583068847656
0.09433222, 249.713068352809, -4.99039933436845E-05, 0.93125,100.14143371582
0.0949987616666667, 249.717933956108, 4.92050285080041E-05, 0.93875,102.57723236084
0.0956653733333333, 249.722232475933, 0.000112315858517816, 0.945,105.086196899414
0.096332, 249.72709367329, -1.35893174314667E-05, 0.9525,105.086196899414
0.0969989516666667, 249.731816876631, -0.000408672472813942, 0.95875,107.258018493652
0.0976653466666667, 249.737359794878, -0.000653871156731464, 0.965,104.588386535645
0.09833193, 249.742499291189, -0.000369428443989555, 0.97125,105.02417755127
0.0989986316666667, 249.7483356069, -0.000473104736456819, 0.9775,109.912811279297
0.0996652883333333, 249.753409232799, -0.00051535761414424, 0.985,109.912811279297
0.100332266666667, 249.758485431768, -0.000461958796303342, 0.99375,108.33309173584
0.100998615, 249.763292904791, 1.00239964872999E-05, 0.99875,104.285766601563
0.101665263333333, 249.767800531806, -0.000231897352056497, 1.00375,100.405578613281
0.102332001666667, 249.772334299096, -0.000337363054591898, 1.01125,102.897399902344
0.102998696666667, 249.776914098523, -0.000701621258292005, 1.0175,102.897399902344
0.10366545, 249.78145761378, -0.000715527059836321, 1.025,106.800994873047
0.104332108333333, 249.785868111688, -0.00099394607515455, 1.0325,106.753860473633
0.104998688333333, 249.790494438143, -0.00106490451098122, 1.03875,98.5626220703125
0.105665286666667, 249.794713924451, -0.00109823883663657, 1.045,106.528137207031
0.106331986666667, 249.798902752884, -0.000928495362650574, 1.05,106.528137207031
0.106998736666667, 249.802875279436, -0.0011359394429737, 1.0575,100.601608276367
0.10766529, 249.807117773609, -0.00136141411758773, 1.065,124.757209777832
0.108332378333333, 249.811148852808, -0.00139386348769638, 1.07,103.197792053223
0.108998623333333, 249.815148560514, -0.00145589437194456, 1.0775,102.171722412109
0.109665311666667, 249.818725821849, -0.00149046013574753, 1.08375,102.171722412109
0.110332151666667, 249.822481639941, -0.00114225112590406, 1.09125,105.272186279297
0.110998848333333, 249.825724221023, -0.00078496007226857, 1.0975,101.751319885254
0.111665343333333, 249.829224039116, -0.000764846082577719, 1.105,102.591033935547
0.112331966666667, 249.832604449723, -0.00048976739950066, 1.11,102.841773986816
0.112998745, 249.836199167096, -8.252435494058E-05, 1.11625,102.841773986816
0.113665486666667, 249.839583085256, 3.52872274834452E-05, 1.12375,108.877243041992
0.114332025, 249.843622594964, -8.18778874377595E-05, 1.13125,102.386024475098
0.114998613333333, 249.847346816885, 0.000176686625132636, 1.13875,108.608436584473
0.115665365, 249.851207160856, 0.000229935450511954, 1.1425,103.447265625
0.116332033333333, 249.854741786907, 0.00013572068283826, 1.14875,103.447265625
0.116998675, 249.858152261838, 0.000140464944575928, 1.15625,108.261413574219
0.117665388333333, 249.861622251983, -0.000182507832825638, 1.1625,104.561538696289
0.118331948333333, 249.865154565057, -0.000164517736429866, 1.16875,105.461563110352
0.118998716666667, 249.868392148271, -0.000254276227957588, 1.17875,107.185333251953
0.119665298333333, 249.872779286464, -0.000148278052131506, 1.1825,107.185333251953
0.120332015, 249.876459729595, -0.000195645672926708, 1.18875,109.758804321289
0.120998765, 249.880244137169, 0.00021499770089318, 1.19625,104.54736328125
0.121665286666667, 249.883534826359, -5.92695229754461E-05, 1.20375,108.022972106934
0.122331971666667, 249.887373173941, 8.31963211370018E-05, 1.20875,103.526145935059
0.122998613333333, 249.890241319506, 0.000234118740480296, 1.215,103.526145935059
0.123665556666667, 249.894399939563, 0.000277771047891005, 1.22375,130.653854370117
0.124332068333333, 249.897644650886, 2.28228536732334E-05, 1.23,104.637351989746
0.124998633333333, 249.901650125926, 7.30508307942921E-05, 1.23625,99.5050277709961
0.125665325, 249.904564518038, 0.000202915807805799, 1.2425,107.128982543945
0.126331966666667, 249.908423060257, -6.71711260283083E-05, 1.24875,107.128982543945
0.126998666666667, 249.911273115529, 0.000124018270731173, 1.255,105.467056274414
0.127665645, 249.914358003721, 0.000592474740633387, 1.2625,99.1910095214844
0.128332205, 249.917518489882, 0.000740604300227716, 1.27,104.347595214844
0.128998745, 249.921346205934, 0.000575116112517656, 1.275,101.788841247559
0.129665356666667, 249.924389779385, 0.000593065710954541, 1.28125,101.788841247559
0.130332041666667, 249.928272611623, 0.000275065183799938, 1.28875,105.936508178711
0.130998688333333, 249.93202112092, 0.000109783985700035, 1.295,108.663131713867
0.131665318333333, 249.935858694891, -0.000130202460044748, 1.30125,97.527458190918
0.132332443333333, 249.939530515927, -0.000411139848839875, 1.3075,103.206192016602
0.132998731666667, 249.943297230219, -0.000338443000311022, 1.315,103.206192016602
0.133665271666667, 249.946717444722, -0.000288377015068023, 1.32125,103.56844329834
0.13433193, 249.950668070483, -0.000719980336112233, 1.3275,106.593421936035
0.134998676666667, 249.953337455716, -0.000603083707680465, 1.33375,105.049652099609
0.135665366666667, 249.957154518115, -0.000645074098554808, 1.3425,103.838523864746
0.136331965, 249.96037242165, -0.00112601594137891, 1.34875,103.838523864746
0.13699877, 249.963895276444, -0.00113857631047846, 1.35375,105.524383544922
0.137665531666667, 249.967219871045, -0.00103439454340228, 1.36125,103.298713684082
0.138332203333333, 249.971063602537, -0.000925874994229238, 1.3675,108.482643127441
0.13899899, 249.974234215137, -0.000592375745559009, 1.37375,101.843322753906
0.139665393333333, 249.97743980369, -0.000373002764437633, 1.38,101.843322753906
0.14033207, 249.980893753562, -0.000310803888635034, 1.38875,123.707595825195
0.140998648333333, 249.984174976894, -0.000226580119133022, 1.395,109.93968963623
0.141665556666667, 249.98803804363, -4.17714018902124E-05, 1.4,106.345703125
0.142332205, 249.991446753196, 7.59441853720043E-05, 1.4075,111.558006286621
0.142998951666667, 249.995988208394, 4.90880343407877E-05, 1.41375,111.558006286621
0.143665315, 249.999477564322, 0.00026206083692825, 1.42,103.110054016113
0.144332385, 250.003387141056, 0.000704274625007704, 1.42625,108.07315826416
0.144999353333333, 250.006641828902, 0.00065921838812175, 1.43375,112.291366577148
0.145665313333333, 250.010410513894, 0.000653017699575977, 1.44,105.605377197266
0.146332015, 250.013425759382, 0.000646758513978478, 1.44625,105.605377197266
0.146998835, 250.016789594071, 0.000616211048331966, 1.4525,105.864028930664
0.147665285, 250.019880552741, 0.000421399333522248, 1.46,110.118980407715
0.148331975, 250.023263122647, 0.000197748567280141, 1.46625,104.874519348145
0.148998641666667, 250.026922120055, -0.000198885510211606, 1.4725,97.7336044311523
0.14966532, 250.030599373814, -6.08534434428438E-05, 1.47875,97.7336044311523
0.150331966666667, 250.034438561916, 7.12419215813894E-05, 1.48625,106.668907165527
0.150998645, 250.038257125885, 0.00027346926391606, 1.4925,106.080490112305
0.151665338333333, 250.042631784275, 0.00032952744817027, 1.49875,103.130416870117
0.152332205, 250.047533777744, 0.000332167315587594, 1.50375,106.388389587402
0.1529987, 250.051963022732, 0.00058346769301902, 1.51125,106.388389587402
0.15366539, 250.056562556957, 0.000389290446316897, 1.51875,107.027412414551
0.154331948333333, 250.06109550362, 0.000378277999477817, 1.52625,109.765617370605
0.154998635, 250.064488810261, 0.00106429254165465, 1.5325,112.182121276855
0.155665648333333, 250.067237923065, 0.00168852368719486, 1.53875,106.028961181641
0.156331998333333, 250.070713533571, 0.00142599187394023, 1.545,106.028961181641
0.15699864, 250.073797427314, 0.00146390096981192, 1.5525,130.421463012695
0.157665658333333, 250.077031645614, 0.00153002514843672, 1.55875,106.56795501709
0.158332163333333, 250.080755345138, 0.00110431653136002, 1.565,102.067718505859
0.158998845, 250.084286008235, 0.00107600395349945, 1.57125,106.410423278809
0.159665418333333, 250.087720530121, 0.0016444738998598, 1.57875,106.410423278809
0.160332285, 250.091042951639, 0.00186140500362759, 1.585,108.46257019043
