Time (min), Depth (µm), Load (N), Position (µm), Acoustic (aJ)
7.55333333333333E-06, 249.532844418531, 0.000252877865148544, 0,103.538719177246
0.000665636666666667, 249.532716515848, 0.000360318968505609, 0,105.791465759277
0.00133042, 249.531046797398, -2.32207667352712E-05, 0.00374999999999998,107.57209777832
0.00199717666666667, 249.528164878278, -0.000298501939628024, 0.0125,107.57209777832
0.00266360333333333, 249.525755868221, -0.000660067778556693, 0.02125,107.659423828125
0.00333179166666667, 249.524854431971, -0.000735025013543829, 0.02875,103.151191711426
0.00399713833333333, 249.525593804864, -0.000785866459830837, 0.035,97.6440505981445
0.00466362833333333, 249.528964636083, -0.000827303378472852, 0.04375,105.06916809082
0.00533063833333333, 249.534160388988, -0.000638533360222162, 0.05,105.06916809082
0.00599718, 249.540124104256, -0.000453121673284226, 0.0575,108.019638061523
0.006663775, 249.545420153233, -0.000630150281308329, 0.06375,108.882965087891
0.00733048666666667, 249.550407358033, -0.000429691350142657, 0.07125,108.148193359375
0.00799721, 249.555007191872, -0.000225509606012984, 0.0775,110.190071105957
0.00866387, 249.559687550048, -0.000137245039445956, 0.085,110.190071105957
0.00933060166666667, 249.56390600202, 0.000183723838655301, 0.0925,103.764450073242
0.00999763333333333, 249.568295731726, 0.000179266062521163, 0.09875,109.015747070313
0.010663685, 249.572983238665, -0.000240519352066877, 0.105,106.64013671875
0.0113304, 249.577671778192, -0.000349265389888571, 0.11125,108.311622619629
0.0119973916666667, 249.581724646237, -0.000207095030947327, 0.11875,108.311622619629
0.0126638266666667, 249.58565056743, -0.000159415425854993, 0.12375,101.061264038086
0.0133314383333333, 249.589453444846, -0.000242967229096821, 0.13,127.159248352051
0.01399695, 249.593009062595, 6.52297904577607E-05, 0.13875,105.758316040039
0.01466361, 249.596549756997, 0.000158574601850041, 0.14375,114.094535827637
0.015330545, 249.600513591359, 2.90696067590785E-05, 0.15,114.094535827637
0.0159973716666667, 249.604884156657, -0.000322214248621168, 0.15625,110.126976013184
0.0166635733333333, 249.609351415409, -0.000203672202842724, 0.1625,105.799285888672
0.0173318183333333, 249.613859287473, -0.000317140003472275, 0.17125,105.824905395508
0.0179973883333333, 249.618873386721, -0.000407313974123461, 0.1775,102.394416809082
0.018663565, 249.623974745537, -0.000653951085820011, 0.18375,102.394416809082
0.019330245, 249.628962293161, -0.00032255023175126, 0.19,98.9294586181641
0.01999704, 249.633757001439, -0.000125659621378561, 0.19625,104.348258972168
0.020663625, 249.638758901745, -0.000139796411302233, 0.20375,104.193817138672
0.0213304533333333, 249.643855093855, -0.000187638008251373, 0.21125,105.177574157715
0.0219972766666667, 249.648940450534, -0.000404558612548341, 0.2175,105.177574157715
0.0226636183333333, 249.653766491746, -0.000633996088115905, 0.2225,107.024574279785
0.0233303683333333, 249.658864973123, -0.000792638619659267, 0.23,110.220558166504
0.0239973716666667, 249.664015088322, -0.000965597932118455, 0.2375,106.944320678711
0.0246646616666667, 249.668884188302, -0.00103877175665005, 0.24375,102.239532470703
0.0253302766666667, 249.673868025232, -0.000841066687177605, 0.25,102.239532470703
0.0259973033333333, 249.678345655916, -0.000585535022260696, 0.25625,108.218894958496
0.0266636883333333, 249.683506160728, -0.000545905512800909, 0.2625,101.366485595703
0.0273306316666667, 249.688082489966, -0.000624465566799785, 0.26875,100.844718933105
0.0279975716666667, 249.69255626547, -0.000668666846648357, 0.27625,108.301132202148
0.0286636116666667, 249.697492890149, -0.000427568956750727, 0.28375,108.301132202148
0.02933043, 249.70301357846, -0.000728684832028554, 0.29,106.115287780762
0.02999698, 249.708581812277, -0.000747096407245404, 0.29625,124.161285400391
0.030663825, 249.714387397613, -0.000809227786449856, 0.30375,105.565483093262
0.0314975366666667, 249.722402984922, -0.000530436789815857, 0.31,108.574264526367
0.0321636033333333, 249.727919675439, -0.000404213629850575, 0.3175,106.237609863281
0.032830555, 249.733231108269, -0.000332239745032871, 0.32375,106.237609863281
0.033497305, 249.738563227681, -0.000140886856513435, 0.33,107.228286743164
0.034163585, 249.743407279783, 0.000155285267059836, 0.3375,103.03190612793
0.0348307733333333, 249.749613232064, 0.000203513844590032, 0.34375,99.593994140625
0.0354971283333333, 249.754426158664, 0.00011072400529072, 0.35125,102.635902404785
0.0361637883333333, 249.759888326402, 0.000257514132201653, 0.3575,102.635902404785
0.0368303866666667, 249.765130861812, 0.000346732650859186, 0.36375,102.31086730957
0.03749724, 249.770737313993, -1.79875296421408E-05, 0.37,111.278259277344
0.0381637466666667, 249.775712245728, 0.000195781732930976, 0.37625,109.279067993164
0.0388303866666667, 249.780756382698, 0.000319267530371468, 0.38375,103.327575683594
0.0394972516666667, 249.786369273758, 0.000128162129378569, 0.39,103.327575683594
0.040163595, 249.791588527637, -1.7960530981628E-05, 0.3975,106.268486022949
0.0408305166666667, 249.796966024669, 0.000294451276868748, 0.4025,109.678565979004
0.0414970133333333, 249.802583558274, -2.02809144160417E-05, 0.41,104.778671264648
0.0421636416666667, 249.808703114349, -0.00019313373220009, 0.41625,104.120887756348
0.0428305666666667, 249.814159382401, 5.1112499572585E-05, 0.4225,104.120887756348
0.0434970716666667, 249.81965915808, 0.00010638472329071, 0.42875,99.5825729370117
0.0441635883333333, 249.824815762067, -0.000278747931900225, 0.43625,110.484580993652
0.044830865, 249.830562586659, -0.000252710739699458, 0.4425,108.45288848877
0.0454971116666667, 249.835631280048, -0.000211933787901146, 0.44875,107.400856018066
0.0461635766666667, 249.840737065999, -0.000746062959161527, 0.455,107.400856018066
0.0468305083333333, 249.846054746788, -0.00082441902344156, 0.4625,130.301040649414
0.0474970733333333, 249.850898850957, -0.000997199844811743, 0.46875,100.93962097168
0.04816365, 249.855157361096, -0.000990922660121404, 0.47625,109.698684692383
0.0488305766666667, 249.860045092093, -0.00119502040846324, 0.4825,105.84538269043
0.049497125, 249.865009305042, -0.00106997468936706, 0.48875,105.84538269043
0.0501635683333333, 249.869725236305, -0.00128282299820779, 0.495,100.012145996094
0.0508305583333333, 249.874211156624, -0.0011067273433113, 0.5025,107.321441650391
0.0514970616666667, 249.879427020363, -0.00139440539354364, 0.50875,105.256767272949
0.052330765, 249.88387511907, -0.00110677084114025, 0.51625,105.030288696289
0.0529970133333333, 249.88779602205, -0.000903369057806537, 0.5225,113.229202270508
0.05366381, 249.892111003164, -0.000953327048471247, 0.53,113.229202270508
0.05433056, 249.896732128753, -0.000942100112421247, 0.53625,110.422393798828
0.0549970883333333, 249.900546766203, -0.000609224832409045, 0.5425,109.241500854492
0.055663715, 249.905232499086, -0.000715555991495158, 0.54875,110.098083496094
0.05633055, 249.909793506457, -0.000738042861995791, 0.55625,105.219871520996
0.056997115, 249.914192304758, -0.000596226485298732, 0.5625,105.219871520996
0.0576635683333333, 249.91840607784, -0.00052282017237836, 0.56875,101.563041687012
0.05833056, 249.922603963362, -0.000628725352870185, 0.575,101.511604309082
0.0589972666666667, 249.926436846839, -0.000513286651255941, 0.5825,107.377983093262
0.0596635866666667, 249.929842421125, -0.000374279633433775, 0.58875,103.18701171875
0.060331005, 249.933627049762, -0.000148231987591434, 0.59375,103.18701171875
0.060997695, 249.937531723294, -0.000218422461996107, 0.60125,104.09489440918
0.0616639383333333, 249.941284222139, -2.34481534129443E-06, 0.60875,109.561943054199
0.0623305983333333, 249.94569759155, -9.4938164480018E-05, 0.615,106.160957336426
0.0629970966666667, 249.950346894648, -8.68070728871868E-05, 0.62125,120.639862060547
0.0636635766666667, 249.954651581653, -1.99734298283574E-05, 0.62875,120.639862060547
0.0643304566666667, 249.959082099762, 0.000317589114772936, 0.635,107.864158630371
0.0649970516666667, 249.963843468441, 0.000187032672484003, 0.64125,107.015830993652
0.0656638866666667, 249.968244293531, 0.000600597899509027, 0.6475,105.796737670898
0.0663305116666667, 249.972654390144, 0.000652469794031106, 0.655,107.406364440918
0.0669973783333333, 249.977557913492, 0.000685604629677064, 0.66125,107.406364440918
0.067663575, 249.982436240677, 0.000490753916832862, 0.6675,109.487205505371
0.06833049, 249.987416893337, 0.00081519662040467, 0.675,99.255126953125
0.068997125, 249.992077688362, 0.000449387494637799, 0.68125,107.432235717773
0.0696635916666667, 249.997265334547, 0.000377478106611944, 0.6875,107.620292663574
0.0703304783333333, 250.001899868155, 3.2619030982801E-06, 0.69375,107.620292663574
0.0709976616666667, 250.006496769303, 0.000312025894183564, 0.70125,106.999015808105
0.0716636233333333, 250.011039486209, 0.000498561024712081, 0.7075,102.29515838623
0.0723305183333333, 250.015653584436, 0.000539346976078066, 0.71375,101.722969055176
0.0729971233333333, 250.020500036194, 0.000539612462739951, 0.72,100.924087524414
0.0736638516666667, 250.024643820946, 0.000662162307161523, 0.7275,100.924087524414
0.074330435, 250.02971527874, 0.000474301243247985, 0.73375,106.608978271484
0.0749971116666667, 250.034470085823, -5.94979445586617E-05, 0.73875,109.270263671875
0.0756639016666667, 250.038680606474, 0.000337262126604213, 0.7475,102.528869628906
0.0763307766666667, 250.042962743166, 0.000412882328283859, 0.75375,102.82795715332
0.0769973883333333, 250.048207252642, 0.000462442838981706, 0.76,102.82795715332
0.0776635983333333, 250.052557015733, 0.000680977362212883, 0.765,101.93830871582
0.0783304266666667, 250.057413451526, 0.000690308393519607, 0.7725,108.326622009277
0.0789970883333333, 250.062037800847, 0.000220573987749515, 0.78,107.595458984375
0.0796642783333333, 250.06672303035, 0.000132615405824514, 0.78625,122.596870422363
0.0803304533333333, 250.071171813266, -7.32072559636432E-05, 0.79375,122.596870422363
0.08099732, 250.075626067763, -0.000138210990931687, 0.8,104.314529418945
0.08166379, 250.079425007295, 0.000297028147461135, 0.80625,105.880554199219
0.0823303416666667, 250.083846852502, 0.000717317536776194, 0.8125,100.432723999023
0.08299741, 250.088141474779, 0.00079206028255241, 0.82,105.4677734375
0.0836641516666667, 250.09242710778, 0.00121912033175024, 0.82625,105.4677734375
0.08433043, 250.09694038106, 0.000855583591858134, 0.8325,101.441040039063
0.08499714, 250.101676449976, 0.000385199718757669, 0.84,105.33317565918
0.0856636183333333, 250.106038108371, 0.000360653451647535, 0.84625,102.956665039063
0.086330675, 250.110615958405, 0.000397475102135579, 0.8525,106.763252258301
0.0869971366666667, 250.114986338432, 0.000182963376876579, 0.85875,106.763252258301
0.0876636516666667, 250.119130473209, 0.000395504201150886, 0.86625,104.388626098633
0.0883309066666667, 250.123729304715, 0.000601767840734855, 0.8725,104.516967773438
0.0889970283333333, 250.128795161769, 0.000343120832301027, 0.87875,104.013854980469
0.0896635983333333, 250.133602385924, -2.44912028961175E-05, 0.88625,106.727798461914
0.0903305416666667, 250.138347417669, -1.39407328370036E-05, 0.8925,106.727798461914
0.0909974633333333, 250.142808718664, 0.000350891941994568, 0.89875,107.666938781738
0.0916638716666667, 250.14746598864, 0.000329623010321921, 0.90625,110.557334899902
0.0923304283333333, 250.152269091998, 0.000199921525134132, 0.9125,112.19108581543
0.0929975366666667, 250.156492931542, 0.000275120247971446, 0.91875,105.777381896973
0.0936636666666667, 250.161247469336, 0.000270285990790836, 0.925,105.777381896973
0.0943304316666667, 250.166556996522, -0.000159350929020637, 0.9325,109.323303222656
0.0949971533333333, 250.171840102257, -0.000302154256166326, 0.94,108.39037322998
0.0956638933333333, 250.177332258591, -0.000265140615312157, 0.94625,105.314811706543
0.096330545, 250.182879780962, -0.000300073860657687, 0.95125,125.434051513672
0.0969976466666667, 250.188310487396, -0.000378696911502755, 0.95875,125.434051513672
0.0976635183333333, 250.193596615256, -0.000514974066422147, 0.965,108.053115844727
0.0983304533333333, 250.198802546572, -0.000685974477228107, 0.9725,110.540168762207
0.0989972233333333, 250.203944381556, -0.000699542795696674, 0.97875,103.068565368652
0.0996639116666667, 250.209113903536, -0.000652508158204011, 0.98625,107.740745544434
0.100330311666667, 250.214365174006, -0.000452491704822317, 0.9925,107.740745544434
0.100997106666667, 250.21991588235, -0.000313972162537479, 0.99875,111.431091308594
0.101663905, 250.225231930142, -9.87269740965078E-05, 1.005,105.621910095215
0.10233077, 250.230281703562, -9.98834160027065E-05, 1.0125,106.918418884277
0.10299712, 250.235688731196, -7.89249687240423E-05, 1.01875,107.021522521973
0.103663643333333, 250.241023497925, 0.000389922981511184, 1.025,107.021522521973
0.10433937, 250.246213754938, 0.000457931065547797, 1.03125,105.661514282227
0.10499746, 250.2514432567, 0.000732301784178994, 1.0375,104.355491638184
0.105663805, 250.256307383618, 0.00084122481312278, 1.045,106.819564819336
0.106330615, 250.261402874114, 0.000904698624880689, 1.05125,105.326126098633
0.106997175, 250.265851935478, 0.000240836470020051, 1.05875,105.326126098633
0.107663923333333, 250.270625746097, 0.000325420221463861, 1.06375,103.914894104004
0.108330535, 250.27532834491, 0.000104487318708048, 1.07,104.34252166748
0.108997093333333, 250.280326411724, 1.3683379679968E-05, 1.07875,106.237686157227
0.109663728333333, 250.284913299737, -0.00015427068417413, 1.085,103.133850097656
0.110330768333333, 250.289707462683, -0.00019819297799868, 1.09,103.133850097656
0.110997131666667, 250.294198851225, 5.82476412766366E-05, 1.0975,109.04222869873
0.111663585, 250.298707275413, -0.000226195071486527, 1.105,103.822463989258
0.112330913333333, 250.302870629071, -0.000301104308892758, 1.11125,135.321960449219
0.112997015, 250.30748344214, -0.000135647619595166, 1.1175,107.73397064209
0.113663701666667, 250.312329849934, -3.16218446994347E-05, 1.12375,107.73397064209
0.11433044, 250.317291988459, -0.000428240922968403, 1.13125,101.085327148438
0.114997833333333, 250.322474460875, -0.000302938716778008, 1.1375,101.914825439453
0.115663595, 250.327297629888, -6.40292169460511E-05, 1.1425,109.492599487305
0.116330456666667, 250.332004714747, -0.000115212646082018, 1.15,101.508514404297
0.116997681666667, 250.336937195744, 1.59077679100649E-05, 1.1575,101.508514404297
0.117663628333333, 250.341222901285, -4.64306009045451E-05, 1.16375,107.824424743652
0.118330465, 250.345343581571, 0.000296033697496759, 1.17,104.71955871582
0.118997455, 250.349853442809, 0.000172094922801466, 1.17625,106.672119140625
0.119663923333333, 250.354481908407, 0.000292895855092537, 1.1825,104.545997619629
0.120330731666667, 250.358955666292, 0.000175957228819986, 1.18875,104.545997619629
0.120997683333333, 250.363325260466, 0.000165912233348532, 1.1975,111.244873046875
0.121664113333333, 250.367644820375, 0.00010748566805775, 1.20375,103.382209777832
0.12233056, 250.371935960163, 0.00032483225097026, 1.20875,107.402420043945
0.122997083333333, 250.376013498337, 0.000456545135144137, 1.215,105.750595092773
0.123663703333333, 250.380605101589, 0.000292136893195709, 1.22375,105.750595092773
0.124330723333333, 250.385086200475, 0.000232136906929606, 1.23,112.06428527832
0.124997215, 250.389373416806, 5.20949502267516E-05, 1.235,103.593696594238
0.125663576666667, 250.394025370198, -0.00026602557092262, 1.2425,102.77751159668
0.126330571666667, 250.397826338223, -0.000309761874057404, 1.24875,112.182579040527
0.126997115, 250.401031779262, -5.74820458418717E-05, 1.25625,112.182579040527
0.127663606666667, 250.404647953871, 4.30114065315813E-05, 1.2625,105.461654663086
0.128330595, 250.408139245415, -0.000122391285487493, 1.27,101.080345153809
0.128997841666667, 250.411053149067, 0.000127026686520286, 1.275,123.628448486328
0.129663536666667, 250.414745162049, -4.36371390689091E-06, 1.28125,106.39574432373
0.13033047, 250.418502246522, -0.000216766545114845, 1.28875,106.39574432373
0.130997238333333, 250.421639467314, 5.95876757916548E-06, 1.29625,104.602111816406
0.131663805, 250.425108647775, 0.000268658572430728, 1.3025,104.401908874512
0.132330421666667, 250.428876194772, -0.00018070085671733, 1.30875,104.799461364746
0.132997113333333, 250.432314648907, -0.000359656867939685, 1.315,102.987823486328
0.133663626666667, 250.435385031607, -0.000250622844590057, 1.32125,102.987823486328
0.134330615, 250.439167730054, -0.000620360273049191, 1.3275,107.082611083984
0.134998003333333, 250.442595624026, -0.000642121180011123, 1.33625,107.47338104248
0.13566358, 250.44582812981, -0.000216342066423706, 1.34125,106.695381164551
0.136330605, 250.449372418537, -0.000249779886862885, 1.3475,105.879768371582
0.136997876666667, 250.452836164421, 4.02875433264208E-05, 1.35375,105.879768371582
0.137663815, 250.456128580476, 0.000431860875010158, 1.3625,107.714973449707
0.138330255, 250.45908905035, 0.00050758757134369, 1.3675,103.06884765625
0.13899762, 250.462712060228, 0.000221419945219223, 1.37375,104.261581420898
0.13966412, 250.466060592921, 0.000588703496950799, 1.38,106.804893493652
0.140330431666667, 250.469804843493, 0.000343222827160448, 1.3875,106.804893493652
0.140997176666667, 250.473777406547, 8.70986919979811E-05, 1.39375,103.452445983887
0.141665065, 250.478009434222, -0.000112112301809132, 1.4,102.865676879883
0.142330358333333, 250.481933567231, -6.05403922102128E-05, 1.4075,108.633010864258
0.142997093333333, 250.486088521958, -2.97484388859706E-05, 1.415,105.86051940918
0.143663606666667, 250.489752024338, 4.50918019764572E-05, 1.42,105.86051940918
0.144330768333333, 250.493570505702, 0.000184721288510992, 1.42625,107.087203979492
0.1449977, 250.497541237199, 0.000290222989274579, 1.43375,106.426124572754
0.145663896666667, 250.501752365605, 0.000309593016312635, 1.44,126.408340454102
0.14633059, 250.506405710569, 0.000172577898480569, 1.44625,107.847671508789
0.14699709, 250.510963207144, 0.000164314813540251, 1.45375,107.847671508789
0.14766373, 250.515172145934, 0.000375115725251731, 1.46,104.30982208252
0.148330506666667, 250.51941390016, 0.000199141564253151, 1.46625,104.47826385498
0.148997195, 250.523940103657, -0.000173417222497356, 1.4725,100.395896911621
0.149663911666667, 250.527524640294, -0.000251023324405727, 1.48,106.062591552734
0.15033072, 250.53138029853, -0.000389616363028832, 1.48625,106.062591552734
0.150997246666667, 250.535339122063, -0.000722422646518485, 1.4925,105.112251281738
0.15166395, 250.540089577106, -0.000611699708014486, 1.49875,107.09358215332
0.152330403333333, 250.544426240354, -0.000408093934919426, 1.50375,103.810417175293
0.15299714, 250.549213590067, -0.000597123440176897, 1.51125,106.679100036621
0.153663685, 250.554096694579, -0.00113431695750323, 1.51875,106.679100036621
0.154330426666667, 250.558844651915, -0.00085210463273154, 1.52625,107.012466430664
0.154997351666667, 250.563105638157, -0.00087854230481174, 1.5325,101.814643859863
0.155665466666667, 250.567004903243, -0.000854563009232308, 1.53875,104.043487548828
0.156330593333333, 250.570441411674, -0.000298072961163676, 1.545,107.01978302002
0.156998563333333, 250.573923191905, 0.000278937556194106, 1.5525,107.01978302002
0.157664186666667, 250.577650045446, 0.000273207844038481, 1.55875,105.963371276855
0.158330895, 250.581144190298, 0.000488027053842657, 1.565,104.50333404541
0.158998416666667, 250.585021901005, 0.00105622701374666, 1.5725,107.35920715332
0.159664168333333, 250.588570502878, 0.000552696305605011, 1.57875,97.4429779052734
0.16033289, 250.592668772919, 0.000463864767528536, 1.585,97.4429779052734
