Time (min), Depth (µm), Load (N), Position (µm), Acoustic (aJ)
8.255E-06, 249.457261395383, 0.000260483367362149, 0,103.089958190918
0.000665673333333333, 249.457478488654, 0.000132574292112556, 0,105.042915344238
0.00133167166666667, 249.455917357351, 0.000299430411090928, 0.00374999999999998,105.042915344238
0.00199841, 249.45357097966, -0.000118832579994009, 0.0125,104.386276245117
0.00266507, 249.451782897243, -0.000367226103443077, 0.02125,110.908843994141
0.00333171666666667, 249.451953488462, -0.000694968641275914, 0.02875,109.321243286133
0.00399901833333333, 249.453295973352, -0.000984233611781952, 0.035,106.057067871094
0.00466509833333333, 249.457712105503, -0.00135669790329505, 0.0425,106.057067871094
0.00533167666666667, 249.464245485262, -0.00127108970329253, 0.05,101.962608337402
0.00599893666666667, 249.470805456626, -0.000991701736661019, 0.0575,114.238830566406
0.00666514833333333, 249.476200371455, -0.000861473777837653, 0.065,106.00373840332
0.00733178, 249.481166065612, -0.000416335136704256, 0.07125,106.843910217285
0.00799848166666667, 249.48577129039, -5.34223653851585E-05, 0.0775,106.843910217285
0.00866502, 249.490375116749, -3.59197445479692E-05, 0.08375,103.46076965332
0.00933191, 249.494779238757, -0.000241302928358447, 0.09125,105.508438110352
0.00999835833333333, 249.499270622122, -0.000218564070515558, 0.1,103.017570495605
0.01066499, 249.503481567468, -0.000279753497045986, 0.105,102.970474243164
0.0113317833333333, 249.508522835652, -0.000595397642559243, 0.11,102.970474243164
0.0119984183333333, 249.512910123161, -0.000605766621765563, 0.11875,104.428359985352
0.0126652833333333, 249.517606514009, -0.000600954863429747, 0.125,103.649276733398
0.0133335866666667, 249.522073320396, -0.000629903409386083, 0.13125,102.857437133789
0.01399894, 249.526792443907, -0.000697698504093671, 0.1375,111.127258300781
0.0146656533333333, 249.531077612779, -0.000624713670079392, 0.1425,111.127258300781
0.01533179, 249.535667092511, -0.000505640650955924, 0.15,104.318214416504
0.01599836, 249.539994685781, -0.000557110565716675, 0.1575,123.997428894043
0.0166652216666667, 249.544854834196, -0.000350926422104825, 0.16375,106.191329956055
0.0173316566666667, 249.54962362767, -0.000292126375573869, 0.17,104.717155456543
0.0179998616666667, 249.554218631197, -0.000270141979833344, 0.17625,104.717155456543
0.0186649816666667, 249.559240407773, -0.000450314429980536, 0.1825,99.9997329711914
0.01933167, 249.56412699676, -0.000319571997023091, 0.19125,100.586151123047
0.0199984416666667, 249.568715059623, -0.000240882949504281, 0.1975,105.246246337891
0.0206650866666667, 249.573819718375, -0.000591287849014185, 0.20375,101.568717956543
0.0213322483333333, 249.578669970437, -0.000627134548470078, 0.20875,101.568717956543
0.0219983966666667, 249.583061306073, -0.000489687452282349, 0.2175,102.954803466797
0.0226649666666667, 249.587777043792, -0.000567674535095419, 0.22375,103.101783752441
0.023331725, 249.592581648916, -0.000819489386703432, 0.23,108.082305908203
0.0239983766666667, 249.59708941734, -0.000618235495455255, 0.23625,101.534645080566
0.0246652466666667, 249.601910350444, -0.000537916029812546, 0.2425,101.534645080566
0.025331715, 249.607112832456, -0.000617586028082374, 0.25,108.505737304688
0.02599826, 249.612297838172, -0.000648764962008927, 0.25625,99.8735427856445
0.0266652783333333, 249.617553974747, -0.000738503954540661, 0.26375,101.512214660645
0.02733173, 249.62273180119, -0.000740122373248079, 0.27,107.881889343262
0.0279983483333333, 249.630308178074, -0.000583356247409496, 0.27625,107.881889343262
0.028831715, 249.634990877142, -0.000456513618601906, 0.28375,99.721435546875
0.0294984216666667, 249.639529973365, -0.000346911123818427, 0.29125,103.699531555176
0.030165015, 249.644400293714, -0.000134715282178123, 0.2975,100.181159973145
0.0308316816666667, 249.649174391526, -0.000195771215415406, 0.30375,103.767166137695
0.031498295, 249.654452676499, -0.000485276173889729, 0.31,105.271751403809
0.032165075, 249.659884617666, -0.000770546845051015, 0.3175,105.271751403809
0.032831755, 249.665637910114, -0.000793171708639256, 0.32375,121.958915710449
0.0334983733333333, 249.670811713487, -0.000660036895854786, 0.33,104.958076477051
0.034165095, 249.676889676467, -0.000836986007864263, 0.3375,107.02449798584
0.03483169, 249.682531376735, -0.0010226466823169, 0.3425,111.67147064209
0.03550003, 249.687931790141, -0.000678499468458839, 0.35,111.67147064209
0.0361650466666667, 249.693451035978, -0.000439061995173173, 0.3575,102.737014770508
0.036831685, 249.6992367366, -0.000449885451537442, 0.36375,104.410057067871
0.0374985433333333, 249.704724098231, -0.000403951758748058, 0.36875,104.028869628906
0.03816509, 249.709307644071, 9.21348233262315E-05, 0.37625,108.022041320801
0.0388322983333333, 249.71535201352, -0.000215160741555722, 0.38375,108.022041320801
0.0394983366666667, 249.720264809996, -0.00034142739928619, 0.39,104.109283447266
0.0401650133333333, 249.726190775646, -0.00041054692747565, 0.39625,105.070190429688
0.0408317683333333, 249.730979371889, -0.000105079770760079, 0.4025,103.206680297852
0.0414984266666667, 249.737185207618, -0.000286834641429012, 0.41,104.361938476563
0.0421653383333333, 249.742247245501, -0.000276500160505221, 0.41625,104.361938476563
0.0428324033333333, 249.748166714855, -0.000470141934067857, 0.4225,108.023231506348
0.0434983383333333, 249.753447533847, -0.000787193008947673, 0.42875,101.505836486816
0.0441654566666667, 249.759673595713, -0.00111535702560159, 0.435,105.433868408203
0.0448318, 249.764907248518, -0.00110546052270982, 0.4425,95.7836685180664
0.0454989166666667, 249.770557633655, -0.00115096373711045, 0.44875,95.7836685180664
0.046165105, 249.775576977606, -0.0011466769524433, 0.455,103.46361541748
0.0468322466666667, 249.780958433695, -0.00108436258241914, 0.4625,106.644378662109
0.0474983366666667, 249.785727778231, -0.000827819968263151, 0.46875,107.637908935547
0.0481655333333333, 249.79074329362, -0.00078989137339547, 0.475,108.119873046875
0.0488317183333333, 249.795574265741, -0.000428891006094354, 0.4825,108.119873046875
0.0494983683333333, 249.800667066263, -0.000459742956394726, 0.4875,127.850883483887
0.0501653383333333, 249.805232949416, -2.62962279826097E-05, 0.495,104.833793640137
0.05083169, 249.809958598334, -0.000134014817396785, 0.50125,112.165298461914
0.05149835, 249.814876285972, -4.88895931158741E-05, 0.50875,107.526710510254
0.0521649983333333, 249.819665851403, -0.00026458325905969, 0.515,107.526710510254
0.05283245, 249.82481323654, 0.000173472737851294, 0.52125,102.224617004395
0.053498295, 249.829443968496, 0.000172391292207766, 0.5275,105.055511474609
0.0541658216666667, 249.834747291667, 0.00028873594833161, 0.53375,103.303268432617
0.05483193, 249.839668141321, 0.000570561292543498, 0.54125,113.164001464844
0.0554989133333333, 249.845021634723, 0.00084936278864832, 0.5475,113.164001464844
0.0561650383333333, 249.85009960492, 0.000715287523114229, 0.55375,104.226707458496
0.0568318383333333, 249.855216546373, 0.000471462770162632, 0.56125,99.3800811767578
0.0574982816666667, 249.859984216555, 0.0003292939111883, 0.5675,103.511840820313
0.05816553, 249.865024934862, 7.82515207754887E-05, 0.57375,107.973327636719
0.058831855, 249.870223213066, -4.44693150705633E-05, 0.58,107.973327636719
0.0594983833333333, 249.875292570824, 6.96494528562723E-05, 0.58625,101.345726013184
0.06016538, 249.881018386005, 4.03739233375188E-05, 0.5925,100.478462219238
0.060831705, 249.88648741259, 0.000381080309976885, 0.59875,102.88191986084
0.0614985816666667, 249.892306401317, 0.00010289528295058, 0.60625,112.686309814453
0.0621649866666667, 249.897042929638, 0.000265076136777597, 0.61375,112.686309814453
0.0628323, 249.901943559702, 0.000317840486489646, 0.62,107.93675994873
0.0634983666666667, 249.906387372776, 0.000552491700175607, 0.62625,105.180618286133
0.0641650316666667, 249.911012524092, 0.000545298061526099, 0.63375,108.790718078613
0.064831675, 249.915368566496, 0.00108141463298212, 0.64,103.52766418457
0.0654986533333333, 249.920821623696, 0.00122563988869589, 0.64625,103.52766418457
0.0661650166666667, 249.926263055959, 0.00124794976809568, 0.6525,124.016166687012
0.0668318316666667, 249.931751094967, 0.00114854376116964, 0.66,108.838897705078
0.0674982816666667, 249.937291406124, 0.00121357149490688, 0.66625,109.638938903809
0.0681651166666667, 249.943307825934, 0.000969199269441825, 0.6725,105.014549255371
0.06883207, 249.948869568521, 0.000514303618407417, 0.67875,105.014549255371
0.0694984566666667, 249.954028461752, 0.00050186024343258, 0.68625,102.919570922852
0.0701655466666667, 249.959156262007, 0.000607313946572754, 0.6925,103.254707336426
0.07083229, 249.96453882235, 0.000291969786003911, 0.69875,105.032676696777
0.0714989466666667, 249.969618614123, 0.000655580022234286, 0.705,102.599983215332
0.0721650316666667, 249.97453774574, 0.000922646107746371, 0.7125,102.599983215332
0.0728320283333333, 249.979317778522, 0.00107267457195404, 0.71875,105.999328613281
0.0734989466666667, 249.984348395097, 0.00137016662925722, 0.725,105.86156463623
0.0741657533333333, 249.989282381141, 0.00155838617518816, 0.73125,102.378952026367
0.0748326583333333, 249.995024893932, 0.00106754932941794, 0.73875,105.23291015625
0.0754988733333333, 250.000271912001, 0.00105906125577463, 0.745,105.23291015625
0.076166295, 250.006015927684, 0.00107519744524665, 0.75125,105.941886901855
0.07683309, 250.012154643801, 0.000708645856751391, 0.7575,105.582977294922
0.07749832, 250.017773488316, 0.000668213887608337, 0.76375,98.8438034057617
0.078165095, 250.022429560046, 0.000976695892884554, 0.77125,98.8583297729492
0.0788319166666667, 250.028109976102, 0.000992587594636341, 0.77875,98.8583297729492
0.079498775, 250.033669873297, 0.000604558584933871, 0.785,102.793823242188
0.0801656133333333, 250.03887353313, 0.000398912914267807, 0.79125,107.234519958496
0.0808321933333333, 250.044511548747, 0.000257383023195533, 0.79875,108.32413482666
0.0814983333333333, 250.050046390812, 0.000497291472850093, 0.805,122.702003479004
0.0821650816666667, 250.055022567634, 0.000484477616483889, 0.81125,122.702003479004
0.0828324616666667, 250.060048096422, 0.000668945850844651, 0.8175,109.567115783691
0.0834983683333333, 250.065073655638, 0.00106945873352335, 0.825,101.665512084961
0.084164995, 250.070073133028, 0.00121777428374369, 0.83125,102.994026184082
0.0848317766666667, 250.074964302844, 0.000841504683360644, 0.8375,101.563949584961
0.0854984083333333, 250.07999955523, 0.00111059866702725, 0.84375,101.563949584961
0.086164995, 250.085363889363, 0.000792830628197664, 0.85125,101.093704223633
0.0868318516666667, 250.090676783654, 0.000690600263131443, 0.8575,103.158851623535
0.0874983433333333, 250.096192013651, 0.000375326599052061, 0.86375,104.875106811523
0.088165065, 250.101843129169, 0.00055895187572816, 0.87125,105.86848449707
0.0888318783333333, 250.107149003817, -5.61076686032185E-06, 0.8775,105.86848449707
0.0894988633333333, 250.112757505345, 0.0002214928259532, 0.88375,101.18098449707
0.0901650366666667, 250.117492464104, 0.000205704618942729, 0.89125,100.235977172852
0.0908318316666667, 250.122563301673, 0.000434137145032586, 0.8975,102.395683288574
0.0914988516666667, 250.127112671445, -0.000271023935446222, 0.905,101.404090881348
0.0921649983333333, 250.132111936544, -1.27024106504084E-05, 0.91,101.404090881348
0.092832135, 250.136294438624, -6.28778904173532E-05, 0.91625,102.727493286133
0.0934983916666667, 250.141187972089, -8.0116524538315E-05, 0.92375,105.890289306641
0.09416516, 250.145584467636, -3.02815276746721E-05, 0.93,100.857650756836
0.0948319366666667, 250.150268757427, 0.000603061660145625, 0.9375,104.459808349609
0.095498305, 250.155047041048, 0.000822776624115961, 0.94375,104.459808349609
0.0961650566666667, 250.160346288243, 0.000883673565302736, 0.95,102.016899108887
0.0968332933333333, 250.165857029895, 0.000790216259580212, 0.9575,104.974281311035
0.09749889, 250.171046834447, 0.000766755937971832, 0.96375,103.659439086914
0.0981655516666667, 250.177080197851, 0.0006355920261508, 0.97,123.089630126953
0.098831685, 250.182161389712, 7.76170526678942E-05, 0.97625,123.089630126953
0.0994988066666667, 250.187319813254, 0.000141536342101095, 0.98375,104.571174621582
0.100165936666667, 250.191844548057, 0.000201279841230479, 0.99,101.56615447998
0.100831675, 250.19693480163, 0.000227470025741633, 0.9975,104.054214477539
0.10149985, 250.201507672755, 0.00020242428378396, 1.00375,104.607528686523
0.102164991666667, 250.20647925133, 0.000499290872462209, 1.01,104.607528686523
0.102831756666667, 250.210935113044, 0.000180334893271444, 1.01625,107.213256835938
0.103498658333333, 250.215207190115, 0.00031907192467977, 1.02375,108.532829284668
0.10416505, 250.219662432918, 6.05869080602393E-05, 1.03,105.61075592041
0.104831846666667, 250.224369027161, 8.13593646703913E-05, 1.0375,102.850547790527
0.105498885, 250.229139062459, -7.65002061856916E-05, 1.04375,102.850547790527
0.106165576666667, 250.234157959802, 0.000404045656510936, 1.04875,95.8099212646484
0.10683173, 250.239905581246, 0.000247803004416614, 1.05625,102.47607421875
0.107498425, 250.245265548868, 0.000341413302492033, 1.06375,102.255271911621
0.10816509, 250.250085375771, 0.000180388890571216, 1.06875,110.193328857422
0.108831911666667, 250.255210815547, 0.000277856994870691, 1.075,110.193328857422
0.109498406666667, 250.260085366671, -1.91175884283553E-05, 1.0825,102.80842590332
0.110165096666667, 250.26420680812, 0.000123213262466545, 1.08875,106.725975036621
0.110832408333333, 250.268085397441, 3.75495652398483E-05, 1.09625,105.566055297852
0.111499861666667, 250.272419498079, 0.000272679254895465, 1.1025,107.753471374512
0.11216652, 250.276377934371, 0.000504492611121617, 1.10875,107.753471374512
0.112831713333333, 250.280669243922, 0.000823885068356238, 1.11625,104.096138000488
0.113499971666667, 250.28582662612, 0.000614675576755427, 1.12125,103.582061767578
0.114166333333333, 250.29034516508, 0.000695941494866625, 1.12875,107.699569702148
0.114832601666667, 250.295291364677, 0.000508498909904104, 1.135,127.229698181152
0.115498856666667, 250.299774759016, 0.00026350721559674, 1.1425,127.229698181152
0.116165166666667, 250.304116780318, -0.000328598543505921, 1.14875,104.318214416504
0.116831726666667, 250.307944691966, -0.000364647732798762, 1.155,109.268325805664
0.117498381666667, 250.311873872172, -0.000423284287548509, 1.16125,99.3180923461914
0.118165136666667, 250.315139415002, -0.000479415968119733, 1.1675,105.199798583984
0.11883167, 250.319329592142, -0.000432144342528848, 1.175,105.199798583984
0.119498288333333, 250.322734785032, -0.000335706686506952, 1.1825,107.779029846191
0.120165011666667, 250.326820667193, -0.000326563145771889, 1.1875,110.009147644043
0.12083194, 250.33079710269, -0.000361538389021965, 1.19375,102.142639160156
0.121498906666667, 250.334859232037, -0.000287611602248645, 1.20125,107.995697021484
0.122165188333333, 250.338835094711, -0.000663260233801215, 1.20875,107.995697021484
0.122832245, 250.342741597658, -0.000556909575655352, 1.215,109.526870727539
0.123498301666667, 250.346581475319, -0.000514332714254319, 1.22,99.6596450805664
0.12416501, 250.350304476421, -0.000269728000485504, 1.2275,105.942558288574
0.124832776666667, 250.354138790608, -0.000402508831047042, 1.235,112.220718383789
0.125498295, 250.357321310489, -7.85971007990033E-05, 1.24125,112.220718383789
0.126165091666667, 250.360494187491, 0.000238273983046151, 1.24625,108.705352783203
0.126831628333333, 250.363703804393, 3.63931233336496E-05, 1.25375,105.779312133789
0.12749833, 250.367321069525, -5.35543587326452E-05, 1.26125,105.83171081543
0.128165025, 250.370621049778, 0.000246873051116561, 1.2675,110.597213745117
0.128832256666667, 250.373746063125, 0.000525994031140531, 1.27375,110.597213745117
0.129498291666667, 250.377254448125, 0.000169446940157835, 1.28,102.160102844238
0.13016502, 250.380426126314, 0.000370525340165815, 1.28625,104.388427734375
0.130831836666667, 250.383653184266, 0.00041570007110088, 1.29375,102.208511352539
0.131498476666667, 250.387233522192, -7.86975958402922E-05, 1.30125,119.886535644531
0.132165905, 250.391196889247, -0.000456380125202491, 1.30625,119.886535644531
0.132831676666667, 250.395194380742, -0.000295586701703538, 1.3125,105.324821472168
0.133498758333333, 250.398615827443, -0.000389069506140918, 1.32,105.19425201416
0.134165151666667, 250.402513674709, -0.000491824844833295, 1.3275,106.547340393066
0.134832008333333, 250.405352561494, -1.90695908261969E-05, 1.33375,106.25316619873
0.135498356666667, 250.408349976176, -0.000136840675355097, 1.33875,106.25316619873
0.136165126666667, 250.411465118705, -0.000238186084853362, 1.34625,98.6140747070313
0.1368319, 250.414721075071, 0.000150442894695427, 1.3525,104.796104431152
0.137498948333333, 250.41832934296, -6.63221554897321E-06, 1.36,105.221382141113
0.138165103333333, 250.421835637471, 0.00031205677703425, 1.36625,110.817512512207
0.138832078333333, 250.425238853229, 0.000512979184904291, 1.3725,110.817512512207
0.139498358333333, 250.42869125211, 0.000408165949590578, 1.37875,109.076019287109
0.140165105, 250.43179729128, 0.0001846666757132, 1.385,101.944053649902
0.140832085, 250.434614208174, 0.000479347874174583, 1.3925,112.571586608887
0.141498505, 250.438443330177, 0.000167477539097546, 1.39875,102.868110656738
0.142165051666667, 250.44196725336, 0.000125242660524219, 1.405,102.868110656738
0.14283215, 250.445611003057, 0.000205416633457303, 1.41125,100.571762084961
0.143498333333333, 250.449341252246, 0.000197444533893726, 1.42,99.096565246582
0.14416499, 250.452951690335, 0.000111530349270431, 1.425,98.2238082885742
0.144831811666667, 250.45586598947, 8.87284945600971E-05, 1.43125,101.397750854492
0.14549899, 250.458944003214, 0.000390795322058368, 1.43875,101.397750854492
0.146165061666667, 250.46180693234, 0.00104514645466264, 1.445,105.651672363281
0.146832383333333, 250.465233549817, 0.00111887975108166, 1.45125,100.284194946289
0.14749843, 250.468259249226, 0.00110167411531883, 1.45875,103.105781555176
0.148164988333333, 250.471864726761, 0.000933598557566812, 1.465,122.658462524414
0.148831973333333, 250.474928205705, 0.000470945296158492, 1.47125,122.658462524414
0.149498308333333, 250.478236357958, -0.000103462851870794, 1.4775,96.6824722290039
0.150165005, 250.481317884241, -0.000376254149871565, 1.485,106.910385131836
0.150832106666667, 250.484536602726, -0.000331038920977612, 1.49125,103.37467956543
0.151498406666667, 250.487605630318, -0.000147304149820076, 1.4975,104.755767822266
0.152165621666667, 250.491633854414, 0.000209614922499645, 1.50125,104.755767822266
0.152831685, 250.495325112245, 0.000383270199945707, 1.50875,104.041275024414
0.153498328333333, 250.49921634674, 0.000583634635873974, 1.5175,108.232566833496
0.154165043333333, 250.50337311411, 0.000449023897264158, 1.52375,100.631629943848
0.15483166, 250.507359656327, 0.000506075031685866, 1.53125,103.595268249512
0.155499263333333, 250.511010443793, 0.000247219533717476, 1.5375,103.595268249512
0.156165673333333, 250.51474119819, 0.00023631658133858, 1.54375,108.25260925293
0.156833136666667, 250.518583172042, 7.68910891079387E-05, 1.55,105.282768249512
0.157498816666667, 250.521714696533, 0.000231930801597053, 1.5575,100.434303283691
0.158165331666667, 250.524782139392, -8.58811739590347E-06, 1.56375,102.788162231445
0.158831845, 250.52788143179, 0.000280651354416534, 1.57,102.788162231445
0.159498795, 250.530769025641, 0.00020603760220276, 1.5775,106.707778930664
0.16016499, 250.533940310322, 0.000281668303374484, 1.58375,111.091438293457
0.160832595, 250.5368674994, 4.81585323506892E-05, 1.59,106.626686096191
