Time (min), Depth (µm), Load (N), Position (µm), Acoustic (aJ)
8.97833333333333E-06, 228.639074202192, -0.000856098249032683, 0,175.906478881836
0.00066389, 228.639395147451, -0.000910614510724042, 0.00375000000000028,174.308090209961
0.00133062333333333, 228.639878903142, -0.00107835858509792, 0.0162500000000006,185.585266113281
0.00199743, 228.639905126775, -0.000871016499676723, 0.0337500000000008,185.585266113281
0.00266456666666667, 228.64098692658, -0.00108996500212822, 0.0487500000000002,192.520660400391
0.00333053333333333, 228.643167470251, -0.000865799761709521, 0.0625000000000001,198.479843139648
0.00399750166666667, 228.647244782944, -0.00100747964528588, 0.0774999999999994,198.256988525391
0.00466383666666667, 228.653897986985, -0.00101445129510245, 0.0925000000000006,199.208160400391
0.00533046833333333, 228.662703308485, -0.000934682301800758, 0.104999999999999,199.208160400391
0.00599774333333333, 228.672442730428, -0.000388787721502084, 0.1175,200.256896972656
0.00666386833333333, 228.682999571418, -0.000705400818328624, 0.131249999999999,198.162368774414
0.00733051833333333, 228.694058037295, -0.0006285206799377, 0.14375,198.024536132813
0.007997475, 228.704957446234, -0.000791944971307558, 0.1575,235.591949462891
0.00866378666666667, 228.715678279113, -0.000958360112468864, 0.17125,235.591949462891
0.00933076, 228.726327942636, -0.00124615965657787, 0.18375,197.897888183594
0.00999749, 228.737075792499, -0.00092245491593999, 0.1975,200.778244018555
0.0106638616666667, 228.747711973935, -0.000722547957039733, 0.21,194.019805908203
0.0113321233333333, 228.758165469046, -0.000174575981081227, 0.22375,193.955657958984
0.0119974533333333, 228.768784762209, -0.000496783796930862, 0.23625,193.955657958984
0.0126645583333333, 228.779689204646, -0.000370427143672436, 0.25,201.416564941406
0.0133309283333333, 228.791012624173, -0.000679206134023006, 0.262500000000001,192.298477172852
0.0139973983333333, 228.802100430045, -0.000596893268529556, 0.27625,193.06852722168
0.0146638216666667, 228.813971930607, -0.000998400601236397, 0.2875,197.103332519531
0.01533068, 228.823491521415, -0.000625760818525607, 0.302500000000001,197.103332519531
0.0159974966666667, 228.833227619985, -0.00060065807944061, 0.316250000000001,200.960403442383
0.0166652966666667, 228.843455089744, -0.000431091596619215, 0.328749999999999,210.430618286133
0.01733091, 228.853544924361, -0.000694355373152673, 0.342500000000001,205.868804931641
0.017997415, 228.863452018134, -0.000635814813607243, 0.356250000000001,212.622924804688
0.01866388, 228.87564446943, -0.000955279267234474, 0.368749999999999,212.622924804688
0.019331515, 228.887004839711, -0.000825220799932439, 0.382499999999999,214.120788574219
0.0199978433333333, 228.898687713282, -0.00108384980925217, 0.395,220.712814331055
0.0206638383333333, 228.910403513618, -0.00112835857360341, 0.408749999999999,218.443786621094
0.0213305316666667, 228.921813000812, -0.000962729392978194, 0.422499999999999,218.295104980469
0.02199742, 228.933340967192, -0.000611813019119253, 0.436249999999999,218.295104980469
0.0226639183333333, 228.945391115031, -0.000782015470015155, 0.448749999999999,217.284332275391
0.02333129, 228.95710598337, -0.000628957157981556, 0.462499999999999,219.594039916992
0.023997335, 228.968726361459, -0.000450949099152093, 0.475,263.701385498047
0.0246638016666667, 228.980527646163, -0.000524113924179778, 0.48875,224.601119995117
0.0253307566666667, 228.992476277151, -0.000644068898979887, 0.5025,224.601119995117
0.0259975216666667, 229.003896928102, -0.000579464144030635, 0.516249999999999,216.125854492188
0.0266638683333333, 229.015761005101, -0.000661444026242799, 0.52875,219.762344360352
0.0273306866666667, 229.027534691841, -0.000502467011493748, 0.5425,215.483428955078
0.0279973883333333, 229.039179018343, -0.000590326598408134, 0.555,216.677780151367
0.0286638183333333, 229.051150502263, -0.00046463441180913, 0.56875,216.677780151367
0.029331035, 229.062785388827, -0.000700316073815178, 0.5825,216.060272216797
0.0299979583333333, 229.074250509473, -0.00075776768807381, 0.593750000000001,215.462951660156
0.030664305, 229.085748653422, -0.00111617918538731, 0.6075,211.391845703125
0.0313311983333333, 229.097891012144, -0.00147547563831128, 0.6225,214.991104125977
0.0319976166666667, 229.109074191086, -0.00171279071820502, 0.63625,214.991104125977
0.0326638983333333, 229.12103796735, -0.00195155922510056, 0.65,212.926834106445
0.0333307716666667, 229.132485512042, -0.00173812744556068, 0.6625,213.431900024414
0.0339972983333333, 229.144259280239, -0.00165346419814475, 0.67625,212.72981262207
0.0346641266666667, 229.154790386178, -0.00111391429917707, 0.68875,214.950790405273
0.0353315616666667, 229.166105407447, -0.00114557170907328, 0.7025,214.950790405273
0.03599765, 229.17730987209, -0.000788085665244115, 0.71625,218.799499511719
0.0366643116666667, 229.188319480334, -0.000823173402824435, 0.72875,220.174819946289
0.0373312683333333, 229.199322342558, -0.000689468618660457, 0.7425,217.595489501953
0.0379974333333333, 229.210984657237, -0.00098860309344026, 0.75625,218.767181396484
0.0386643166666667, 229.221728295511, -0.000630022104605426, 0.77,218.767181396484
0.0393314433333333, 229.232260872973, -0.000507860740646806, 0.7825,213.191787719727
0.0399975666666667, 229.24283460298, -0.000500098630499685, 0.79625,214.222503662109
0.040664045, 229.253270034353, -0.00070560330820808, 0.80875,264.011199951172
0.0413308833333333, 229.263053288968, -0.000731893987654252, 0.82375,224.770492553711
0.0419973633333333, 229.27274907733, -0.000605166853004459, 0.83625,224.770492553711
0.0426638066666667, 229.283142937412, -0.000856663720553966, 0.848750000000001,216.91438293457
0.0433308866666667, 229.292975543971, -0.000836204748207857, 0.8625,222.920303344727
0.0439972783333333, 229.302860026922, -0.000394388440180283, 0.875000000000001,219.235549926758
0.0446641483333333, 229.312950444691, -0.000159818222412098, 0.888750000000001,207.709350585938
0.04533121, 229.323614004124, -0.000561478547429326, 0.902500000000001,207.709350585938
0.04599724, 229.33363186621, -0.000437227788436902, 0.91625,219.39094543457
0.0466643633333333, 229.343904571621, -0.000334716937401001, 0.928750000000001,217.04216003418
0.0473314316666667, 229.354721144318, -0.000779153613828657, 0.942500000000001,222.474624633789
0.047997375, 229.36518654393, -0.00120095192732719, 0.954999999999999,217.957015991211
0.0486640966666667, 229.375433489948, -0.00105598870867949, 0.9675,217.957015991211
0.0493312216666667, 229.385676034121, -0.00123035945023594, 0.98125,216.276748657227
0.0499975866666667, 229.39635985414, -0.00147041339257887, 0.99375,217.998870849609
0.050664035, 229.406389573686, -0.00150801050411092, 1.0075,219.109573364258
0.0513312333333333, 229.416930670446, -0.000927266674254551, 1.02125,224.309646606445
0.0519972316666667, 229.427133821845, -0.00076915061621924, 1.035,224.309646606445
0.0526643433333333, 229.437302003195, -0.000776501746973599, 1.0475,220.961624145508
0.053331135, 229.447220409565, -0.00042797925288734, 1.06125,226.13249206543
0.0539976916666667, 229.45729247602, -0.000423236491095329, 1.075,221.617294311523
0.054663835, 229.467499549992, -0.000632531478429634, 1.0875,218.293243408203
0.055330815, 229.477866187138, -0.000783524394241135, 1.10125,218.293243408203
0.0559985633333333, 229.488281689068, -0.000582649983951998, 1.11375,213.235961914063
0.0566638983333333, 229.498209951611, -0.000757407706025741, 1.1275,215.158432006836
0.0573317916666667, 229.507266035442, -0.000627691221572665, 1.14,263.038299560547
0.0579981916666667, 229.51596749057, -0.000688037690460937, 1.1525,214.634994506836
0.058663805, 229.524432843453, -0.000697988190652478, 1.16625,214.634994506836
0.0593309966666667, 229.53264313845, -0.000538325710344867, 1.18,227.147125244141
0.0599979233333333, 229.541283100991, -0.000660437576776926, 1.1925,221.79426574707
0.0606645433333333, 229.550124870824, -0.000758469652758297, 1.20625,218.525695800781
0.06133084, 229.558978749944, -0.00077477083395719, 1.22,217.525497436523
0.0619977166666667, 229.568089335475, -0.000856680219722401, 1.2325,217.525497436523
0.062664395, 229.577155575389, -0.00118352730251646, 1.24625,213.731292724609
0.0633312166666667, 229.585729775414, -0.00117583118910684, 1.26,211.021499633789
0.0639979216666667, 229.594194325189, -0.000850623523919342, 1.2725,209.650497436523
0.0646638433333333, 229.603450589549, -0.000709531610836581, 1.28625,213.328918457031
0.06533103, 229.611768598374, -0.00071680924529518, 1.3,213.328918457031
0.065997785, 229.619954228223, -0.000571994519184656, 1.31375,214.233383178711
0.06666538, 229.627977512634, -0.00040665632395743, 1.32625,209.645095825195
0.0673322566666667, 229.636593612854, -0.000378259750287764, 1.34,211.307434082031
0.0679973783333333, 229.643822961914, -0.000551958525562774, 1.35375,215.125152587891
0.068665255, 229.652098676259, -0.000234524969917619, 1.36625,215.125152587891
0.0693309566666667, 229.659571263617, -0.000224134991769654, 1.38125,210.551727294922
0.0699976983333333, 229.667742577289, -0.0003301166684273, 1.3925,207.904312133789
0.0706645133333333, 229.675008228837, -0.000216293385650414, 1.40625,209.494079589844
0.0713308533333333, 229.682444939515, 0.000163126056489569, 1.42,216.907897949219
0.0719988533333333, 229.689343012671, 0.000400508633023961, 1.43375,216.907897949219
0.0726639866666667, 229.697362548201, 0.000581117561215009, 1.44625,210.874755859375
0.0733305066666667, 229.705263286638, 0.00070160200939323, 1.46,207.527328491211
0.0739985766666667, 229.714113455874, 0.000445990848504202, 1.47375,248.65901184082
0.0746638816666667, 229.723039592211, 0.000291588603971489, 1.4875,214.455764770508
0.0753312883333333, 229.732688391189, -1.3346079495909E-05, 1.50125,214.455764770508
0.07599721, 229.742175991959, -0.000304829438598194, 1.51375,209.400009155273
0.0766638216666667, 229.75146315221, -0.000192674072076543, 1.5275,211.131195068359
0.0773319433333333, 229.761193313267, -0.000222428077543698, 1.54,208.437438964844
0.0779974616666667, 229.77056311788, -0.000296005381846041, 1.55375,213.286727905273
0.07866389, 229.780468078949, -0.000480388120473309, 1.5675,213.286727905273
0.0793314633333333, 229.789861165508, -0.000334283459163443, 1.58125,211.165969848633
0.0799979216666667, 229.799377378006, -0.000454433424135975, 1.59375,216.920669555664
0.0806640783333333, 229.808599757896, -0.000450959598622915, 1.6075,211.773941040039
0.0813309366666667, 229.818160661411, -0.000539656143503098, 1.62125,214.044540405273
0.0819979766666667, 229.826841563873, -0.000505792344405869, 1.635,214.044540405273
0.0826639316666667, 229.836194381312, -0.000544145417964688, 1.6475,217.814102172852
0.0833304783333333, 229.84545243644, -0.000927974638657905, 1.66125,218.18180847168
0.0839975166666667, 229.854728512971, -0.00115555220768913, 1.67375,212.696716308594
0.0846638733333333, 229.864112412671, -0.00111700714376418, 1.6875,218.125640869141
0.0853312416666667, 229.873667576841, -0.0012342877529282, 1.70125,218.125640869141
0.0859981333333333, 229.882634768414, -0.00147156383480871, 1.715,211.818389892578
0.0866644533333333, 229.891770618947, -0.00144670708330459, 1.7275,214.229370117188
0.0873311233333333, 229.900385647982, -0.00146098636608908, 1.74125,217.596069335938
0.08799752, 229.909159099126, -0.00167466563321925, 1.75375,222.529357910156
0.0886638883333333, 229.917379303177, -0.00207629895959722, 1.7675,222.529357910156
0.0893312833333333, 229.926125108561, -0.00205338311061099, 1.78125,215.466018676758
0.0899981183333333, 229.93436379742, -0.00198628548087844, 1.7925,218.826614379883
0.0906647283333333, 229.94275345361, -0.00182072079696005, 1.80625,256.700500488281
0.0913310533333333, 229.951290294268, -0.00174931538359745, 1.82,214.005813598633
0.0919980033333333, 229.959904478879, -0.00134537217321338, 1.83375,214.005813598633
0.0926639733333333, 229.968184440692, -0.00116569019849484, 1.84625,218.626251220703
0.0933306583333333, 229.977165804017, -0.00125647763831197, 1.85875,221.542419433594
0.0939980966666667, 229.985302288229, -0.00147563763016809, 1.8725,224.135025024414
0.0946639083333333, 229.99339863242, -0.00130365326874105, 1.88625,217.873779296875
0.095331235, 230.001584688715, -0.00127560917739116, 1.89875,217.873779296875
0.0959980583333333, 230.009999954186, -0.00112545771931867, 1.9125,219.204742431641
0.096664225, 230.017913983668, -0.000946588703732957, 1.92625,213.217697143555
0.0973312583333333, 230.02636155609, -0.000903521366945789, 1.94,221.629013061523
0.0979975116666667, 230.034657267702, -0.000787454196879056, 1.9525,219.211624145508
0.09866465, 230.043190799017, -0.000810941517105441, 1.96625,219.211624145508
0.099332385, 230.051308509948, -0.00112380630227438, 1.97875,219.821701049805
0.100000046666667, 230.059991569015, -0.00117904552763438, 1.9925,214.413024902344
0.100665478333333, 230.068056215528, -0.00103015550624007, 2.005,217.446090698242
0.101330751666667, 230.076351464997, -0.00108730413570548, 2.01875,216.714950561523
0.10199784, 230.084356837125, -0.00130077341339795, 2.03125,216.714950561523
0.102665556666667, 230.092556541232, -0.00117471224526822, 2.045,216.236755371094
0.103330991666667, 230.100207473898, -0.000754013376548562, 2.0575,217.388656616211
0.10399716, 230.108781425051, -0.000687470718930235, 2.07125,218.842483520508
0.104664066666667, 230.116825786533, -0.000874512824013324, 2.085,220.752090454102
0.105330763333333, 230.125213416619, -0.000722430962893771, 2.09875,220.752090454102
0.105997361666667, 230.133378445791, -0.000884149839962075, 2.11125,224.954147338867
0.106664013333333, 230.142067382801, -0.00115035046896596, 2.125,265.510223388672
0.107331538333333, 230.15073279737, -0.00135212783389463, 2.1375,215.433547973633
0.107997761666667, 230.159201239766, -0.00120483373229919, 2.15125,200.699813842773
0.108663766666667, 230.167411167928, -0.000749938081243526, 2.165,200.699813842773
0.109330961666667, 230.176205176539, -0.000609692125630473, 2.1775,205.824066162109
0.10999749, 230.184539374099, -0.000337833780821069, 2.19125,208.088973999023
0.110664101666667, 230.192627955222, -0.000122801581666614, 2.205,210.292953491211
0.111331431666667, 230.201115993718, -9.94882527135158E-05, 2.2175,208.388122558594
0.111997741666667, 230.209642103767, -0.000430961103174877, 2.23125,208.388122558594
0.112663865, 230.217650261858, -0.000336782333686861, 2.24625,208.506088256836
0.113331526666667, 230.225772997918, -0.000517095776664197, 2.25875,209.318710327148
0.113997253333333, 230.234814396835, -0.00071251046121155, 2.2725,203.052947998047
0.11466383, 230.242782444959, -0.000499731148893362, 2.285,203.65625
0.115331653333333, 230.251247474264, -0.000292746045565156, 2.3,203.65625
0.115998123333333, 230.259735158381, -0.000318526750650458, 2.3125,204.891403198242
0.116663841666667, 230.267745920072, -0.000293407512354517, 2.325,215.219314575195
0.117331018333333, 230.275148601316, 2.24166241296394E-05, 2.33875,208.235565185547
0.117997686666667, 230.283118553872, -0.000183673024181043, 2.35125,204.083740234375
0.118664091666667, 230.291080353384, -0.000498633204060144, 2.36625,204.083740234375
0.11933049, 230.299002138259, -0.000566245307948027, 2.37875,201.696517944336
0.119997393333333, 230.307430654097, -0.00103783512046, 2.39125,205.631988525391
0.120663935, 230.315449090894, -0.00130854152320018, 2.405,209.920623779297
0.12133056, 230.323884432054, -0.00142957494383751, 2.41875,205.391403198242
0.121997728333333, 230.332001320495, -0.00126823104797629, 2.43125,205.391403198242
0.12266385, 230.340426311562, -0.00120290482926155, 2.44375,201.844619750977
0.123332456666667, 230.348257155714, -0.00106066847368907, 2.4575,247.387405395508
0.123998095, 230.356496389489, -0.000948439610807897, 2.47125,200.563415527344
0.1246638, 230.364531426567, -0.000944218822793236, 2.48625,204.51969909668
0.125331, 230.372598261197, -0.00110080795746722, 2.49875,204.51969909668
0.125997916666667, 230.380423247945, -0.00110729663154093, 2.51125,197.841949462891
0.126663823333333, 230.388813313081, -0.000683047441099881, 2.525,201.637512207031
0.12733061, 230.396821871942, -0.000664115392030083, 2.5375,207.548156738281
0.127997458333333, 230.405625660399, -0.000561544544060561, 2.5525,198.288940429688
0.128664168333333, 230.414190568486, -0.000410584626628439, 2.565,198.288940429688
0.129330723333333, 230.423355164674, -0.000496351818638961, 2.57875,192.738067626953
0.129997333333333, 230.432472933739, -0.000504880390304926, 2.59125,195.739181518555
0.130664175, 230.441924283348, -0.000416129848146226, 2.605,193.747344970703
0.131330661666667, 230.451116577815, -0.000541333059326006, 2.6175,194.816513061523
0.131997586666667, 230.459939386732, -0.000352830027640349, 2.63125,194.816513061523
0.132664045, 230.469235708867, -8.13451640498649E-05, 2.64375,191.912033081055
0.133330928333333, 230.479139010928, -0.00015720685357969, 2.6575,191.350540161133
0.133997345, 230.488882242002, -0.000406729820295698, 2.67,194.989868164063
0.134664108333333, 230.498976565703, -0.000201240141831335, 2.68375,194.407073974609
0.13533121, 230.509278245724, -0.000210895156851671, 2.6975,194.407073974609
0.135998293333333, 230.519353851341, -0.00049058160848194, 2.71,190.934707641602
0.136664431666667, 230.528559824186, -0.000355837376557725, 2.7225,196.103240966797
0.137330661666667, 230.538288141441, -0.000440673115343791, 2.73625,193.820724487305
0.137997355, 230.547525409612, -0.000334136466593178, 2.75,197.972869873047
0.138663825, 230.557584946303, -0.000282060582331003, 2.7625,197.972869873047
0.139330818333333, 230.567448170658, -0.000332569045336725, 2.77625,194.126754760742
0.139997776666667, 230.578102212708, -0.000478849197823026, 2.7875,228.943603515625
0.140664415, 230.587739851119, -0.00019276106773444, 2.8025,187.137405395508
0.141331051666667, 230.598079492109, -0.000498894190970073, 2.81625,191.83805847168
0.141999108333333, 230.60779026301, -0.000758373657575235, 2.8275,191.83805847168
0.142665468333333, 230.617375439739, -0.000469231680849009, 2.84125,185.514465332031
0.143331208333333, 230.626793316378, -0.000758715640424194, 2.855,186.714065551758
0.143997816666667, 230.636706398383, -0.000558670688457583, 2.86875,192.78581237793
0.144665538333333, 230.646150908846, -0.000556972773714283, 2.8825,194.403076171875
0.145332113333333, 230.656496959957, -0.000470224630952744, 2.895,194.403076171875
0.145999133333333, 230.666242298452, -0.00067193899903523, 2.90875,195.481491088867
0.146664428333333, 230.676428292281, -0.000485738351691148, 2.9225,204.634841918945
0.14733191, 230.686649919115, -0.000743221418575508, 2.935,195.629776000977
0.147998763333333, 230.697036135751, -0.000692907945784717, 2.9475,192.306488037109
0.148663856666667, 230.706834114168, -0.00089804964176627, 2.9625,192.306488037109
0.149330733333333, 230.717235775048, -0.000709708601916166, 2.975,197.397857666016
0.149997486666667, 230.727541035446, -0.000924679304148833, 2.9875,194.427200317383
0.150663848333333, 230.738361771835, -0.00103615220502449, 3.00125,195.22053527832
0.151330623333333, 230.749766825656, -0.00135948346440095, 3.015,192.218170166016
0.15199787, 230.76141542626, -0.00142495067605211, 3.02875,192.218170166016
0.152663928333333, 230.773026091799, -0.00188794142053618, 3.0425,190.185653686523
0.153331411666667, 230.784255157589, -0.00168789496862391, 3.055,188.781265258789
0.153997288333333, 230.795455921045, -0.00172967387011488, 3.06875,189.970886230469
0.154663861666667, 230.805836523957, -0.00165982537853791, 3.0825,193.52555847168
0.155330616666667, 230.816497629688, -0.0014253781545708, 3.095,193.52555847168
0.155997135, 230.826952826918, -0.00107090245952906, 3.10875,191.514602661133
