Time (min), Depth (µm), Load (N), Position (µm), Acoustic (aJ)
8.73666666666667E-06, 228.693996063089, -0.000420919049974823, 0,165.115524291992
0.000666838333333333, 228.693823356994, -0.00032861218643963, 0.00375000000000028,163.783416748047
0.001333245, 228.693647886772, -0.000304077918788484, 0.0212500000000004,179.32470703125
0.00216652, 228.694120404945, 4.30076474644045E-05, 0.0374999999999993,190.170043945313
0.002833065, 228.695382157422, -7.90112236546523E-05, 0.0525000000000005,197.902206420898
0.00349961166666667, 228.697317457159, -0.000320389599479454, 0.0662500000000003,197.902206420898
0.004166605, 228.701241511879, -0.000284956879243876, 0.0812499999999997,208.818130493164
0.00483293333333333, 228.706988272651, -0.000198730710280941, 0.0975000000000004,208.349792480469
0.00566635833333333, 228.714518343241, -0.000212807503185975, 0.11125,203.163970947266
0.00633297166666667, 228.723915608593, -0.000104551940771671, 0.123750000000001,202.565353393555
0.0069997, 228.734275054483, 0.000214596028742711, 0.1375,205.000793457031
0.00766657833333333, 228.745888631253, 0.000189103309206597, 0.15125,205.000793457031
0.00833294166666667, 228.75769160344, -7.80437722445183E-05, 0.163750000000001,201.237548828125
0.00900016666666667, 228.769308761041, -0.000338525188563597, 0.177500000000001,199.768035888672
0.009667025, 228.780525337926, -0.000522825431348686, 0.189999999999999,191.548187255859
0.0103332216666667, 228.791617515362, -0.000751779931194639, 0.203750000000001,193.783203125
0.0109995783333333, 228.802555306376, -0.000823341336737684, 0.217500000000001,193.783203125
0.0116667383333333, 228.813481954042, -0.000331294051761499, 0.229999999999999,207.880615234375
0.0123331233333333, 228.824720038207, -1.01226838658024E-05, 0.2425,193.832092285156
0.0130002333333333, 228.835843583254, 0.000202205151121988, 0.25625,197.62158203125
0.0136666616666667, 228.847231559515, 0.000129188818673988, 0.269999999999999,236.151123046875
0.0143331983333333, 228.858849494667, 9.66074551753393E-05, 0.2825,198.103485107422
0.014999755, 228.86932817354, -0.000244187427067581, 0.293750000000001,198.103485107422
0.0156671116666667, 228.878314560256, -0.000321652536082046, 0.30875,210.990036010742
0.016332935, 228.888165178619, 6.18092030898643E-05, 0.3225,218.219635009766
0.0169996966666667, 228.897911320063, 0.000135882982454703, 0.33625,219.550048828125
0.0176665516666667, 228.908379557429, 0.000302268125085436, 0.34875,219.550048828125
0.0183329333333333, 228.919650037814, 0.000151309707598972, 0.365000000000001,230.42399597168
0.0191665433333333, 228.93767076128, 0.00022212115079161, 0.378750000000001,222.552856445313
0.01983292, 228.949305704377, -4.67463442688536E-05, 0.391249999999999,185.715057373047
0.0204996333333333, 228.961172802436, 8.53595201836941E-05, 0.40625,233.550430297852
0.02116656, 228.972556137601, 6.37936034366941E-05, 0.418750000000001,234.488052368164
0.0218331, 228.98476070571, -6.93427092721786E-05, 0.432500000000001,234.488052368164
0.0224996816666667, 228.996855513494, -0.000196050344883475, 0.444999999999999,236.781158447266
0.0231664083333333, 229.009395326436, -0.000258772694387827, 0.458750000000001,184.589065551758
0.0238330433333333, 229.021237622472, -0.000467899690167714, 0.472500000000001,236.925415039063
0.0244995933333333, 229.033471213507, -0.000376309790603548, 0.484999999999999,241.298538208008
0.0251667733333333, 229.044962966005, -0.000296908278844412, 0.498749999999999,241.298538208008
0.025833205, 229.057051809318, -0.000222036539590769, 0.51125,228.801025390625
0.02649969, 229.068670947064, -0.000392690467817068, 0.526250000000001,181.163818359375
0.0271664916666667, 229.080674483693, -2.43434695135488E-05, 0.538749999999999,233.781173706055
0.027832945, 229.092177251435, 8.25216627451402E-05, 0.552499999999999,226.914215087891
0.028499745, 229.103911097635, -1.01916803883522E-05, 0.565,226.914215087891
0.029166615, 229.115660441954, 0.000220469733726066, 0.5775,227.073104858398
0.0298331933333333, 229.127394095746, 0.000604603439094398, 0.59125,231.933776855469
0.0304997316666667, 229.139027123731, 0.000488098291038151, 0.605,227.222564697266
0.031166415, 229.150835864482, 0.000597462297799004, 0.618749999999999,228.243362426758
0.031832925, 229.163138461894, 0.000551147624168684, 0.633750000000001,228.243362426758
0.0326667683333333, 229.174829092199, 0.000440508681473775, 0.65,226.594345092773
0.0333332283333333, 229.18675520947, 0.000210163751450953, 0.6625,224.879837036133
0.0339998683333333, 229.198066554539, 0.000377892826602055, 0.67625,224.001541137695
0.0346665716666667, 229.210002704374, 0.000521861595179108, 0.68875,227.454574584961
0.035333095, 229.221241221063, 0.000565275414545937, 0.7025,227.454574584961
0.036000125, 229.232854041404, 0.000302193128844019, 0.71625,224.266830444336
0.0366665233333333, 229.244353916403, 0.000351200167267031, 0.72875,226.942337036133
0.0373330983333333, 229.255272835727, 0.000329982233024095, 0.7425,223.821365356445
0.0379996933333333, 229.266722098576, 0.000169686784490785, 0.75625,230.860641479492
0.0386665783333333, 229.278147917876, 0.000207852367499197, 0.77,230.899307250977
0.0393335283333333, 229.289161190191, 0.000279413773084751, 0.7825,230.899307250977
0.0399995933333333, 229.299670680644, 0.000159205311039237, 0.79625,229.470779418945
0.0406665416666667, 229.310380642795, 5.51105395997018E-05, 0.80875,230.962860107422
0.04133443, 229.320113760345, 0.000254186540210521, 0.82375,229.358825683594
0.041999695, 229.330009721279, 0.000128689343783941, 0.8375,235.503479003906
0.0426667433333333, 229.339433729215, 0.000261852655110818, 0.848750000000001,235.503479003906
0.0433331383333333, 229.349296290026, 1.30781507570519E-05, 0.8625,233.507873535156
0.0439996616666667, 229.359104426136, -0.000198808706371165, 0.87625,236.229446411133
0.0446664533333333, 229.369115823756, -0.000662670907018544, 0.888750000000001,229.819396972656
0.045333955, 229.378608100134, -0.000336702780073573, 0.902500000000001,226.980224609375
0.0459998033333333, 229.388608645231, -0.000654718306472208, 0.91625,226.980224609375
0.04666687, 229.398775868356, -0.000356099805750888, 0.928750000000001,287.493927001953
0.0473338766666667, 229.408786071148, -0.000227113784588469, 0.942500000000001,235.990524291992
0.0479999566666667, 229.418482396763, -0.000309842129247892, 0.954999999999999,237.610900878906
0.0486672, 229.428602399721, -0.000586099753118453, 0.9675,230.380004882813
0.0493338616666667, 229.438066421974, -0.000246071332373122, 0.98125,230.380004882813
0.0499995483333333, 229.44747101041, -0.000345496838380169, 0.99375,230.246215820313
0.05066653, 229.457163161185, -0.000390530576336311, 1.0075,231.313919067383
0.0513331566666667, 229.465898493229, -0.000123025012867801, 1.02125,235.209655761719
0.0519999083333333, 229.474613526612, 0.000118270867114822, 1.035,234.597366333008
0.0526663483333333, 229.483431903613, -0.000130361144399381, 1.0475,234.597366333008
0.0533329616666667, 229.491831544522, 0.000145719488370341, 1.06125,229.366271972656
0.0539996633333333, 229.500225564498, 8.51810291584523E-05, 1.07375,238.951141357422
0.0546662783333333, 229.508733933995, -0.000199359178669668, 1.0875,235.199645996094
0.05533367, 229.516899513806, -0.000271678046163884, 1.10125,231.805267333984
0.055999885, 229.52536042682, -0.000330971567887274, 1.11375,231.805267333984
0.056666515, 229.533298377533, -0.00054983907442099, 1.12625,237.057495117188
0.0573330333333333, 229.541014652957, -0.000347394243026593, 1.14,235.00114440918
0.0579998783333333, 229.548914552388, -5.42489674304492E-05, 1.1525,238.433242797852
0.0586668416666667, 229.557131437805, -4.11666245323E-05, 1.16625,236.827590942383
0.0593331333333333, 229.564562465652, 0.000366239911830243, 1.17875,236.827590942383
0.05999959, 229.572336390816, 0.000354612495858303, 1.1925,240.590667724609
0.060666375, 229.580167260326, 0.00050133062639788, 1.20625,229.893829345703
0.0613336383333333, 229.587972128257, 0.000523866994403821, 1.21875,223.643951416016
0.0619998816666667, 229.595668533986, 0.000623016514214397, 1.2325,227.633605957031
0.06266649, 229.603620908039, 0.000308933790302489, 1.24625,227.633605957031
0.0633334616666667, 229.6111513862, 0.00028984874894356, 1.26,266.975494384766
0.0640002016666667, 229.619754855711, 0.000208911314382946, 1.2725,221.468368530273
0.06466643, 229.628437067259, 3.45585719618451E-05, 1.28625,225.561904907227
0.0653338183333333, 229.636937572224, -0.000124001463718084, 1.3,226.587127685547
0.0659999016666667, 229.645109626002, -0.000259302167723431, 1.3125,226.587127685547
0.0666665933333333, 229.653802638416, -0.000441286526847316, 1.32625,223.538223266602
0.0673336883333333, 229.661655649106, -0.00064107199187091, 1.33875,226.767959594727
0.0679997383333333, 229.669666721138, -0.000482358963880594, 1.35375,222.34342956543
0.0686664, 229.677247403402, -0.000757332652249425, 1.36625,226.19416809082
0.0693336716666667, 229.686169315136, -0.000428496669335327, 1.38,226.19416809082
0.0700002133333333, 229.695080592132, -0.000168043751601165, 1.3925,219.503067016602
0.0706665433333333, 229.704108252486, 0.000118104375463552, 1.40625,222.002487182617
0.071333765, 229.713155151323, -2.23635689186746E-05, 1.42,226.136123657227
0.0719999966666667, 229.722839941824, 0.000262668614177477, 1.4325,224.154037475586
0.072666515, 229.732223884532, -5.29500326209246E-05, 1.44625,224.154037475586
0.0733332166666667, 229.74193178255, -0.000451688504369254, 1.46,221.566940307617
0.073999925, 229.751182980026, -0.000995322698209644, 1.4725,215.364456176758
0.07466684, 229.761049922673, -0.000871751405099421, 1.4875,218.507705688477
0.0753330333333333, 229.770492332265, -0.00106462221737, 1.50125,218.413208007813
0.0759998566666667, 229.780055402201, -0.00103673861795252, 1.51375,218.413208007813
0.0766670266666667, 229.789317526334, -0.000880861947476358, 1.5275,216.856536865234
0.07733371, 229.798713044338, -0.000711113973717152, 1.54,219.147201538086
0.0779996466666667, 229.808119038764, -0.000825699218218417, 1.55375,220.072143554688
0.0786665466666667, 229.817854204478, -0.000978454545501304, 1.5675,225.078628540039
0.0793337533333333, 229.826233318067, -0.00048063405051929, 1.58125,263.887817382813
0.0799998816666667, 229.834742315153, -0.000339504639305195, 1.595,263.887817382813
0.0806663016666667, 229.843325296762, -0.000355072357364624, 1.6075,221.106079101563
0.0813329, 229.851636022538, -0.000294476901004157, 1.62125,221.996856689453
0.0819996416666667, 229.860215519914, -0.00046374939862126, 1.63375,228.345077514648
0.0826664616666667, 229.868979797664, -0.000863500319533075, 1.6475,228.345077514648
0.08333369, 229.877370344315, -0.000959006522394277, 1.66125,230.469039916992
0.08400024, 229.885878608586, -0.000719060574608382, 1.675,223.19221496582
0.08466661, 229.894156109371, -0.000913168824724194, 1.6875,225.526840209961
0.0853331266666667, 229.902628122781, -0.000586998207942275, 1.70125,228.378860473633
0.0859998916666667, 229.910690132332, -0.000524197862326445, 1.71375,228.378860473633
0.0866664533333333, 229.919826986084, -0.00100611615608585, 1.7275,222.598007202148
0.087333995, 229.928034337253, -0.00120886247232781, 1.74,225.461578369141
0.087999955, 229.936625304662, -0.00124692006073668, 1.75375,229.230895996094
0.0886665716666667, 229.943927308747, -0.00141913391059741, 1.7675,232.344619750977
0.0893336866666667, 229.951999805032, -0.00146853842909356, 1.78,232.344619750977
0.0899995916666667, 229.959441885282, -0.00130561511258066, 1.79375,237.858261108398
0.0906673733333333, 229.967526361281, -0.00131256876332565, 1.80625,236.639358520508
0.0913336633333333, 229.974692725764, -0.00113143336158404, 1.82125,235.907760620117
0.0919999066666667, 229.982978870412, -0.00132540511857915, 1.8325,234.223678588867
0.0926664933333333, 229.990878190436, -0.00125076286775921, 1.84625,234.223678588867
0.0933330816666667, 229.998555329386, -0.000917557604293274, 1.85875,230.629638671875
0.0939997266666667, 230.005981961014, -0.000729194065598374, 1.8725,235.421844482422
0.0946663433333333, 230.013884211659, -0.000657679157711829, 1.88625,237.640960693359
0.0953330066666667, 230.0213254929, -0.000301205563024893, 1.89875,237.043258666992
0.0959995966666667, 230.02917520482, -0.00041183100644268, 1.9125,283.815185546875
0.0966662516666667, 230.036781177596, -0.00062050952476223, 1.92625,283.815185546875
0.097333255, 230.044688102921, -0.000836249688362547, 1.94,234.971923828125
0.097999855, 230.052711906728, -0.00101425774719201, 1.9525,232.90803527832
0.098666465, 230.060606232557, -0.00131043437055975, 1.96625,235.897903442383
0.0993339016666667, 230.068600130139, -0.00141871993148337, 1.98,235.897903442383
0.0999996116666667, 230.076280117456, -0.0013077600049024, 1.99125,236.402893066406
0.10066645, 230.084315241416, -0.00144778247173686, 2.005,234.216323852539
0.101333625, 230.091781599967, -0.00156881589235294, 2.0175,234.722229003906
0.10199994, 230.099460844736, -0.00150638152835527, 2.03125,226.725219726563
0.102666321666667, 230.106967666504, -0.00128522513679961, 2.045,226.725219726563
0.10333299, 230.114925378643, -0.00134515762642506, 2.0575,228.50846862793
0.103999915, 230.122374209341, -0.000964455748707748, 2.07125,236.200622558594
0.104667003333333, 230.130520648442, -0.00104337878445472, 2.085,232.146057128906
0.105333215, 230.138659478448, -0.000673584358889516, 2.0975,235.446334838867
0.105999593333333, 230.146772314505, -0.000384709368770833, 2.11125,235.446334838867
0.10666648, 230.154858057739, -0.000257905737976474, 2.125,238.29963684082
0.10733348, 230.163671631704, -0.000210470620583125, 2.1375,237.460067749023
0.108001816666667, 230.172480890951, 0.000330564203777575, 2.15125,204.003692626953
0.108666543333333, 230.180542922185, 1.23266885247493E-05, 2.165,204.003692626953
0.109332965, 230.189638127744, -0.000391078048849771, 2.1775,199.723388671875
0.109999846666667, 230.198243359389, -0.000424053892508984, 2.19125,212.665771484375
0.110666463333333, 230.206400531632, -0.000610485528232422, 2.205,210.803756713867
0.111333865, 230.214618913751, -0.000601526478220214, 2.2175,213.108184814453
0.111999941666667, 230.223540436057, -0.000530568042393548, 2.2325,252.57438659668
0.112666456666667, 230.231606578378, -0.000370371588913362, 2.24625,209.705139160156
0.113333641666667, 230.240299195174, -0.000207205284604627, 2.25875,209.705139160156
0.11399961, 230.249020979927, -0.000136075857353482, 2.2725,210.122543334961
0.114666431666667, 230.257222683825, -0.00024562735470725, 2.285,210.835342407227
0.115333121666667, 230.265461035256, -8.16750898624284E-05, 2.29875,216.11589050293
0.115999926666667, 230.27354582238, -0.000218418721377505, 2.3125,216.11589050293
0.116666311666667, 230.281634345149, -0.00029155954757223, 2.325,205.841995239258
0.117333616666667, 230.288882520622, -0.000123570985435603, 2.3375,207.280792236328
0.117999778333333, 230.296726625889, -0.00022273250466266, 2.3525,209.160675048828
0.118666286666667, 230.304556018477, -0.000338052712249046, 2.36625,212.534332275391
0.119333146666667, 230.312552110846, -0.000158465232725395, 2.37875,212.534332275391
0.11999993, 230.320483680632, -0.000223479467143007, 2.39125,215.280349731445
0.120666425, 230.329060886621, -0.00058095651144701, 2.405,204.806640625
0.121333323333333, 230.337304662403, -0.00067444681552766, 2.41875,208.702896118164
0.121999635, 230.345889231216, -0.000909771495419462, 2.43125,205.851119995117
0.122666501666667, 230.354214363013, -0.00117313876677925, 2.44375,205.851119995117
0.123333731666667, 230.36255812036, -0.00116164784397052, 2.4575,205.467788696289
0.123999988333333, 230.371006851379, -0.00109111388681374, 2.4725,201.442352294922
0.124666881666667, 230.379124620987, -0.000905600204952617, 2.485,201.553695678711
0.125333671666667, 230.387773252799, -0.000477397213168216, 2.49875,201.627227783203
0.125999915, 230.39692766307, 2.92758371721201E-05, 2.51125,201.627227783203
0.126666553333333, 230.407369706575, -5.1834319344563E-06, 2.525,201.163360595703
0.127333691666667, 230.417645781104, -6.31840186522053E-05, 2.53875,201.465057373047
0.127999866666667, 230.428582278919, -0.000198358728965171, 2.55125,190.896835327148
0.128666866666667, 230.439683763453, -0.000343585934329098, 2.56625,224.041351318359
0.12933295, 230.450833777809, -0.000642603414984193, 2.5775,182.207870483398
0.129999596666667, 230.461550002046, -0.000456704252508928, 2.59125,182.207870483398
0.130666631666667, 230.472861814021, -0.000287632744783116, 2.605,183.952133178711
0.13133367, 230.48428268453, -0.000221544564301484, 2.6175,185.522003173828
0.131999931666667, 230.495269635928, -0.000234134931931603, 2.63125,186.665954589844
0.132666315, 230.506255278838, -0.000219767153671083, 2.64375,186.665954589844
0.133333615, 230.517131949467, -0.000466354767841071, 2.6575,180.452926635742
0.133999658333333, 230.52843915139, -0.000525171313540463, 2.67125,170.129760742188
0.134666275, 230.539472879596, -0.000713441856901106, 2.68375,177.736206054688
0.135333155, 230.550611106529, -0.000697430161133296, 2.69625,179.462875366211
0.135999606666667, 230.561768504802, -0.000865151736641127, 2.71125,179.462875366211
0.136666475, 230.572933432007, -0.000984794727144104, 2.7225,174.53466796875
0.137333701666667, 230.583360036719, -0.00083494175409162, 2.73625,175.908599853516
0.137999676666667, 230.594094613718, -0.000715759240529222, 2.75,180.988479614258
0.138666526666667, 230.604446640066, -0.000400557572757434, 2.7625,186.907348632813
0.13933365, 230.615205656864, -6.23020629755651E-05, 2.77625,186.907348632813
0.139999956666667, 230.625308261351, 0.000246947903743899, 2.78875,182.97590637207
0.140666671666667, 230.635611373687, 0.000333706545933753, 2.8025,183.348068237305
0.141333625, 230.645529188965, 0.00031258760674394, 2.81625,180.497039794922
0.141999896666667, 230.655347386927, 0.000173441095931016, 2.82875,180.497039794922
0.14266666, 230.665145316971, 0.000298753801634742, 2.84125,174.066101074219
0.143333498333333, 230.674866842908, 6.93178259915812E-05, 2.855,177.195678710938
0.14400024, 230.684100092038, 4.50310458882272E-05, 2.8675,176.012924194336
0.144666463333333, 230.693899126696, 0.000116743943817256, 2.88125,185.772003173828
0.145333091666667, 230.703761561912, -7.54579021269657E-05, 2.895,222.954711914063
0.146000268333333, 230.713480645843, -0.00043587629871711, 2.90875,188.924865722656
0.146666491666667, 230.723832784625, -0.000503242414981604, 2.92125,188.924865722656
0.14733317, 230.734207553618, -0.000767724130385556, 2.935,186.784698486328
0.147999886666667, 230.744817339871, -0.000683740348809319, 2.9475,186.631683349609
0.14866649, 230.75545085735, -0.00064591824857427, 2.96125,188.487838745117
0.149333653333333, 230.76610214362, -0.000493801889257204, 2.975,188.487838745117
0.149999755, 230.776733681568, -0.000341063061185262, 2.9875,182.742385864258
0.150666496666667, 230.787672665685, -4.00191823212998E-05, 3.00125,183.331695556641
0.15133366, 230.79885770701, -6.413497097892E-05, 3.015,183.493789672852
0.151999888333333, 230.810143012486, 0.000113328615207144, 3.02875,181.517822265625
0.152666576666667, 230.821404434678, 0.000170567240221768, 3.0425,181.517822265625
0.153332941666667, 230.832856526422, 8.68369458696817E-05, 3.055,172.806549072266
0.153999906666667, 230.844207699728, 5.67679562353344E-05, 3.06875,169.795989990234
0.154666513333333, 230.855098083278, 0.000303304572954358, 3.08125,179.606460571289
0.155333428333333, 230.866545890073, 6.24901688327056E-05, 3.095,179.835266113281
0.155999616666667, 230.878231082366, 9.49035407131727E-05, 3.10875,179.835266113281
0.156666548333333, 230.889653186411, 0.000109862289358609, 3.1225,173.055541992188
