Time (min), Depth (µm), Load (N), Position (µm), Acoustic (aJ)
8.90166666666667E-06, 228.894782836249, 0.000211739756480758, 0,170.478744506836
0.000666096666666667, 228.894414464033, 0.000324424596401776, 0.00375000000000028,211.527374267578
0.00133409166666667, 228.894682190588, 0.000679840744214383, 0.0162500000000006,181.003082275391
0.001999425, 228.894860848044, 0.000756681884570823, 0.0337500000000008,181.003082275391
0.00266642666666667, 228.896045174637, 0.000901181626535408, 0.0487500000000002,189.12744140625
0.00333406166666667, 228.898393784872, 0.000735772934839974, 0.0625000000000001,185.454345703125
0.00400085, 228.901664394354, 0.000430826251998605, 0.0774999999999994,187.759536743164
0.004667455, 228.905420249558, 0.000264891086773865, 0.0912499999999993,193.95393371582
0.00533411333333333, 228.914491126665, -4.76572143034777E-05, 0.108749999999999,193.95393371582
0.006166075, 228.922520876987, -0.000171694984030639, 0.12125,192.201553344727
0.00683285666666667, 228.931643806826, -0.000218591628456948, 0.135,186.897048950195
0.00749955833333333, 228.942248645075, 0.000134639129138793, 0.1475,186.7119140625
0.00816593333333333, 228.953766115463, -1.69042590137202E-05, 0.16125,186.813262939453
0.00883262, 228.965258754971, 0.000172368234039586, 0.17375,187.949142456055
0.00949931333333333, 228.976758773624, 0.000247440963205773, 0.1875,187.949142456055
0.0101659633333333, 228.988275358163, 0.000228600409545829, 0.20125,181.302658081055
0.0108326583333333, 229.000197817224, 9.16542882363124E-05, 0.212499999999999,187.076049804688
0.0114993666666667, 229.011752446365, -3.80861950284698E-05, 0.226250000000001,192.851898193359
0.0121660083333333, 229.023541266069, -9.13110215748278E-05, 0.240000000000001,184.62939453125
0.0128327, 229.03517861102, -0.000316107730294819, 0.252499999999999,184.62939453125
0.0134994066666667, 229.046717093984, -0.000313161878256722, 0.266249999999999,189.278244018555
0.014165965, 229.058096789798, -0.000454411283508095, 0.27875,182.597702026367
0.0148326233333333, 229.067755032543, -4.22469860882546E-05, 0.29125,189.053985595703
0.0154993583333333, 229.076568886012, -8.4285374543501E-05, 0.306249999999999,188.714080810547
0.0161659933333333, 229.086516635071, 0.0004323036777271, 0.31875,188.714080810547
0.016832845, 229.096027837428, 0.00053117121172861, 0.332499999999999,199.224792480469
0.017499385, 229.10608072923, 0.000891238625902122, 0.345,229.343215942383
0.01816592, 229.117946229615, 0.000485768492262996, 0.35875,193.736785888672
0.0188327116666667, 229.130171614592, 0.000667250376605519, 0.3725,196.51237487793
0.0194997216666667, 229.141606980375, 0.000352665177869741, 0.385,196.51237487793
0.020166035, 229.153755758071, 0.000220422820253988, 0.39875,197.013290405273
0.0208327516666667, 229.164958589752, -0.00016060454112259, 0.4125,200.244049072266
0.0214995516666667, 229.176380919278, -8.50413366127758E-05, 0.425,203.116027832031
0.0221659883333333, 229.187660656491, -0.000373778333622597, 0.43875,200.628265380859
0.0228326483333333, 229.199353116869, -0.000378669587930531, 0.4525,200.628265380859
0.0234993533333333, 229.21065598478, -0.000408989065025239, 0.46625,195.107147216797
0.0241659516666667, 229.222578289679, -0.000663928259696591, 0.47875,202.050888061523
0.02483263, 229.234446268267, -0.000801166866328505, 0.4925,205.798690795898
0.0254993816666667, 229.246448647912, -0.00090167231807593, 0.505,196.763427734375
0.0261660033333333, 229.257740686783, -0.000917225036870073, 0.52,196.763427734375
0.0268325933333333, 229.269397037094, -0.00067224984170989, 0.5325,200.894165039063
0.0274992816666667, 229.280944420378, -0.000504267279313384, 0.545,202.727905273438
0.0281659466666667, 229.292750145202, -0.000387327153073922, 0.55875,200.822708129883
0.0288325966666667, 229.304289456631, -0.000167403699590279, 0.571250000000001,198.258728027344
0.0294993466666667, 229.316311624953, -0.000155188313167246, 0.583749999999999,198.258728027344
0.0301659666666667, 229.328119528547, -0.000351343960454824, 0.59875,196.554214477539
0.0308327216666667, 229.339240491033, -0.00029190794589187, 0.611250000000001,200.167556762695
0.0314995733333333, 229.350691009397, -0.000423727324762142, 0.625000000000001,200.667785644531
0.0321659916666667, 229.361977609696, -0.000623559287420982, 0.63875,192.171310424805
0.0328326533333333, 229.372992517474, -0.00102687702918011, 0.6525,192.171310424805
0.0334994583333333, 229.384265913173, -0.000931634813120154, 0.66625,197.450393676758
0.034165965, 229.395519956568, -0.000867981010370092, 0.678750000000001,239.220672607422
0.0348328483333333, 229.406381428556, -0.000637577583253034, 0.6925,196.053146362305
0.0354997316666667, 229.417852876924, -0.000533733299231351, 0.70625,199.172500610352
0.0361659566666667, 229.428836394455, -0.000604991719981176, 0.72,199.172500610352
0.0368327066666667, 229.439423474385, -0.000868083005208259, 0.7325,198.907730102539
0.0374995866666667, 229.45036838094, -0.000938013992606152, 0.74625,201.302139282227
0.0381659666666667, 229.461289776554, -0.000930283380956515, 0.76,202.892013549805
0.03883267, 229.471736166606, -0.000947255028512443, 0.772500000000001,201.739273071289
0.0394993733333333, 229.482116421844, -0.00058166189190215, 0.78625,201.739273071289
0.040166045, 229.492650698226, -0.000211739972677653, 0.8,201.388427734375
0.0408328716666667, 229.502900197674, -0.000318311119753303, 0.812500000000001,197.112701416016
0.0414992916666667, 229.512463560058, -0.000318209124851374, 0.826250000000001,201.654632568359
0.042165955, 229.521950610683, -0.000251097995777941, 0.838749999999999,196.836303710938
0.0428326366666667, 229.531395678322, -0.000396500692339558, 0.852500000000001,196.836303710938
0.0434995216666667, 229.540361530885, -0.000181553988876089, 0.866250000000001,202.752517700195
0.044165895, 229.549841530881, -0.000125209318997094, 0.878749999999999,203.375823974609
0.0448326583333333, 229.560121253033, -0.000137852183981326, 0.892499999999999,209.4970703125
0.0454995433333333, 229.570422057352, -0.00011038406368731, 0.906250000000001,203.014984130859
0.0461659416666667, 229.58099681091, -2.37319161088335E-05, 0.918749999999999,203.014984130859
0.0468326983333333, 229.591702585435, -0.000430799469513732, 0.932499999999999,201.838684082031
0.0474993883333333, 229.602484299438, -0.000678666519433494, 0.945,196.474517822266
0.0481659433333333, 229.612192194818, -0.000787471054285661, 0.9575,196.114105224609
0.0488326316666667, 229.621377800728, -0.000762117827740304, 0.97125,199.640716552734
0.04949937, 229.631125558891, -0.000872699773329143, 0.98375,199.640716552734
0.0501659616666667, 229.640275559747, -0.000801997824617943, 0.99875,196.158905029297
0.0508328333333333, 229.649580310975, -0.000663698771241638, 1.01125,245.124069213867
0.0514996116666667, 229.658421681596, -0.000594180263075896, 1.02375,204.177749633789
0.05216601, 229.667811770393, -0.000483853304678119, 1.0375,195.759002685547
0.052832675, 229.676073419009, -0.000250595520975325, 1.05125,195.759002685547
0.0534992916666667, 229.684501652863, -0.000186044763283336, 1.06375,210.183410644531
0.0541659633333333, 229.69243903908, 4.37586939448933E-05, 1.0775,203.852478027344
0.0548328416666667, 229.701109870612, 5.40601764893041E-05, 1.09,203.11491394043
0.05549943, 229.709186484384, -0.000107504208301703, 1.10375,199.186279296875
0.056166055, 229.718033124341, -0.0001186381490387, 1.11625,199.186279296875
0.056832655, 229.72648779701, -2.67917624015778E-05, 1.13,199.746154785156
0.0574993833333333, 229.734762581715, -0.000291810450805659, 1.1425,200.070266723633
0.0581659666666667, 229.742720538047, -0.000171690484299938, 1.15625,205.42448425293
0.0588326133333333, 229.751315867199, -0.000281334976966708, 1.17,200.819702148438
0.0594993783333333, 229.75915911019, -0.000266977698091994, 1.1825,200.819702148438
0.0601659566666667, 229.767939318977, -0.000488146089021628, 1.19625,197.901901245117
0.060833295, 229.776427394617, -0.000551969383208004, 1.20875,202.697235107422
0.0614992616666667, 229.785217250999, -0.000829380449157211, 1.2225,205.200103759766
0.0621660766666667, 229.793537106821, -0.000689653467493956, 1.23625,196.22216796875
0.0628326833333333, 229.802312534344, -0.000597766582897946, 1.24875,196.22216796875
0.0634994716666667, 229.811178084501, -0.000531900391313013, 1.26375,198.233322143555
0.06416618, 229.82061497948, -0.000676433131571961, 1.275,198.073348999023
0.0648327066666667, 229.8297957026, -0.000611636386214076, 1.28875,200.245254516602
0.0654993166666667, 229.839150008137, -0.000717127587528093, 1.3025,193.85823059082
0.0661660383333333, 229.848015342931, -0.000851822321947, 1.31625,193.85823059082
0.0668326433333333, 229.856243171366, -0.000953170731336581, 1.33,208.171508789063
0.067499505, 229.8635609087, -0.000382195910818959, 1.3425,244.523681640625
0.06816789, 229.87157803329, -0.000526032686027271, 1.35625,197.003372192383
0.0688328083333333, 229.880012673733, -0.000824283705206031, 1.37,201.152893066406
0.0694996033333333, 229.888724164399, -0.000920091392872288, 1.38375,201.152893066406
0.0701659483333333, 229.898110299836, -0.000900430380436237, 1.39625,204.263290405273
0.0708326966666667, 229.908009251843, -0.00128819390347682, 1.41,197.345794677734
0.0714994316666667, 229.918040271188, -0.00135202769719778, 1.42375,201.115264892578
0.0721659616666667, 229.927715727722, -0.00100675853965229, 1.43625,193.562561035156
0.0728326633333333, 229.938043708429, -0.00139542201746235, 1.45,193.562561035156
0.0734993566666667, 229.947752985906, -0.00141414557699759, 1.46375,197.524322509766
0.0741659466666667, 229.957421297515, -0.0012663550003609, 1.47625,199.664459228516
0.0748329216666667, 229.966552044805, -0.00105010936215167, 1.49,192.851257324219
0.0754992583333333, 229.976851781989, -0.00119049331080983, 1.50375,196.227615356445
0.0761659616666667, 229.986297751484, -0.000788975478653415, 1.5175,196.227615356445
0.0768327733333333, 229.995969355911, -0.000772080327284562, 1.53125,200.613189697266
0.0774994066666667, 230.005727897248, -0.000816791581494004, 1.54375,197.914520263672
0.07816618, 230.015456950494, -0.000759896439273997, 1.5575,187.503402709961
0.078832625, 230.024301741305, -0.000633184303910745, 1.57,200.100784301758
0.079499395, 230.03309870945, -0.000647862566650264, 1.585,200.100784301758
0.0801659983333333, 230.042013494934, -0.000706329629921188, 1.5975,198.229553222656
0.080832645, 230.050692592518, -0.0005555482034718, 1.61,199.07649230957
0.0814995833333333, 230.059131763564, -0.000438783568408773, 1.625,190.67578125
0.0821659766666667, 230.067498841837, -0.000356512700798614, 1.6375,195.045288085938
0.082832705, 230.076408887821, -0.00061610916150723, 1.65125,195.045288085938
0.08349935, 230.084685964771, -0.000609417997596575, 1.665,233.364837646484
0.08416596, 230.093686569191, -0.000736398619491773, 1.6775,204.370788574219
0.0848328883333333, 230.102345196033, -0.000932677260622926, 1.69,201.411529541016
0.08549932, 230.111069267015, -0.00106290671930693, 1.705,195.964721679688
0.08616592, 230.119428883742, -0.000824918173207355, 1.7175,195.964721679688
0.0868326566666667, 230.128299538796, -0.000846607083755422, 1.73,203.9755859375
0.0874992883333333, 230.137089526842, -0.000984030181152699, 1.74375,199.629425048828
0.0881661783333333, 230.146179006517, -0.00110079781604328, 1.7575,200.990325927734
0.0888328516666667, 230.154851267217, -0.00118012133171219, 1.77,204.935607910156
0.0894996083333333, 230.163844922163, -0.00143779188921072, 1.78375,204.935607910156
0.0901659433333333, 230.172473209678, -0.00138037627318027, 1.7975,201.136428833008
0.090832675, 230.180659241967, -0.00152254663214277, 1.81,202.62744140625
0.0914994533333333, 230.189268773132, -0.0016222871222745, 1.8225,194.225631713867
0.0921659166666667, 230.197313747016, -0.00151992326391514, 1.83625,202.926345825195
0.0928327466666667, 230.205831526211, -0.00109352618136731, 1.85,202.926345825195
0.0934993166666667, 230.214219624928, -0.00126284817651097, 1.8625,196.4072265625
0.0941660166666667, 230.222557399902, -0.00141139171526186, 1.875,204.62126159668
0.094832945, 230.230061255719, -0.00125629650550606, 1.88875,199.003494262695
0.0954993516666667, 230.238067359209, -0.00123922436299386, 1.9025,200.826232910156
0.0961659383333333, 230.245280816475, -0.00158758936501778, 1.91625,200.826232910156
0.09683286, 230.253710054013, -0.00156298610082283, 1.93,199.371978759766
0.0974993716666667, 230.261238992001, -0.00152655893055911, 1.9425,197.818695068359
0.09816594, 230.26960997215, -0.00146206217018815, 1.95625,204.528732299805
0.0988334933333333, 230.27826337879, -0.00190950919540324, 1.96875,199.190872192383
0.0994993866666667, 230.287138549653, -0.00209753075124918, 1.9825,199.190872192383
0.100165945, 230.294919149662, -0.00207878019307468, 1.99625,249.622039794922
0.100832611666667, 230.303499693098, -0.0019045504444334, 2.0075,197.719497680664
0.101499428333333, 230.311977004769, -0.00216113955622464, 2.02125,202.428009033203
0.102165983333333, 230.3199337612, -0.00196902320601391, 2.035,203.674041748047
0.102832701666667, 230.327575969231, -0.0014214322109601, 2.0475,203.674041748047
0.103499373333333, 230.335827560651, -0.00144479503748227, 2.06125,196.107025146484
0.104165975, 230.343413485714, -0.0011065665263184, 2.07375,198.41423034668
0.104832645, 230.350910749455, -0.000582543847430011, 2.0875,197.034896850586
0.105499498333333, 230.358707232448, -0.000284601812784593, 2.10125,202.569183349609
0.106165976666667, 230.366637732873, -0.000539455511743706, 2.11375,202.569183349609
0.106832715, 230.374801147282, -5.38549029579357E-05, 2.1275,202.53205871582
0.107499493333333, 230.383489166867, -0.00018952158858144, 2.14125,204.262664794922
0.108165946666667, 230.391761050428, -0.000402297901029568, 2.155,184.792083740234
0.108832796666667, 230.399571390238, -0.000196638731043874, 2.1675,189.597518920898
0.109499426666667, 230.40785778941, -0.000247369182903787, 2.18125,189.597518920898
0.110165943333333, 230.415267793668, -0.000473088345238052, 2.195,194.124938964844
0.110832688333333, 230.422832344429, -0.000628903518834937, 2.2075,193.173583984375
0.111499405, 230.430282296879, -0.000728212030653513, 2.22125,191.001037597656
0.11216612, 230.438861980233, -0.00077358925144678, 2.235,187.712860107422
0.112832765, 230.446386769154, -0.000932117788735495, 2.24875,187.712860107422
0.113499401666667, 230.454218498141, -0.00085932344512043, 2.2625,186.246124267578
0.114165916666667, 230.461951032597, -0.000872713272542501, 2.275,189.974899291992
0.114832678333333, 230.470095317039, -0.000817238558966175, 2.28875,192.150375366211
0.115499426666667, 230.477411909736, -0.000953715203852455, 2.3025,190.103515625
0.116165983333333, 230.485853745492, -0.000952707254462179, 2.31625,190.103515625
0.116832701666667, 230.493618839125, -0.000949476416744955, 2.32875,228.749420166016
0.117499583333333, 230.5015254633, -0.00080521966259746, 2.34125,191.609329223633
0.118165943333333, 230.509190828334, -0.000866164601407648, 2.35625,191.503982543945
0.1188329, 230.517098198772, -0.000595243709499059, 2.36875,190.932250976563
0.119499381666667, 230.524836001248, -0.000419832020257971, 2.38125,190.932250976563
0.120166001666667, 230.53287979348, -0.000417219151479906, 2.395,187.288269042969
0.120832761666667, 230.540996387635, -0.000315906740297258, 2.4075,188.706420898438
0.121499286666667, 230.549225699478, 0.000106263554559552, 2.42125,190.573471069336
0.122166058333333, 230.557403988347, -0.000224693321843327, 2.435,183.238998413086
0.12283287, 230.565456207767, -5.36554129060318E-05, 2.4475,183.238998413086
0.123499341666667, 230.57326422995, -6.48268517531109E-05, 2.46125,181.978546142578
0.124166048333333, 230.5815025347, 9.67180339993995E-05, 2.475,185.967758178711
0.124832708333333, 230.589986088064, -0.000222456934175495, 2.48875,187.695251464844
0.125499261666667, 230.599164309881, -0.000181140009464486, 2.5025,182.629760742188
0.126166031666667, 230.608757272011, -0.000160091566700373, 2.515,182.629760742188
0.126832723333333, 230.618773711238, -9.81566776352555E-05, 2.52875,180.552597045898
0.127499263333333, 230.628658133283, -0.000415548235354611, 2.54125,183.556762695313
0.128165946666667, 230.639313331496, -0.000634888218139116, 2.555,183.736190795898
0.128832575, 230.649524828935, -0.00075193333910806, 2.5675,187.604537963867
0.12949944, 230.660039189653, -0.000678200042646523, 2.58125,187.604537963867
0.130165988333333, 230.670824510708, -0.000625780675653493, 2.595,183.625244140625
0.130832638333333, 230.682122921933, -0.000641087406802994, 2.6075,184.184722900391
0.13149931, 230.693147685498, -0.000515602209814147, 2.62125,185.718826293945
0.132165965, 230.704504331023, -0.000388783579775756, 2.63375,181.406707763672
0.132832846666667, 230.715394773679, -0.000898147494963126, 2.6475,181.406707763672
0.133499325, 230.726486599365, -0.000890004403975069, 2.66125,215.90283203125
0.134165943333333, 230.73755580986, -0.00119737346517404, 2.67375,179.49040222168
0.134832628333333, 230.748778356246, -0.00121099278107231, 2.6875,179.241027832031
0.135499308333333, 230.758888795773, -0.00118539506684923, 2.70125,177.091445922852
0.136165973333333, 230.769563644113, -0.000945375622767571, 2.7125,177.091445922852
0.136832761666667, 230.779880406037, -0.000817990021219731, 2.72625,181.12890625
0.137499333333333, 230.789928121132, -0.000594025770713581, 2.73875,179.100784301758
0.138165935, 230.799666496398, -0.000541852391301431, 2.7525,179.365341186523
0.138832798333333, 230.810260863266, -0.000529388017363695, 2.76625,178.768981933594
0.139499326666667, 230.820061943452, -0.000716439121971949, 2.77875,178.768981933594
0.140166101666667, 230.830859789653, -0.0011094043837357, 2.79125,175.475921630859
0.140832705, 230.840842952159, -0.000891298838968876, 2.805,180.123016357422
0.141499321666667, 230.850953010786, -0.000731931843811215, 2.8175,180.065673828125
0.142165938333333, 230.860810622558, -0.000588837531288786, 2.83125,173.849136352539
0.142833276666667, 230.870804634326, -0.00034260239943858, 2.845,173.849136352539
0.143499776666667, 230.880256201934, 6.7877482600099E-05, 2.85875,177.693557739258
0.144166071666667, 230.89023071349, 0.000186808008820241, 2.87125,182.831359863281
0.144832633333333, 230.899839995457, 0.00055972527752438, 2.885,188.106430053711
0.145499365, 230.910218772335, 0.000395278037541468, 2.8975,178.818939208984
0.146166098333333, 230.920156127359, 0.000422234683571465, 2.91125,178.818939208984
0.146832703333333, 230.930207957126, 0.000265315565443749, 2.925,182.266403198242
0.14749937, 230.940526750029, 9.39991983709758E-06, 2.9375,182.778945922852
0.148165953333333, 230.950942631376, -0.000354562798628043, 2.95125,181.691375732422
0.148832625, 230.961499669303, -0.000220607527024959, 2.965,178.802139282227
0.149499373333333, 230.972108392002, -0.000134589847617839, 2.9775,178.802139282227
0.15016599, 230.983043236231, -0.000318989085434797, 2.9925,223.267623901367
0.150832725, 230.994133047349, -0.000122447957490565, 3.005,180.315765380859
0.151499325, 231.005476782618, -8.78446955987677E-05, 3.0175,187.063369750977
0.152165955, 231.016301260514, -5.91916348348909E-05, 3.03125,183.378082275391
0.15283271, 231.027608712135, 4.90084304402549E-05, 3.045,183.378082275391
0.153499786666667, 231.038372752756, 0.000362722172927708, 3.0575,185.577072143555
0.154165953333333, 231.048956497394, 0.000594541528893982, 3.07125,186.877822875977
0.154832701666667, 231.059344476492, 0.000441736704105787, 3.085,184.592437744141
0.155499311666667, 231.070063966891, 0.000184616618990778, 3.09875,184.170196533203
0.156165956666667, 231.081030369608, 0.000271855237074691, 3.1125,184.170196533203
