Time (min), Depth (µm), Load (N), Position (µm), Acoustic (aJ)
8.64E-06, 228.766942331067, -0.000687294534231911, 0,153.489944458008
0.000666496666666667, 228.76682749523, -0.0007337756995135, 0.00375000000000028,153.632904052734
0.00133268166666667, 228.766387707979, -0.000831995266024024, 0.0175000000000002,165.896194458008
0.00199971333333333, 228.766898077914, -0.000577122068026415, 0.0337500000000008,177.044647216797
0.002666665, 228.767712994784, -0.000172890872135667, 0.0487500000000002,177.044647216797
0.00333456666666667, 228.769922037841, -2.74491774970575E-05, 0.0625000000000001,180.812438964844
0.003999385, 228.773101814395, -0.000344887232936677, 0.0774999999999994,186.492065429688
0.00466600666666667, 228.778030719101, -0.000387930570912138, 0.0925000000000006,183.454742431641
0.00533272833333333, 228.7837715424, -0.000652362788747021, 0.10625,183.6533203125
0.006000185, 228.791482328296, -0.000560525401677572, 0.118750000000001,183.6533203125
0.00666606, 228.80008776242, -0.00047492920109153, 0.131249999999999,181.754516601563
0.00733279166666667, 228.809727605278, 2.3009788003357E-05, 0.144999999999999,184.400100708008
0.007999395, 228.820175213666, 0.000236507564216976, 0.1575,177.045776367188
0.00866609333333333, 228.831146932951, 0.000371146801411708, 0.17125,176.677825927734
0.009333215, 228.841909864808, 0.000255240123298632, 0.184999999999999,176.677825927734
0.00999941, 228.853170432054, 0.000330455345325636, 0.1975,181.346969604492
0.010666595, 228.864925434872, 0.00015126234596255, 0.21,141.417251586914
0.01133266, 228.876159545524, 0.00023991989276574, 0.22375,186.464736938477
0.011999565, 228.887802501874, 0.000288251965101015, 0.2375,183.427795410156
0.012666765, 228.899401903052, 0.000387537978053542, 0.25,183.427795410156
0.0133327033333333, 228.910839306853, 9.5594142116949E-05, 0.262500000000001,217.001556396484
0.0139993983333333, 228.921960101885, 8.16823408962736E-05, 0.27625,180.844467163086
0.0146660366666667, 228.932157695784, -0.000173210356118578, 0.2875,178.252532958984
0.0153326633333333, 228.941566350259, -0.000314725247989327, 0.302500000000001,198.35871887207
0.01599939, 228.951208256716, -0.000478326530460024, 0.3175,198.35871887207
0.0168327383333333, 228.961073683087, -0.000312325368540287, 0.332499999999999,200.951644897461
0.0174995033333333, 228.971341882597, -0.000333871786270045, 0.346249999999999,200.611282348633
0.0181664233333333, 228.983065023053, -0.000429060005008978, 0.35875,203.806869506836
0.0188326966666667, 228.994878014803, -0.000210814967230138, 0.3725,208.688110351563
0.0194996833333333, 229.006744504434, -0.000160317003695239, 0.386249999999999,208.688110351563
0.0201660433333333, 229.018005016612, -1.69827032470343E-05, 0.39875,214.624496459961
0.020833105, 229.029534784434, 3.93334680257906E-05, 0.4125,211.545639038086
0.0214994333333333, 229.040803258858, 0.000509391857424478, 0.425,212.812286376953
0.0221659966666667, 229.052462903194, 0.000606429483313948, 0.43875,217.949493408203
0.022833755, 229.064380874437, 0.000662070688520291, 0.4525,217.949493408203
0.02349966, 229.076602868419, 0.000568308898037634, 0.46625,215.11067199707
0.0241660066666667, 229.088598116157, 0.000621485727045596, 0.47875,215.892227172852
0.0248328033333333, 229.100638537062, 0.000515583546402577, 0.4925,211.999862670898
0.0254996116666667, 229.113052373358, 0.000363578181470098, 0.50625,212.039321899414
0.0261659983333333, 229.125136434891, 0.000224872648516749, 0.51875,213.153717041016
0.026832945, 229.137232846807, 0.000358268448211148, 0.5325,213.153717041016
0.027499565, 229.149145419863, 0.000266720546551528, 0.54625,212.080596923828
0.0281661883333333, 229.161734808283, -8.18349458503487E-05, 0.55875,210.892944335938
0.0288326716666667, 229.173691408295, -0.000392515840663062, 0.5725,203.063735961914
0.029499705, 229.185903123966, -0.00027310983832207, 0.58625,203.063735961914
0.0301667783333333, 229.197842752339, -0.000668218492440655, 0.59875,252.95539855957
0.0308327133333333, 229.210308351966, -0.000943358672439501, 0.611250000000001,207.24967956543
0.0314995683333333, 229.222001081939, -0.000673991702488991, 0.62625,210.095779418945
0.0321659916666667, 229.233960859134, -0.000150849479352835, 0.64,205.939178466797
0.0328328083333333, 229.246012410667, -0.00034995847832178, 0.6525,203.987609863281
0.0335001533333333, 229.258168252446, -0.00028021498145304, 0.66625,203.987609863281
0.0341661433333333, 229.270218471732, 6.43882094873748E-05, 0.678750000000001,203.999389648438
0.0348327833333333, 229.282528181405, -0.000234297787832092, 0.6925,206.37712097168
0.035499365, 229.294805861468, -0.000741497311744242, 0.70625,205.489273071289
0.03616637, 229.307070209902, -0.000861552781458115, 0.72,214.854736328125
0.0368327116666667, 229.318861479668, -0.000692505272522754, 0.7325,214.854736328125
0.0375012266666667, 229.330044284098, -0.000770468356502863, 0.74625,210.247268676758
0.0381661483333333, 229.341221505157, -0.000197851118444863, 0.76,207.581558227539
0.0388325983333333, 229.35260797165, -1.61862433251422E-05, 0.772500000000001,207.719161987305
0.0394995816666667, 229.363414965859, 0.000300321858771916, 0.78625,208.524749755859
0.04016632, 229.380868368787, 0.000396923006575021, 0.803750000000001,208.524749755859
0.0409993816666667, 229.391921171575, 0.000253984686190531, 0.816249999999999,208.036514282227
0.0416664966666667, 229.402865942954, 6.13583616189333E-05, 0.829999999999999,209.726181030273
0.0423326666666667, 229.413280478324, -5.90135922077891E-05, 0.843750000000001,214.940826416016
0.0429997066666667, 229.424263142488, -0.000152694386708907, 0.856249999999999,212.975860595703
0.0436669333333333, 229.434601921739, -0.000454639720288006, 0.869999999999999,212.975860595703
0.044332815, 229.44527581775, -0.000448797513738374, 0.8825,219.142196655273
0.0449993583333333, 229.455942249871, -0.00055186633667354, 0.896249999999999,214.52571105957
0.0456664616666667, 229.466790476497, -0.000560751890368735, 0.90875,209.412261962891
0.0463328066666667, 229.477239833766, -0.000480001946358528, 0.9225,261.193237304688
0.04699953, 229.487909622413, -0.000543454759196046, 0.93625,222.701812744141
0.0476663816666667, 229.498281511269, -0.000334921733564866, 0.94875,222.701812744141
0.0483327633333333, 229.508672497603, -0.000158268106684085, 0.96125,215.038558959961
0.0490001733333333, 229.51895399693, 0.000144635678737473, 0.973750000000001,212.790084838867
0.0496660083333333, 229.529340716281, 0.000193815208530622, 0.9875,212.401718139648
0.0503327883333333, 229.540221066788, 0.000350491338862502, 1.00375,212.401718139648
0.0511666416666667, 229.550703351366, 0.00023590309451243, 1.01875,216.19841003418
0.0518326633333333, 229.561588915292, 0.000135859619587479, 1.0325,216.19841003418
0.0524997333333333, 229.572153904767, -0.000222917859407944, 1.045,214.346435546875
0.05316635, 229.582532824095, -0.000172967368407758, 1.0575,225.945129394531
0.053832965, 229.592424391117, -0.000296285174293831, 1.07125,212.885818481445
0.0544995833333333, 229.602324067866, -0.000219375037393588, 1.08375,219.654251098633
0.0551662283333333, 229.61212163288, -0.000145260760091116, 1.0975,219.654251098633
0.055832975, 229.62207986801, -0.000121713442846092, 1.11,213.050689697266
0.05649936, 229.631962688059, -0.0002226463730697, 1.12375,212.061889648438
0.0571660833333333, 229.641734066736, -0.000401594884670039, 1.1375,211.413146972656
0.0578330966666667, 229.651295939913, -0.000498307026921493, 1.15,208.968109130859
0.05849943, 229.660303173845, -0.000370763933226295, 1.16375,208.968109130859
0.059166, 229.669495065622, -0.000358428552829747, 1.17625,213.771545410156
0.05983291, 229.678123869683, -0.000316676649978031, 1.19,207.36149597168
0.0604994133333333, 229.687036967784, 8.22373129892413E-05, 1.2025,210.999389648438
0.0611661583333333, 229.695727552984, 0.000121908820311065, 1.21625,206.418411254883
0.0618328066666667, 229.704727873207, -0.000120122022777933, 1.23,206.418411254883
0.062499655, 229.713229710066, -0.000171297952249375, 1.2425,209.590606689453
0.0631665983333333, 229.721945122463, -0.000537570554763123, 1.25625,247.403442382813
0.063832925, 229.730510109684, -0.000583705237486306, 1.27,205.19660949707
0.064499945, 229.739471983063, -0.000644603678576231, 1.2825,201.928100585938
0.065166595, 229.747885945265, -0.000657461032750129, 1.2975,201.928100585938
0.0658329933333333, 229.755687741513, -0.000497104087316286, 1.30875,205.213531494141
0.0664996716666667, 229.763452492072, -0.000140239012253828, 1.3225,207.968826293945
0.0671667933333333, 229.770801467247, -0.000212764869358201, 1.33625,201.297286987305
0.0678330683333333, 229.777819325991, -0.000238152594186087, 1.35,199.619827270508
0.0684997, 229.784786762427, -0.000164735781858655, 1.365,199.619827270508
0.0691660916666667, 229.792063239114, -0.00013503427372436, 1.37625,201.254150390625
0.0698328216666667, 229.79905009665, -7.9201585360178E-06, 1.39,202.182235717773
0.0704995983333333, 229.806151021375, 3.73040699256089E-05, 1.40375,211.100952148438
0.071166355, 229.813284569506, 0.000329217907416645, 1.4175,211.100952148438
0.0718327733333333, 229.820525419343, 0.000236747552142751, 1.43,200.474945068359
0.0724995483333333, 229.827818549036, 0.000297891980898573, 1.44375,201.128158569336
0.0731659983333333, 229.835607378464, -9.09979855813999E-05, 1.45625,204.478424072266
0.0738329733333333, 229.843040017008, -3.82936328454805E-05, 1.47125,198.688705444336
0.0744996866666667, 229.851019385947, -0.000181608434318951, 1.48375,198.688705444336
0.0751660983333333, 229.859204778447, -0.000289935993168374, 1.4975,206.329605102539
0.0758327516666667, 229.86833209478, -0.000210129501756595, 1.51125,202.360809326172
0.0764997133333333, 229.877185552733, -0.000180477491127608, 1.52375,195.753677368164
0.0771659916666667, 229.887053294341, -8.15514600956247E-05, 1.5375,191.309951782227
0.0778326766666667, 229.896408370716, 6.94879533723776E-05, 1.55125,205.197784423828
0.0785002466666667, 229.906367932907, 0.000177877009122334, 1.565,205.197784423828
0.079166205, 229.915305439478, 0.000126249602277986, 1.5775,200.13850402832
0.0798328083333333, 229.925245467805, 0.000447879947126096, 1.59125,240.224945068359
0.0804992816666667, 229.934002762673, 0.000299351407576738, 1.605,197.159774780273
0.0811661016666667, 229.943505623917, -0.000152385402154312, 1.6175,201.787780761719
0.08183282, 229.952312071151, -7.99330413669521E-05, 1.63125,201.787780761719
0.08249933, 229.961996640798, -3.21319423979548E-05, 1.64375,200.464477539063
0.0831661183333333, 229.97081238883, -0.000147663639367708, 1.6575,200.21760559082
0.0838327366666667, 229.980064526179, -0.000181792925105568, 1.67125,198.293334960938
0.0844993966666667, 229.988874279586, -7.64682154640742E-05, 1.685,209.365173339844
0.085166095, 229.997431939748, -5.80626399660909E-05, 1.6975,209.365173339844
0.08583278, 230.005696269933, -0.000487453572090413, 1.71125,210.635131835938
0.0864996766666667, 230.014343537006, -0.000216385687547797, 1.72375,205.304306030273
0.08716598, 230.022827259174, -7.88440961014083E-05, 1.7375,202.254669189453
0.087832885, 230.031179973557, -0.000172995866950166, 1.75125,205.665161132813
0.088500345, 230.039550673962, -0.000231204943138714, 1.765,205.665161132813
0.0891660233333333, 230.047275585632, 0.000383116200147591, 1.77625,204.241271972656
0.0898327783333333, 230.055594477303, -0.000229592524128908, 1.79,208.456436157227
0.0904993416666667, 230.06370456569, -0.000323562804124872, 1.80375,211.537155151367
0.0911662066666667, 230.071804463806, -0.000413876267724307, 1.8175,215.497894287109
0.091832965, 230.080162100155, -0.000428682024080611, 1.83,215.497894287109
0.092499365, 230.088274928155, -0.000735805097613682, 1.8425,208.544067382813
0.0931672766666667, 230.096193157223, -0.000787655993194115, 1.85625,211.086441040039
0.0938330416666667, 230.104211456314, -0.000932194733129422, 1.87,215.082138061523
0.0944993283333333, 230.112115774971, -0.000802707737152553, 1.88375,213.103729248047
0.09516623, 230.119968003862, -0.000751912788500792, 1.895,213.103729248047
0.09583325, 230.12800591339, -0.000579253461007272, 1.90875,250.942031860352
0.0964993633333333, 230.135620999459, -0.000286453168023878, 1.9225,216.218627929688
0.0971660466666667, 230.143610374627, -0.000447845061487256, 1.93625,208.182373046875
0.097833015, 230.151778295226, -0.000703486220864349, 1.94875,203.276779174805
0.0985004583333333, 230.160033222062, -0.0009501698302174, 1.9625,203.276779174805
0.0991667133333333, 230.168570796811, -0.00144870428932163, 1.97625,209.883895874023
0.0998328066666667, 230.177088870517, -0.00163212257643008, 1.98875,206.186981201172
0.100499705, 230.185127486063, -0.00161942271433978, 2.0025,214.145126342773
0.101166366666667, 230.193387691823, -0.0014466223939311, 2.01625,201.271179199219
0.101832781666667, 230.201490431047, -0.00112712044217253, 2.02875,201.271179199219
0.102499583333333, 230.209469770628, -0.000668701468077249, 2.0425,207.340637207031
0.103166335, 230.217373866763, -0.000410786422879735, 2.055,211.841827392578
0.103832993333333, 230.225901829673, -2.27079156507038E-05, 2.0675,207.970428466797
0.104499573333333, 230.234318600335, 4.01944248032934E-05, 2.08125,209.62712097168
0.105166213333333, 230.242369285558, -9.87735949631343E-05, 2.095,209.62712097168
0.10583281, 230.250536415097, -1.69242062165614E-05, 2.1075,210.402206420898
0.106499545, 230.258359234909, -9.72601710489603E-05, 2.1225,210.630401611328
0.10716603, 230.266637745263, -0.00024515424246947, 2.135,206.666275024414
0.107832985, 230.274428730409, -0.000307717599965823, 2.14875,188.222854614258
0.108499506666667, 230.282727519683, -0.000392937319462885, 2.1625,188.222854614258
0.109166105, 230.291265829852, -0.000656315090250991, 2.175,187.503005981445
0.109832981666667, 230.299510521877, -0.000611921820078802, 2.18875,189.982971191406
0.110499323333333, 230.307525420294, -0.000883294189339042, 2.2025,187.053359985352
0.11116607, 230.315637201547, -0.000752850241422861, 2.215,181.978912353516
0.111832856666667, 230.323714694891, -0.000458037049592737, 2.2275,181.978912353516
0.112499686666667, 230.331773626921, -0.000513930242120081, 2.2425,234.545684814453
0.113165991666667, 230.340358098053, -0.000411137405275114, 2.255,185.835174560547
0.113832766666667, 230.348719550237, -0.00033176289217649, 2.26875,187.125457763672
0.114499683333333, 230.357595785424, -0.000600391899214327, 2.2825,186.263488769531
0.115166205, 230.366026368395, -0.000829707880926482, 2.29625,186.263488769531
0.11583276, 230.374348703236, -0.000754149176189877, 2.30875,188.036071777344
0.116500046666667, 230.383040524831, -0.000959155878911375, 2.3225,192.016372680664
0.117166235, 230.391303748875, -0.000873823665084068, 2.33625,191.355941772461
0.117832815, 230.399231394047, -0.000414015760757572, 2.34875,191.403167724609
0.118499595, 230.407665535426, -0.000420172951453142, 2.3625,191.403167724609
0.119166231666667, 230.415885613626, -0.0005296314534514, 2.37625,187.650527954102
0.119832973333333, 230.423536167353, -0.000468361030981943, 2.38875,191.061050415039
0.120499601666667, 230.431374244768, -0.000300195477786985, 2.4025,187.951477050781
0.121166528333333, 230.439838273395, -0.000606843075220461, 2.41625,183.775909423828
0.121832795, 230.447929467558, -0.000601434346887133, 2.42875,183.775909423828
0.122499665, 230.456209314284, -0.000409803972225569, 2.44125,192.768737792969
0.123166585, 230.464669925395, -0.000189283548744413, 2.455,181.529266357422
0.123832805, 230.472713116687, 7.03579097600623E-05, 2.46875,184.856216430664
0.124499751666667, 230.480821276256, -4.91730922181845E-06, 2.4825,184.411651611328
0.125167045, 230.489465466399, -0.00015635570264485, 2.49625,184.411651611328
0.12583263, 230.497438914996, -0.000213036355653937, 2.50875,180.288024902344
0.126500046666667, 230.505685903242, -0.000304341269475213, 2.5225,180.380142211914
0.127166738333333, 230.514641761559, -0.000509002989520199, 2.535,177.051177978516
0.127832975, 230.523073661109, -0.00078450165153644, 2.54875,172.622344970703
0.128499355, 230.531190110618, -0.00043948898114892, 2.56125,172.622344970703
0.12916651, 230.539940408455, -0.000299418516776065, 2.575,209.570068359375
0.12983287, 230.548494503739, -0.000445754166486541, 2.5875,166.463485717773
0.130499446666667, 230.556797123251, -0.000454038250411012, 2.60125,165.534530639648
0.131166336666667, 230.564535814365, 0.000113621736644057, 2.615,169.675369262695
0.13183274, 230.572549283854, 0.000145501135373202, 2.6275,169.675369262695
0.132499351666667, 230.580390898113, 0.00029777198698882, 2.64125,167.576736450195
0.133166876666667, 230.588829848501, 0.000314235160044519, 2.655,160.740234375
0.133832721666667, 230.596929476424, 0.000634182589457125, 2.6675,166.044738769531
0.134499435, 230.605941447689, 0.000627203439997282, 2.68125,162.7666015625
0.135166348333333, 230.615097294911, 0.000628563871686086, 2.69375,162.7666015625
0.135832668333333, 230.624777923682, 0.0003648801162347, 2.70625,161.784439086914
0.13649954, 230.634161825539, 0.000603495630819856, 2.72,161.027374267578
0.1371666, 230.643882957185, 0.000591127252043928, 2.73375,165.397003173828
0.137832738333333, 230.65372079019, 0.000549688833435002, 2.7475,160.647384643555
0.138499486666667, 230.663677019963, 0.000625051048032271, 2.76125,160.647384643555
0.13916605, 230.673734835318, 0.000644806555726982, 2.7725,168.314956665039
0.139832743333333, 230.683584529463, 0.000706409961477725, 2.78625,174.701599121094
0.140499411666667, 230.694200098654, 0.000389234392851184, 2.79875,165.727981567383
0.141165998333333, 230.704360929119, 0.000722921132135582, 2.8125,159.586822509766
0.14183268, 230.714575444748, 0.000450905295200074, 2.825,159.586822509766
0.142499725, 230.724468249797, 0.000596891462460829, 2.8375,168.774917602539
0.143166253333333, 230.734099662985, 0.000301893779886596, 2.85125,159.939376831055
0.14383283, 230.743544326935, 0.000451373271677653, 2.865,162.288299560547
0.14449936, 230.75304436058, 1.50301887327466E-05, 2.87875,165.219177246094
0.145166338333333, 230.762109902491, 0.000368890914684126, 2.89125,165.219177246094
0.14583298, 230.771924351319, 0.000434776605307556, 2.905,189.468017578125
0.146499993333333, 230.781930616014, 0.000697620402923085, 2.91875,168.015701293945
0.147166191666667, 230.791759784806, 0.000811529181390956, 2.93125,174.053756713867
0.147832776666667, 230.802330344032, 0.00102962872648143, 2.94625,174.329971313477
0.148499683333333, 230.813246024383, 0.0007770159149421, 2.95875,174.329971313477
0.149166368333333, 230.824217281838, 0.000591590728642027, 2.9725,169.615310668945
0.149832753333333, 230.835491552045, 0.00034539009507435, 2.985,170.391082763672
0.150500221666667, 230.846731878812, 0.00015720204757714, 2.99875,166.268676757813
0.151166225, 230.857969609063, -8.87031008618416E-05, 3.0125,163.568389892578
0.151832863333333, 230.869532934865, 2.02019289465976E-05, 3.02625,163.568389892578
0.152499663333333, 230.880504642351, 0.000218481469614271, 3.03875,163.601409912109
0.153166361666667, 230.89241505691, 0.000193390729881992, 3.0525,160.299285888672
0.153833036666667, 230.903586852677, 0.000302106769173112, 3.06625,163.722915649414
0.154499618333333, 230.91481866766, 0.000453794150068339, 3.07875,164.542846679688
0.155166228333333, 230.926063648738, 0.000279564401448305, 3.0925,164.542846679688
0.155832673333333, 230.937895801868, 0.000120531889475079, 3.10625,156.425323486328
0.156499326666667, 230.948668279945, 0.000410524323444222, 3.11875,160.18489074707
0.157166351666667, 230.960331785821, 0.000357134505170998, 3.1325,157.660415649414
0.15783301, 230.971719635912, 0.000334721130966124, 3.14625,155.529052734375
