Time (min), Depth (µm), Load (N), Position (µm), Acoustic (aJ)
8.845E-06, 228.87591462652, -0.000496132811652593, 0,190.538833618164
0.000666161666666667, 228.875660442303, -0.000430122627282439, 0.00250000000000077,190.538833618164
0.00133278166666667, 228.875063363368, 6.6578923903457E-05, 0.0149999999999994,190.922912597656
0.00199935666666667, 228.875067388414, 9.62864317353651E-05, 0.0337500000000008,199.389862060547
0.00266605666666667, 228.876110752202, 0.000123208579482833, 0.0487500000000002,202.276412963867
0.00333287, 228.877775778877, 0.000385642897672511, 0.0625000000000001,202.276412963867
0.00399934166666667, 228.880528445212, 0.000128719302654329, 0.0762499999999999,207.342681884766
0.00466603, 228.885312758647, 8.68279068331098E-05, 0.0912499999999993,166.655853271484
0.00533310333333333, 228.891577811256, 0.000144314019395525, 0.104999999999999,215.643997192383
0.00599935666666667, 228.899047071172, 5.58439631639965E-05, 0.1175,206.455261230469
0.00666628166666667, 228.908593252538, 9.59114506132966E-05, 0.131249999999999,202.065399169922
0.007333, 228.919229654144, 0.000133889543028793, 0.14375,202.065399169922
0.00799959666666667, 228.930332874798, 0.000110172734326202, 0.1575,203.439041137695
0.00866619, 228.942048686311, 0.000108986293931938, 0.17125,204.824615478516
0.00933296833333333, 228.95325781981, 0.000360336168889925, 0.18375,203.459442138672
0.00999949666666667, 228.965030785031, 5.14926817900145E-05, 0.198749999999999,198.548934936523
0.0108328633333333, 228.976328195348, 0.000354528460580314, 0.21375,236.271347045898
0.0114993716666667, 228.987511878632, 0.000466008861014229, 0.226250000000001,236.271347045898
0.01216615, 228.998822961152, 0.000540084140282217, 0.240000000000001,200.609222412109
0.0128329516666667, 229.010016135177, 0.000392379059379025, 0.252499999999999,203.662948608398
0.0134995583333333, 229.02101724194, 0.000463505486738856, 0.266249999999999,201.465209960938
0.014166025, 229.032649066522, 0.000229767727142004, 0.280000000000001,201.001312255859
0.0148328683333333, 229.043527196296, 0.000221299152537185, 0.29125,201.001312255859
0.015499365, 229.053292827044, 0.000165941433106821, 0.306249999999999,201.863708496094
0.0161660233333333, 229.063152809677, 0.00034291004413354, 0.320000000000001,215.537734985352
0.016832845, 229.073315563714, 0.000239916217376028, 0.332499999999999,214.155059814453
0.0174995133333333, 229.083455527808, 0.000346848846296626, 0.346249999999999,214.38639831543
0.0181660533333333, 229.094029141594, 0.000605518353575249, 0.35875,214.38639831543
0.01883271, 229.105597246069, 0.000730843058652947, 0.37125,217.59521484375
0.0194993783333333, 229.117157566894, 0.000829970079618729, 0.385,222.234069824219
0.0201660016666667, 229.127970449862, 0.00100122547765826, 0.39875,216.561538696289
0.0208328333333333, 229.139341883513, 0.00106003002396242, 0.4125,216.561538696289
0.0214993666666667, 229.150514248664, 0.000686134804313565, 0.425,225.701431274414
0.0221660216666667, 229.162165085055, 0.000655798828050422, 0.43875,178.519165039063
0.02283297, 229.17328767775, 0.000759415123520302, 0.4525,224.14421081543
0.0234993833333333, 229.185271354485, 0.000854279358566877, 0.46625,217.769195556641
0.0241665133333333, 229.196790513376, 0.00112728064596285, 0.47875,221.457809448242
0.0248330516666667, 229.209140505979, 0.00114714714812716, 0.4925,221.457809448242
0.0254993716666667, 229.220813977755, 0.00106847609967994, 0.505,217.289154052734
0.0261660283333333, 229.233191406431, 0.000870150061377019, 0.51875,222.760818481445
0.0268328783333333, 229.245239989391, 0.000511789561450718, 0.5325,272.827362060547
0.0274995766666667, 229.257586599057, 0.000434070965190849, 0.545,272.827362060547
0.0281660166666667, 229.269093886831, 0.0006396896371964, 0.55875,226.723358154297
0.0288328716666667, 229.281060026901, 0.000480976609206085, 0.5725,220.16780090332
0.0294996383333333, 229.293409548866, 0.000506776813308629, 0.585,217.202331542969
0.0301660166666667, 229.304878501746, 0.000832569449055911, 0.59875,221.927352905273
0.0308327083333333, 229.316668576258, 0.000619047674009331, 0.61375,212.992782592773
0.03166618, 229.333755860412, 0.00082568779468228, 0.628750000000001,219.997741699219
0.0323334066666667, 229.34515434322, 0.00103436481305617, 0.642500000000001,219.997741699219
0.03299954, 229.356887428842, 0.000575971337675744, 0.656250000000001,218.828399658203
0.033666025, 229.368717270021, 0.000557070787039669, 0.67,214.119552612305
0.0343329566666667, 229.380645621294, 0.000497901759041749, 0.682500000000001,218.934005737305
0.034999515, 229.392331627513, 0.00033999719041106, 0.696250000000001,219.386337280273
0.0356662133333333, 229.403814198534, 0.000169554751525621, 0.708749999999999,219.386337280273
0.03633299, 229.414857145367, 0.000116967392956918, 0.722499999999999,215.082458496094
0.03699959, 229.425397906205, 4.63584395799743E-05, 0.736250000000001,219.548751831055
0.0376660166666667, 229.436086645174, 8.50714950593375E-05, 0.750000000000001,216.45524597168
0.0383329166666667, 229.446902015023, 0.000100678211131997, 0.762499999999999,216.45524597168
0.0389997166666667, 229.457399641495, 6.17986640013645E-05, 0.7775,226.248123168945
0.039666025, 229.467549268066, 0.000374366464053441, 0.78875,176.249267578125
0.0403329033333333, 229.477546348734, 0.000421039619701156, 0.802499999999999,221.670913696289
0.04099937, 229.487617705605, 0.000600649598069602, 0.816249999999999,224.237915039063
0.0416661033333333, 229.497378365592, 0.000345954891139743, 0.829999999999999,223.256820678711
0.042332715, 229.507676623516, 0.000366481360147761, 0.842499999999999,223.256820678711
0.042999355, 229.516647575711, 0.00058253650791527, 0.856249999999999,226.450500488281
0.0436660216666667, 229.526836648937, 0.000585836342155044, 0.869999999999999,269.086547851563
0.0443329266666667, 229.536773229161, 9.44160257069452E-05, 0.8825,223.896255493164
0.0449995083333333, 229.546613146492, 0.000166040428074928, 0.895,224.672271728516
0.045666085, 229.555943450018, 0.000387970780771449, 0.90875,224.672271728516
0.0463329666666667, 229.566836140689, 0.000211756631825839, 0.9225,222.055679321289
0.0469995983333333, 229.576879714476, 0.000371777594150845, 0.93625,220.966247558594
0.0476660033333333, 229.587173373014, 0.000756626763587056, 0.94875,219.270355224609
0.0483334833333333, 229.596965321173, 0.000988477617965798, 0.96125,219.270355224609
0.048999365, 229.607370017552, 0.000906568232200586, 0.973750000000001,221.426162719727
0.0496660283333333, 229.617243499347, 0.000655344350934981, 0.9875,220.631851196289
0.0503332116666667, 229.626525262055, 0.000533118490184512, 1.0025,221.204437255859
0.0509995983333333, 229.63564781933, 0.000344423468153984, 1.015,222.733047485352
0.05166601, 229.645070950208, -0.000258526746318354, 1.03,222.733047485352
0.0524993966666667, 229.653691977903, -0.000362134042263068, 1.04375,229.056640625
0.0531659933333333, 229.662398143144, -0.000447595249674071, 1.0575,229.056640625
0.0538328616666667, 229.670861450033, -0.000521820521403639, 1.07125,219.571884155273
0.054499595, 229.679745103041, -0.000367256285035374, 1.085,219.34928894043
0.055166265, 229.688230609944, -0.000210557655816191, 1.0975,226.847900390625
0.055832695, 229.697077686315, -0.000436360813959547, 1.11,218.547164916992
0.056499715, 229.705752066677, -0.00043524636993664, 1.12375,218.547164916992
0.057166115, 229.714508584437, -0.000286933819543859, 1.13625,222.682556152344
0.05783277, 229.722324216785, -0.000426515308497489, 1.15,225.441177368164
0.058499475, 229.731032507068, -0.000444508404720814, 1.16375,230.496780395508
0.0591661016666667, 229.738937626054, -0.000401184580839435, 1.17625,223.891326904297
0.0598327316666667, 229.747579667563, -0.000307046309289053, 1.18875,223.891326904297
0.06049938, 229.755737721726, -0.00052278197311616, 1.2025,269.345855712891
0.0611660716666667, 229.763981455062, -0.000549983106823888, 1.21625,216.888549804688
0.061832715, 229.771516774816, -0.000359042697536601, 1.22875,218.570129394531
0.0624994483333333, 229.779155574617, -0.000179417719924123, 1.2425,215.840789794922
0.0631660316666667, 229.78624265337, -0.000131586622445806, 1.255,215.840789794922
0.0638327216666667, 229.7943614728, 2.19801640880216E-05, 1.26875,217.210189819336
0.0644993733333333, 229.802766650758, -3.95527451732602E-05, 1.2825,220.144256591797
0.0651660433333333, 229.811608817802, 0.000130181729202554, 1.29625,221.704360961914
0.0658328466666667, 229.820615611196, -0.000189369720061321, 1.31,221.969161987305
0.066499555, 229.829085909178, -0.000292848022443593, 1.3225,221.969161987305
0.067166015, 229.837500196228, -0.000470716588303553, 1.33625,212.480316162109
0.067832705, 229.845301440037, -0.000572033499301919, 1.35,216.2197265625
0.0684994716666667, 229.853595127704, -0.000894716791187386, 1.36375,216.876174926758
0.0691661816666667, 229.862156330145, -0.000607976193898367, 1.37625,211.049011230469
0.0698327433333333, 229.871534830695, -0.000599344127491085, 1.39,211.049011230469
0.0704993866666667, 229.880606721495, -0.000560491578999711, 1.40375,218.632293701172
0.0711660833333333, 229.890220571091, -0.000296308348637023, 1.41625,218.502716064453
0.0718329683333333, 229.899748330005, 9.57164603346025E-05, 1.43,214.199462890625
0.0724996, 229.909187916375, 0.000318347277833716, 1.4425,211.555541992188
0.073166135, 229.918751599238, 0.000520039147071407, 1.4575,211.555541992188
0.073832735, 229.928329032031, 0.000788099682632885, 1.47,215.355239868164
0.0744993533333333, 229.937482883507, 0.000872395448548761, 1.48375,217.452667236328
0.07516603, 229.946223644382, 0.000564049936414495, 1.4975,214.551147460938
0.0758330116666667, 229.955286517957, 0.000289613221109555, 1.51,213.02473449707
0.0764994716666667, 229.963750994705, 0.000275518429069174, 1.52375,213.02473449707
0.0771660433333333, 229.972916291514, 7.50984959804942E-05, 1.5375,257.810516357422
0.0778328866666667, 229.981892478695, -0.000149194238012478, 1.55125,216.417144775391
0.0784994866666667, 229.991171999187, 0.000159086777351195, 1.565,215.608779907227
0.079166025, 230.000463139602, 0.000190475700736712, 1.5775,215.608779907227
0.07983312, 230.00975145768, 0.000129778249516824, 1.59125,211.605545043945
0.0804994566666667, 230.018481266045, -5.81668102058045E-05, 1.60375,215.060394287109
0.0811660816666667, 230.028041820535, -3.47259876146667E-05, 1.6175,214.560455322266
0.0818327933333333, 230.036191015914, -7.74438419308593E-05, 1.6325,216.943862915039
0.08249949, 230.044410667674, -0.000166155386055075, 1.64375,221.094329833984
0.0831663816666667, 230.052562157497, -0.000223971482007461, 1.6575,221.094329833984
0.083832715, 230.061017301875, -0.000165643911748547, 1.67125,213.584625244141
0.0844993833333333, 230.069268080952, -0.000296269350581284, 1.685,215.863983154297
0.0851660533333333, 230.078481521794, -0.000576375781150736, 1.6975,214.186019897461
0.0858330333333333, 230.086988443306, -0.000689957576034935, 1.71,218.654067993164
0.0864994183333333, 230.095528178931, -0.000685390305440613, 1.72375,218.654067993164
0.08716604, 230.103627510384, -0.000802130941670679, 1.7375,221.291198730469
0.08783287, 230.111830986797, -0.000929990519414965, 1.75125,221.300796508789
0.088499355, 230.119341541439, -0.000827125686219896, 1.76375,221.755355834961
0.0891660066666667, 230.12732896985, -0.000676162768960222, 1.77625,222.332916259766
0.089832835, 230.135353475958, -0.00082495529528957, 1.79,222.332916259766
0.0904996483333333, 230.143305968767, -0.000676680242985616, 1.80375,216.587951660156
0.09116603, 230.151206529288, -0.000483615940445759, 1.8175,217.106094360352
0.091833125, 230.159629012182, -0.000484950873377199, 1.83,219.626342773438
0.0924995033333333, 230.167789114267, -0.000574701865282905, 1.8425,217.295303344727
0.09316608, 230.176170802212, -0.000738006162657994, 1.85625,217.295303344727
0.09383269, 230.184306065184, -0.000931337451826648, 1.87,267.52392578125
0.094499355, 230.19207530029, -0.000945795225615125, 1.8825,215.987258911133
0.09516603, 230.199719731545, -0.00109903652846843, 1.89625,224.890609741211
0.0958329566666667, 230.206993185044, -0.000853827345080085, 1.90875,220.437057495117
0.0964994633333333, 230.214177871102, -0.000578693164800105, 1.9225,220.437057495117
0.097166235, 230.221941622527, -0.00052589881659999, 1.93625,222.650283813477
0.0978329666666667, 230.229343356512, -0.000448372210684992, 1.95,219.70036315918
0.098499415, 230.237362203451, -0.000408913692649685, 1.9625,215.866195678711
0.0991660333333333, 230.24529507409, -0.00113088292890321, 1.975,222.588134765625
0.099832875, 230.253057575577, -0.00119828804318094, 1.98875,222.588134765625
0.100499363333333, 230.260175686073, -0.0012158011635102, 2.00125,212.426620483398
0.101166736666667, 230.267893024108, -0.00139318375379974, 2.015,220.06689453125
0.101832965, 230.275208593378, -0.00125927647982007, 2.0275,220.53271484375
0.102499481666667, 230.282620040087, -0.00112371928872051, 2.04125,226.078674316406
0.103166113333333, 230.290491242864, -0.00126062791191995, 2.055,226.078674316406
0.103832703333333, 230.298340964492, -0.00111436725842964, 2.0675,215.872711181641
0.10449959, 230.305715272944, -0.000791394481049324, 2.08125,220.821594238281
0.105166006666667, 230.313609928729, -0.000852376917948339, 2.095,217.235305786133
0.105832936666667, 230.32196514689, -0.00040516988070153, 2.1075,219.707290649414
0.106499503333333, 230.329621114492, -0.000342498528626889, 2.12125,219.707290649414
0.107166191666667, 230.338390176132, -0.000297695779007594, 2.135,221.305953979492
0.107832971666667, 230.347448057941, -0.000605507317948031, 2.1475,219.868957519531
0.108499348333333, 230.35566486456, -0.00051806621002717, 2.16125,213.338760375977
0.109166023333333, 230.36402677525, -0.000659219620052972, 2.17375,244.783004760742
0.109832948333333, 230.372300287542, -0.000811595466355564, 2.18875,244.783004760742
0.110500503333333, 230.38031190118, -0.00126415423478712, 2.20125,205.881332397461
0.111166076666667, 230.38779953914, -0.00165269771864493, 2.21625,198.911163330078
0.11183277, 230.395792318696, -0.00189235268103283, 2.2275,203.277130126953
0.112499366666667, 230.403373338392, -0.00202678642856306, 2.24125,203.294998168945
0.11316604, 230.411494004575, -0.00210534198285249, 2.255,203.294998168945
0.113832923333333, 230.41860522426, -0.00177446010269103, 2.26875,212.962020874023
0.11449938, 230.426390439566, -0.00139596611407789, 2.2825,208.111221313477
0.115166083333333, 230.433996697945, -0.0014343641853688, 2.295,208.022445678711
0.115832848333333, 230.441319263717, -0.00129106588310628, 2.30875,204.537628173828
0.116499316666667, 230.448006459869, -0.000808969098321632, 2.3225,204.537628173828
0.117166218333333, 230.455464146457, -0.00077587626053771, 2.33625,204.193740844727
0.117832883333333, 230.462875191437, -0.000703530394382982, 2.34875,212.493453979492
0.118499365, 230.4704264636, -0.000621274526016856, 2.3625,204.2822265625
0.119166033333333, 230.47818724827, -0.000708424648539722, 2.375,205.518905639648
0.119832946666667, 230.486432564135, -0.00103832257808011, 2.3875,205.518905639648
0.120499465, 230.494394456866, -0.00117661863165011, 2.4025,206.832580566406
0.121166086666667, 230.502601719187, -0.00127123837901896, 2.415,209.923645019531
0.121832973333333, 230.510033998373, -0.00100348082818694, 2.42875,199.663879394531
0.122499345, 230.518560529496, -0.0011608319245853, 2.44125,195.669586181641
0.123166165, 230.526936860554, -0.00111095043008641, 2.45375,195.669586181641
0.123832841666667, 230.535837100812, -0.001192807318455, 2.46875,197.780471801758
0.124499406666667, 230.544873960894, -0.00117645513978389, 2.4825,196.097793579102
0.125166021666667, 230.555447959822, -0.00108032946812288, 2.49625,201.146499633789
0.125832756666667, 230.565830640336, -0.00128615662968425, 2.50875,242.888824462891
0.126499368333333, 230.576655141385, -0.00100239938252215, 2.5225,242.888824462891
0.127166023333333, 230.587388358835, -0.000715462295072546, 2.53625,199.822860717773
0.12783287, 230.598846630711, -0.000549461133131555, 2.54875,201.2275390625
0.12849943, 230.609436173766, -0.000505972317523309, 2.56125,196.896133422852
0.129166041666667, 230.619839795679, 0.000120514714680721, 2.575,190.02375793457
0.12983295, 230.63160494456, -0.000137940303386982, 2.5875,190.02375793457
0.13049959, 230.642857908815, -9.15371341531077E-05, 2.60125,193.452590942383
0.13116608, 230.653692504617, -8.09791644932316E-05, 2.615,191.505508422852
0.13183284, 230.664916808624, -0.000313498985262097, 2.6275,197.990646362305
0.132499581666667, 230.676609888771, -0.000568459178875095, 2.64125,190.717422485352
0.133166025, 230.687182919611, -0.000549587126823936, 2.65375,190.717422485352
0.133832976666667, 230.698297724197, -0.000579830107774078, 2.6675,191.257293701172
0.134499715, 230.709027279419, -0.000702567442788566, 2.68125,195.419326782227
0.13516612, 230.720335999329, -0.000526305296240798, 2.69375,196.87483215332
0.135832753333333, 230.731142499135, -0.000426317318540022, 2.70625,194.042144775391
0.136499346666667, 230.741910495923, -0.0002337929888491, 2.72,194.042144775391
0.137166008333333, 230.752932020453, -0.000336774816168877, 2.7325,192.796630859375
0.137832798333333, 230.763856436651, -8.9134254897769E-05, 2.74625,192.00244140625
0.138499371666667, 230.774885630611, -7.14351439212447E-05, 2.76,191.946548461914
0.139166015, 230.786070808105, -0.000241174118091523, 2.7725,191.08903503418
0.139832936666667, 230.797001834538, -0.000170344675763538, 2.785,191.08903503418
0.140499438333333, 230.807907999964, 2.0271749788883E-05, 2.79875,190.226913452148
0.14116626, 230.819144866153, -0.000344226441879508, 2.8125,192.091751098633
0.141832901666667, 230.829589755904, -0.000347940255318343, 2.825,189.98583984375
0.142499745, 230.839919213015, 0.000110031741219754, 2.8375,224.048919677734
0.143166125, 230.850468443505, -2.00927227560244E-05, 2.85125,224.048919677734
0.143832823333333, 230.860385608803, -7.77498267216651E-05, 2.865,194.617691040039
0.144499488333333, 230.86983003166, 0.000249515735065919, 2.87875,192.470565795898
0.14516607, 230.87960317231, 8.53204824252618E-05, 2.89125,197.846221923828
0.145832733333333, 230.88942862471, 0.0001114821683515, 2.905,200.795059204102
0.146499598333333, 230.899303531507, 0.00030455997023224, 2.9175,200.795059204102
0.147166018333333, 230.909737621617, 0.000477676774775024, 2.93125,200.089538574219
0.147833031666667, 230.920915728432, 8.24091286909482E-05, 2.945,205.822219848633
0.148499465, 230.931785526937, 6.82108418454883E-05, 2.9575,209.864898681641
0.149166078333333, 230.943180498339, -1.8340810776716E-05, 2.97125,193.275527954102
0.149832671666667, 230.954301180322, -0.00014055917186266, 2.985,193.275527954102
0.150499605, 230.965625037043, -0.00011242358508167, 2.99875,200.742523193359
0.151166036666667, 230.976437175219, 0.000356968837796955, 3.01125,205.552841186523
0.151833266666667, 230.987350776262, 0.00056139056993742, 3.02625,203.487426757813
0.152499381666667, 230.998435631932, 0.000415899377793503, 3.03875,192.547119140625
0.153166275, 231.010281958314, 0.000313300031239064, 3.05125,192.547119140625
0.15383286, 231.021531654116, 5.16921715231066E-05, 3.065,193.105377197266
0.154499361666667, 231.032932093355, -9.56874257845779E-05, 3.07875,191.415100097656
0.15516618, 231.043892778852, -0.000175117436107376, 3.0925,198.774780273438
0.155832805, 231.055265283911, -0.000197277323045591, 3.105,196.177749633789
0.156499556666667, 231.065763282609, -0.000121201144241084, 3.11875,196.177749633789
0.15716598, 231.076696129758, -7.19001205287628E-05, 3.1325,194.109939575195
0.157832726666667, 231.088006218805, -0.000326593327534218, 3.14625,196.823822021484
