Time (min), Depth (µm), Load (N), Position (µm), Acoustic (aJ)
8.19333333333333E-06, 228.951814478777, -0.000452232013414678, 0,149.444274902344
0.000664813333333333, 228.952365026679, -0.000460862579876302, 0.00250000000000077,151.825134277344
0.001331475, 228.952748074179, -0.000688698135947392, 0.0137499999999999,151.825134277344
0.00199783166666667, 228.953328772424, -0.000876467704493585, 0.0324999999999995,158.739501953125
0.00266442833333333, 228.954552512936, -0.000552560474018756, 0.0475000000000007,173.568176269531
0.00333116666666667, 228.956364165284, -0.000808110138049759, 0.0625000000000001,171.632171630859
0.00416465333333333, 228.958871588514, -0.000866110724746254, 0.0800000000000002,178.469482421875
0.00483121333333333, 228.963213197282, -0.000653479904965243, 0.0937500000000001,179.272064208984
0.00549809, 228.969426787536, -0.000883910330679051, 0.1075,179.272064208984
0.00616453333333333, 228.977824256824, -0.00118777556781313, 0.12125,208.10188293457
0.00683117833333333, 228.987590359819, -0.0013054041594387, 0.136249999999999,173.509216308594
0.007664695, 229.004412134919, -0.00156091632533837, 0.150000000000001,169.556198120117
0.008331165, 229.015650428, -0.00153180878737404, 0.163750000000001,163.038238525391
0.00899819833333333, 229.02703795188, -0.00129584963937464, 0.176249999999999,169.360290527344
0.00966452666666667, 229.038120602751, -0.00114877902657904, 0.189999999999999,169.360290527344
0.0103311833333333, 229.049461422868, -0.000908828579041192, 0.2025,167.174880981445
0.0109977683333333, 229.061136500895, -0.00107109792838675, 0.217500000000001,173.518310546875
0.0116646116666667, 229.072656207208, -0.00088070499161292, 0.22875,167.330596923828
0.0123316216666667, 229.083974464808, -0.00070176997933221, 0.2425,166.094818115234
0.0129987883333333, 229.0956819377, -0.000835570758657997, 0.25625,166.094818115234
0.013664795, 229.106809747854, -0.000697435197020393, 0.26875,173.111923217773
0.0143311583333333, 229.117703694081, -0.000355926350719014, 0.28125,170.034042358398
0.014997845, 229.126946839995, -0.000470861077670001, 0.292499999999999,132.67626953125
0.0156648383333333, 229.136911821515, -0.000722936916187944, 0.307500000000001,183.902679443359
0.0163311283333333, 229.146539183286, -0.000570523571754016, 0.3225,183.902679443359
0.01699803, 229.156931408022, -0.000685444799385373, 0.337499999999999,184.596115112305
0.01783144, 229.16718036945, -0.00103571920542969, 0.351249999999999,191.419876098633
0.01849788, 229.179384415977, -0.00121519269069869, 0.365000000000001,160.080276489258
0.0191646716666667, 229.190859989567, -0.000839163078241422, 0.377499999999999,191.963577270508
0.0198313633333333, 229.202453228098, -0.000692914424188843, 0.391249999999999,190.545318603516
0.02049801, 229.213995103868, -0.000578287181804287, 0.404999999999999,190.545318603516
0.02116474, 229.22645471425, -0.000230096171096165, 0.418750000000001,202.935806274414
0.02183152, 229.23910793413, -0.000104259991690685, 0.432500000000001,201.398849487305
0.0224979316666667, 229.251992852435, -0.000357246284427676, 0.444999999999999,201.425765991211
0.02316445, 229.264805274372, -0.0007798125593482, 0.458750000000001,198.741333007813
0.0238312033333333, 229.277694864482, -0.00115303581271562, 0.472500000000001,198.741333007813
0.0244981316666667, 229.289918521278, -0.00123428373171272, 0.484999999999999,197.702545166016
0.0251644766666667, 229.301808334691, -0.00127663560438951, 0.498749999999999,199.272979736328
0.0258312216666667, 229.313949493649, -0.00106026397255165, 0.51125,195.998580932617
0.0264977733333333, 229.326215853048, -0.0011815328813203, 0.524999999999999,199.043884277344
0.02716454, 229.343893226085, -0.00102985899976596, 0.5425,199.043884277344
0.0279979933333333, 229.35556623531, -0.00101132293080239, 0.555,194.371185302734
0.028664435, 229.367318649107, -0.000733964362228548, 0.5675,198.173263549805
0.0293311033333333, 229.379053442468, -0.000552621970855527, 0.58125,197.434677124023
0.02999788, 229.391141585148, -0.00029746978685515, 0.593750000000001,188.528594970703
0.03066447, 229.403212160508, -0.00034969566360016, 0.6075,191.593414306641
0.0313314283333333, 229.415740111983, -0.000538930658500877, 0.62125,191.593414306641
0.031997965, 229.427641394821, -0.000336838309383753, 0.633750000000001,186.749664306641
0.0326644883333333, 229.439512262834, -0.000273575986966704, 0.64875,194.187210083008
0.03333307, 229.451300803624, -0.000128590269474209, 0.6625,191.234146118164
0.0339978566666667, 229.463435403856, 0.000190146720711172, 0.675,195.44157409668
0.0346647466666667, 229.474857038246, 0.000372162578226271, 0.68875,195.44157409668
0.0353311216666667, 229.486938241969, 0.0002338995230569, 0.7025,198.185653686523
0.035997895, 229.498677886826, 0.000160692700103415, 0.71625,189.758087158203
0.0366645766666667, 229.510762907533, 6.24446350292287E-05, 0.72875,194.720138549805
0.0373310833333333, 229.522444577661, -2.34050528659805E-05, 0.7425,190.467315673828
0.0379979783333333, 229.534280813905, -0.000103250542312244, 0.75625,190.467315673828
0.03866467, 229.545561132065, -0.000201317116533635, 0.76875,232.250244140625
0.0393316933333333, 229.557244910437, -0.00038599384038645, 0.7825,193.678604125977
0.0399977966666667, 229.567716304773, -0.000562593469988713, 0.795000000000001,196.623626708984
0.0406645683333333, 229.578392001494, -0.0005855828152282, 0.80875,194.284515380859
0.0413323983333333, 229.588750332826, -0.000438716192193954, 0.8225,194.284515380859
0.041997905, 229.598582750148, -0.000224387457669644, 0.83625,195.939865112305
0.042664655, 229.608516795902, -2.85458504625643E-06, 0.847499999999999,202.087554931641
0.04333111, 229.618439889187, 0.000261855118888245, 0.861249999999999,195.628890991211
0.04399853, 229.628237598248, 0.000484868417131443, 0.875000000000001,203.489486694336
0.0446648416666667, 229.638000999857, 0.000487859266901638, 0.888750000000001,203.489486694336
0.045331185, 229.648081922991, 0.000395001931025433, 0.901249999999999,195.906646728516
0.0459980266666667, 229.657801621164, 0.000430619141983865, 0.91375,201.147857666016
0.0466646966666667, 229.667821318574, 0.000204767986238351, 0.9275,197.950653076172
0.047331165, 229.67744269815, 0.000200913179863101, 0.941249999999999,198.976043701172
0.0479982583333333, 229.686965269795, 0.000352390571320617, 0.95375,198.976043701172
0.0486645916666667, 229.696167364175, 0.000314517473655857, 0.9675,194.631195068359
0.049331235, 229.705474032266, 1.19526711919425E-05, 0.98,196.033996582031
0.0499978416666667, 229.714171632931, -1.36405433004441E-05, 0.9925,199.095581054688
0.050664505, 229.72263043132, -0.000156028391301414, 1.00625,197.053314208984
0.0513319383333333, 229.73132674787, -0.000404910890212215, 1.02125,197.053314208984
0.0519980916666667, 229.73942328041, -0.00064394188394209, 1.03375,202.913101196289
0.05266452, 229.747395626058, -0.0005986846571861, 1.0475,201.684661865234
0.0533311433333333, 229.755420182679, -0.000792446424722251, 1.06,197.455200195313
0.0539978333333333, 229.76326665293, -0.00123823303336789, 1.07375,196.990158081055
0.0546646516666667, 229.770784363938, -0.00145200829563862, 1.08625,196.990158081055
0.055331285, 229.778339198353, -0.00139904445593843, 1.1,240.183135986328
0.0559985533333333, 229.78539989943, -0.0013822767981651, 1.1125,199.050735473633
0.0566645, 229.792227743841, -0.00126959195815907, 1.12625,204.990753173828
0.0573311633333333, 229.798566367097, -0.00097011700045471, 1.13875,207.180770874023
0.0579987816666667, 229.805065477715, -0.00084825112164604, 1.1525,207.180770874023
0.05866464, 229.811035040192, -0.000887994625402982, 1.16625,195.230911254883
0.0593311416666667, 229.816890340058, -0.000723023911697062, 1.17875,194.707260131836
0.0599978, 229.822818646711, -0.000576058293609693, 1.1925,191.504669189453
0.0606645766666667, 229.828466634216, -0.000248072767959767, 1.205,201.195220947266
0.0613313783333333, 229.83383504957, 0.000113143588497927, 1.21875,201.195220947266
0.0619978366666667, 229.840088692281, 0.000316515373386078, 1.2325,190.708404541016
0.0626645366666667, 229.845919353324, 0.000365423416755967, 1.245,195.178421020508
0.063332245, 229.851648486238, 0.00038512042739895, 1.25875,190.734909057617
0.0639979, 229.859226251125, 0.00043295302480167, 1.27125,189.055297851563
0.064664515, 229.86667485419, 3.28271227252784E-05, 1.285,189.055297851563
0.0653312466666667, 229.874295921985, -7.99852108337786E-05, 1.29875,197.432357788086
0.0659978533333333, 229.882287417996, -0.000358909700718414, 1.3125,192.384078979492
0.066664535, 229.891115976464, -0.00040293548939055, 1.325,192.376358032227
0.0673311966666667, 229.898037478379, -0.000564178890295498, 1.33875,186.871368408203
0.06799786, 229.905881108863, -0.000323734967543959, 1.3525,186.871368408203
0.068664585, 229.913766372108, -0.00039974964938417, 1.36625,192.252227783203
0.0693312233333333, 229.921377689493, -0.000266521841307953, 1.38,191.467575073242
0.06999786, 229.928422236004, -0.000266566839061305, 1.3925,188.275268554688
0.0706644633333333, 229.936408866011, -0.000212362561667078, 1.40625,191.948486328125
0.071332095, 229.94374747476, -0.000295467387372973, 1.42,191.948486328125
0.0719980733333333, 229.951181097325, -0.000344720413461882, 1.4325,229.676956176758
0.0726646033333333, 229.958815586887, -0.000274586936205787, 1.44625,191.766647338867
0.073331215, 229.966403263166, -0.000293740974087266, 1.45875,193.130432128906
0.0739980883333333, 229.973428873653, -0.000344624418236311, 1.4725,191.857574462891
0.0746645266666667, 229.980616753048, -0.000747696172393307, 1.48625,191.857574462891
0.0753312716666667, 229.987387134048, -0.000744036356232989, 1.5,187.11930847168
0.0759979983333333, 229.993789985195, -0.000879325060821857, 1.5125,188.907958984375
0.0766644716666667, 230.000318359274, -0.000745930761073116, 1.5275,188.742950439453
0.0773314283333333, 230.007030207034, -0.000886967177037972, 1.54,196.432342529297
0.0779978366666667, 230.013048844817, -0.000584036392934646, 1.55375,196.432342529297
0.0786645283333333, 230.01874768247, -0.000427004780455432, 1.5675,193.635711669922
0.0793311983333333, 230.025795980413, -0.000332205042136943, 1.58,188.96728515625
0.079997985, 230.031966411127, -0.00040617232686915, 1.59375,189.830062866211
0.0806644783333333, 230.038062905638, -0.000304046956468649, 1.60625,189.830062866211
0.0813311833333333, 230.04430750921, -0.000264892923108457, 1.62,194.483627319336
0.0819990783333333, 230.050591988757, -0.000534112900467449, 1.63375,189.688278198242
0.0826654533333333, 230.056316108136, -0.00067817166457246, 1.6475,190.639465332031
0.0833312116666667, 230.062882907265, -0.00109319181854495, 1.66125,188.078048706055
0.0839981166666667, 230.06939131177, -0.00134095087386517, 1.67375,190.781219482422
0.08466456, 230.075829466107, -0.00140970892020968, 1.6875,190.781219482422
0.08533126, 230.082062840486, -0.00113321730813221, 1.70125,192.203765869141
0.085997865, 230.088229547479, -0.00098225889056073, 1.71375,192.453247070313
0.08666452, 230.094312891198, -0.0009849662545762, 1.72625,191.392227172852
0.0873313883333333, 230.100570431467, -0.000936538187079117, 1.74,194.91291809082
0.0879986783333333, 230.106835679317, -0.000959802018569416, 1.75375,194.91291809082
0.0886644983333333, 230.11291814375, -0.00103640467090323, 1.7675,236.587600708008
0.0893312433333333, 230.118742463102, -0.00108738561018099, 1.77875,197.979431152344
0.0899978416666667, 230.124729825322, -0.000793205386534061, 1.7925,191.818649291992
0.0906645483333333, 230.130552570956, -0.000704882322915306, 1.80625,195.816802978516
0.09133144, 230.136934554136, -0.000923742329805752, 1.82,195.816802978516
0.091998715, 230.143065586523, -0.00104541021855068, 1.8325,201.784317016602
0.0926654283333333, 230.149578417904, -0.00128474419705253, 1.845,201.542449951172
0.093332445, 230.155566793385, -0.00122953197028928, 1.85875,204.09391784668
0.0939989716666667, 230.161086027523, -0.00109586918400859, 1.8725,198.451354980469
0.0946645116666667, 230.166651734103, -0.00114821205487831, 1.885,198.451354980469
0.0953318916666667, 230.173008514175, -0.00115568617943373, 1.89875,199.366424560547
0.0959978683333333, 230.178625523396, -0.00091937454913581, 1.91125,190.120239257813
0.0966648533333333, 230.185182176322, -0.00122851952110454, 1.925,191.51530456543
0.09733117, 230.191366266593, -0.00120873251501861, 1.93875,200.083908081055
0.0979978683333333, 230.197545997065, -0.0011656696779834, 1.9525,200.083908081055
0.0986645183333333, 230.203166906034, -0.00116458823231862, 1.96625,195.833404541016
0.09933133, 230.209382481328, -0.0013545761894398, 1.9775,197.474136352539
0.0999978766666667, 230.214368498658, -0.000954537282957547, 1.99125,196.154754638672
0.100664515, 230.220468622179, -0.000976734668005843, 2.005,197.61408996582
0.101331241666667, 230.226012132735, -0.00116077692377232, 2.0175,197.61408996582
0.101997845, 230.231647975629, -0.000943182853290762, 2.03125,194.56901550293
0.102664726666667, 230.237371883504, -0.00100611969204854, 2.045,199.147369384766
0.103331233333333, 230.243877321021, -0.00113989797252953, 2.0575,195.848327636719
0.103997845, 230.250885463868, -0.00144070486331653, 2.07,233.695358276367
0.104664471666667, 230.257331690327, -0.00123584815307786, 2.08375,233.695358276367
0.105331358333333, 230.265047398079, -0.00139030289498594, 2.0975,198.187072753906
0.105999158333333, 230.273207528051, -0.00159222575260299, 2.11,196.951751708984
0.106664491666667, 230.282047607297, -0.00181116825531436, 2.12375,192.69499206543
0.107331335, 230.291141557292, -0.00151780549063724, 2.1375,193.828491210938
0.107997965, 230.301653344067, -0.00158365518305374, 2.15125,193.828491210938
0.108664645, 230.311843832889, -0.00160202776021485, 2.16375,177.97705078125
0.10933253, 230.321740599927, -0.000996460177254996, 2.1775,172.988250732422
0.109998021666667, 230.331822024307, -0.000935755226413092, 2.19,184.991668701172
0.110664643333333, 230.341660760936, -0.000887663142024846, 2.20375,185.663665771484
0.111331185, 230.35184989397, -0.000701180508850443, 2.2175,185.663665771484
0.111997806666667, 230.361903386916, -0.000494025914022161, 2.23125,170.666458129883
0.11266464, 230.372804906961, -0.000806037241993104, 2.24375,174.025146484375
0.113331195, 230.383152617874, -0.000679614592082189, 2.2575,176.250793457031
0.11399781, 230.394061438824, -0.000577715710351596, 2.27125,183.367309570313
0.11466454, 230.404258729909, -0.00085147295979559, 2.285,183.367309570313
0.11533116, 230.414771735839, -0.00114856753706815, 2.2975,174.897064208984
0.115998063333333, 230.42482060166, -0.00101457926719196, 2.31125,181.365921020508
0.116664608333333, 230.435331196245, -0.00134109036687718, 2.325,178.131393432617
0.117331735, 230.445343975332, -0.00160259623169121, 2.3375,178.230865478516
0.11799812, 230.45614574474, -0.00131770054171575, 2.35125,178.230865478516
0.11866452, 230.466231037496, -0.00109401677711552, 2.365,172.829559326172
0.11933123, 230.476867190278, -0.00124812353647703, 2.37875,183.91047668457
0.119998013333333, 230.487257255289, -0.00120860502144434, 2.39125,177.532028198242
0.12066449, 230.497544162809, -0.000876214217099402, 2.40375,216.746765136719
0.121331213333333, 230.507584518435, -0.00072985006880401, 2.4175,216.746765136719
0.121997785, 230.518406260464, -0.00097349783061226, 2.43125,176.479965209961
0.122664536666667, 230.528555312381, -0.00104599368918606, 2.44375,172.738891601563
0.123331335, 230.538558028878, -0.000871763940566026, 2.45625,181.594604492188
0.123997868333333, 230.548222843524, -0.00125890649477614, 2.47,175.434371948242
0.124664453333333, 230.55812716474, -0.00135778302832407, 2.485,175.434371948242
0.125331523333333, 230.567433285274, -0.00114967898119974, 2.49875,170.185623168945
0.125997923333333, 230.57749473886, -0.00104101243943518, 2.51125,176.229476928711
0.12666545, 230.587575139043, -0.000766454230189819, 2.525,172.885223388672
0.127331168333333, 230.598109562363, -0.000515987810832875, 2.53875,165.845138549805
0.127997911666667, 230.608487955442, -0.000478549691266313, 2.55125,165.845138549805
0.12866455, 230.619309260547, -0.00036105759278269, 2.565,165.936904907227
0.129331158333333, 230.628717708902, 0.000143629557307667, 2.5775,162.263610839844
0.129997936666667, 230.639036590038, 0.000135523964450945, 2.59125,164.536834716797
0.130664808333333, 230.648927312795, 0.000380163176481036, 2.60375,159.354385375977
0.131331173333333, 230.658960825323, 0.000380761646424206, 2.6175,159.354385375977
0.131997795, 230.668911932258, 0.000401630098196167, 2.63125,156.28010559082
0.13266454, 230.679199816686, 0.000354991440809727, 2.64375,166.07177734375
0.133331348333333, 230.688909284295, 0.000484992910984438, 2.6575,161.598571777344
0.133997948333333, 230.69859895904, 0.000327881802490597, 2.67,170.260803222656
0.134664491666667, 230.708484679837, 9.91612908728066E-05, 2.6825,170.260803222656
0.135331255, 230.718191383176, 3.11877051187226E-05, 2.69625,156.083465576172
0.135997865, 230.727643335456, -9.69179667533395E-07, 2.70875,161.945388793945
0.136664598333333, 230.736979104166, -7.68293692942094E-05, 2.7225,160.276138305664
0.13733122, 230.74621892245, 0.000136498915483095, 2.73625,187.93000793457
0.137997866666667, 230.754910096908, 0.000277053855565727, 2.74875,187.93000793457
0.13866452, 230.763878796275, 0.000621367561053805, 2.7625,158.717788696289
0.139331401666667, 230.773778834581, 0.000123074589778495, 2.775,164.919830322266
0.139997838333333, 230.783033335655, -9.77863166059621E-05, 2.7875,166.429458618164
0.140664618333333, 230.792365675406, -0.000127301834092999, 2.80125,161.034103393555
0.14133115, 230.801238089464, 3.13826953336543E-05, 2.815,161.034103393555
0.141998613333333, 230.809904988037, 3.47059731000319E-06, 2.8275,157.716705322266
0.142664603333333, 230.81795099473, 0.000363680504323078, 2.84,155.780578613281
0.143331538333333, 230.826275366843, 0.000640803584701843, 2.85375,164.048324584961
0.143997861666667, 230.834275535793, 0.000598556706712036, 2.8675,167.217254638672
0.144664596666667, 230.842525671723, 0.000570614610200319, 2.88125,167.217254638672
0.145256613333333, 230.846522015185, 0.000545414376007857, 2.89375,169.664932250977
0.14587317, 230.854716409465, 0.000429927676812709, 2.905,160.61181640625
0.146540505, 230.863540626184, 0.000149236275619717, 2.91875,167.062927246094
0.1472065, 230.872800442051, 4.04032422038878E-05, 2.93125,173.287078857422
0.147873121666667, 230.881771584119, -6.26391370370563E-06, 2.945,173.287078857422
0.14853979, 230.89139613895, -0.000159605711534537, 2.95875,166.265289306641
0.149206818333333, 230.901158997321, -0.000210351162617228, 2.9725,163.64599609375
0.149873178333333, 230.910642388394, -8.91827487623424E-05, 2.985,165.757400512695
0.150540163333333, 230.920495732251, -0.000384774401506536, 2.9975,165.879058837891
0.151206835, 230.930893446416, -0.00063367039975822, 3.0125,165.879058837891
0.151873238333333, 230.940504283543, -0.000337195291391729, 3.02625,159.574020385742
0.152540046666667, 230.950055973775, -0.000265716381712116, 3.03875,166.815948486328
0.15320648, 230.95982289988, -0.000255704384620043, 3.0525,163.993545532227
0.153874486666667, 230.969230085591, 4.47710227888139E-05, 3.06625,197.056549072266
0.154539823333333, 230.97802801107, 0.000464286450941759, 3.07875,197.056549072266
0.15520652, 230.987184703225, 0.000102162640071316, 3.0925,160.498229980469
0.155873511666667, 230.996627109908, 6.47470194345656E-05, 3.105,165.563690185547
0.156539896666667, 231.00562021427, -0.000328674219432796, 3.11875,163.89778137207
0.157206545, 231.01514819289, -0.000408590205304759, 3.1325,166.263717651367
0.157873946666667, 231.02493816438, -0.000818947093521116, 3.145,166.263717651367
