Time (min), Depth (µm), Load (N), Position (µm), Acoustic (aJ)
9.00833333333333E-06, 228.697157597676, 0.000375754266307325, 0,172.078918457031
0.000667066666666667, 228.697426326641, 0.000696718644592864, 0.00375000000000028,144.837173461914
0.001334135, 228.697162566986, 0.000565241248571552, 0.0162500000000006,149.280426025391
0.00199957666666667, 228.69721375522, 0.000878031037456565, 0.0337500000000008,158.333267211914
0.00266649833333333, 228.697671441712, 0.000979784426477533, 0.0487500000000002,158.333267211914
0.00333297, 228.700902592991, 0.000623484823021374, 0.0625000000000001,168.722290039063
0.00399974833333333, 228.70561338582, 0.000356645226136689, 0.0774999999999994,133.979858398438
0.00466615333333333, 228.713348755071, 0.000177383230293562, 0.0912499999999993,171.349609375
0.005333025, 228.722474933075, -4.44166288948597E-05, 0.104999999999999,165.825103759766
0.00599991666666667, 228.733996100011, -0.00027048977347331, 0.1175,165.825103759766
0.00666641, 228.745046147232, -0.000229016856624363, 0.131249999999999,167.322219848633
0.00733287333333333, 228.756859540678, -0.000455146998372645, 0.14375,131.686157226563
0.007999575, 228.76773237727, -0.00016049729832373, 0.1575,162.538940429688
0.00866619333333333, 228.778884541233, -0.000118868389273082, 0.17,162.832244873047
0.00933299, 228.789733493959, -0.000210966763273714, 0.1825,165.660385131836
0.0100001183333333, 228.800787302279, -9.42216272704375E-05, 0.19625,165.660385131836
0.010666445, 228.810930762472, 0.000496952678692784, 0.21,162.44075012207
0.0113329066666667, 228.82192184028, 0.000397896154195209, 0.22375,162.643508911133
0.011999745, 228.83268122056, 0.000265604299052895, 0.23625,172.912307739258
0.0126666166666667, 228.843280002687, 0.000733636290285224, 0.25,172.912307739258
0.0133330383333333, 228.854149224888, 0.000749722982251943, 0.262500000000001,160.961822509766
0.0139995833333333, 228.865901113584, 0.000257381712050211, 0.27625,137.833190917969
0.0146664216666667, 228.876714188395, 0.000157638222069674, 0.2875,166.558151245117
0.01533288, 228.886241155369, 0.000158539676806065, 0.302500000000001,211.688323974609
0.0160000983333333, 228.896501553008, -0.00058454849861602, 0.316250000000001,182.093154907227
0.0166666816666667, 228.90644406677, -0.000891149598350487, 0.328749999999999,182.093154907227
0.0173343816666667, 228.915893910837, -0.000473708565987313, 0.342500000000001,180.494247436523
0.017999685, 228.926715996445, -0.000553519557193555, 0.356250000000001,178.410659790039
0.0186661666666667, 228.938637398391, -0.000666253894662389, 0.368749999999999,180.382278442383
0.019332875, 228.949802759735, -0.000432414140206115, 0.382499999999999,180.459167480469
0.0199998066666667, 228.961411600764, -0.000353174620346293, 0.395,180.459167480469
0.0206665683333333, 228.973545374171, -0.000661451135936756, 0.408749999999999,183.222930908203
0.0213328616666667, 228.985232766508, -0.000563962032716889, 0.422499999999999,182.231262207031
0.0219998116666667, 228.997270366242, -0.000494770508134818, 0.435,190.266479492188
0.02266648, 229.009643558496, -0.000551037181902336, 0.4475,187.404815673828
0.0233330366666667, 229.022444699721, -0.000938295230355261, 0.46125,187.404815673828
0.0239997433333333, 229.034314297833, -0.00119315192916318, 0.475,186.909790039063
0.0246663216666667, 229.046483692653, -0.00125527880861568, 0.48875,182.362609863281
0.025333035, 229.058004298775, -0.00138589224805319, 0.5025,186.593994140625
0.0259997416666667, 229.06989466192, -0.00133981306255418, 0.515,180.298187255859
0.026666205, 229.081326820346, -0.000907038300359738, 0.52875,180.298187255859
0.0273331433333333, 229.0931487762, -0.000894665421789346, 0.5425,182.339889526367
0.02799964, 229.104189060468, -0.000787270816110037, 0.555,186.928298950195
0.0286665516666667, 229.116442379196, -0.000668538279911124, 0.56875,182.654174804688
0.0293328883333333, 229.128246643696, -0.000585956927906983, 0.5825,183.45295715332
0.0300002683333333, 229.14018504453, -0.000450584227530279, 0.595,183.45295715332
0.030666475, 229.151624470442, -0.000292195183232321, 0.6075,187.086578369141
0.0313328733333333, 229.163424916398, -7.02768299735345E-05, 0.6225,148.971435546875
0.031999835, 229.175161151927, -3.22177416615163E-05, 0.63625,215.259216308594
0.03266707, 229.186692867114, -0.000131277266007897, 0.64875,180.904373168945
0.0333328466666667, 229.197681105217, -4.01598427370288E-05, 0.6625,180.904373168945
0.0340000766666667, 229.209590162831, 7.99001267713077E-05, 0.67625,181.230804443359
0.0346663116666667, 229.22065782436, -9.83209213659264E-05, 0.68875,182.706802368164
0.03533284, 229.231680612553, -2.27187188003731E-05, 0.7025,180.502853393555
0.0359996533333333, 229.242000912975, -1.00503551012853E-05, 0.71625,182.421417236328
0.03666649, 229.252699854456, -0.000291704707888694, 0.72875,182.421417236328
0.0373328816666667, 229.263014667505, -0.000416835922697117, 0.7425,183.102630615234
0.0380003333333333, 229.274061080389, -0.000517473367770775, 0.75625,187.938293457031
0.0386665033333333, 229.284316554462, -0.000656307894222804, 0.77,180.886016845703
0.0393329266666667, 229.295014704214, -0.000615076465224035, 0.7825,182.859680175781
0.0399997016666667, 229.305162896353, -0.00047066521884175, 0.795000000000001,182.859680175781
0.0406667283333333, 229.31594185442, -0.000563842038679612, 0.80875,184.068450927734
0.0413328983333333, 229.326088180096, -0.000784882936013714, 0.8225,182.528137207031
0.04199968, 229.336311705664, -0.000774026481355082, 0.83625,183.249267578125
0.042666565, 229.345969985373, -0.000672790566338254, 0.848750000000001,186.881408691406
0.0433328983333333, 229.355926495654, -0.000601061169198281, 0.8625,186.881408691406
0.043999795, 229.364881541299, -0.000325592505712613, 0.87625,185.928024291992
0.0446664683333333, 229.374414068945, 0.000157575225287245, 0.888750000000001,187.245620727539
0.0453328883333333, 229.384248332031, 0.000148023705093242, 0.902500000000001,188.934234619141
0.0459996233333333, 229.394699191845, 1.84317143656366E-05, 0.91625,185.710571289063
0.046666775, 229.404720419823, -0.0001053930660325, 0.928750000000001,185.710571289063
0.0473329083333333, 229.415525096989, -0.000153189665228288, 0.942500000000001,186.597640991211
0.0479998016666667, 229.425707665711, -0.000329433812683216, 0.954999999999999,183.418975830078
0.0486663166666667, 229.435837532014, -0.000177858926160743, 0.9675,221.029006958008
0.0493329416666667, 229.445880518497, -0.000101898241599049, 0.98125,182.680099487305
0.0499997166666667, 229.456007815316, 0.000302437948978673, 0.99375,182.680099487305
0.0506662833333333, 229.465447994591, 0.000101467543527727, 1.0075,189.219345092773
0.051332855, 229.47542887737, 4.70532766957909E-05, 1.02125,185.849243164063
0.05199996, 229.484526572753, -0.000151184266024829, 1.03375,185.89990234375
0.05266643, 229.494071002784, -0.000131479755759829, 1.0475,188.502990722656
0.05333287, 229.502864787662, -0.000367840883563061, 1.06125,188.502990722656
0.05399954, 229.512249781899, -9.86899027478736E-05, 1.07625,186.256607055664
0.0548330166666667, 229.520848092297, -0.000267105943381938, 1.09,181.09228515625
0.0554997866666667, 229.530029969782, -0.000441853166006112, 1.10375,145.742645263672
0.05616653, 229.538384975633, -0.000788377760447166, 1.1175,187.109268188477
0.0568328716666667, 229.547620869254, -0.00066202860683201, 1.13,184.779296875
0.0575151583333333, 229.555525567371, -0.00102212901936365, 1.14375,184.779296875
0.058166515, 229.56406337241, -0.000760054683094514, 1.15625,186.962585449219
0.0588328866666667, 229.572383148653, -0.000682108098261586, 1.17,186.828903198242
0.05949989, 229.581050883239, -0.000513911046611652, 1.1825,184.262008666992
0.0601663233333333, 229.588962865466, -0.000823263008211792, 1.19625,177.336837768555
0.0608332966666667, 229.597448589717, -0.000866088857106273, 1.20875,177.336837768555
0.0614997333333333, 229.605652624921, -0.000941175085613344, 1.2225,179.835479736328
0.062166665, 229.61401384074, -0.00109037109167093, 1.23625,183.461349487305
0.0628332716666667, 229.621497324401, -0.000864831920243802, 1.24875,177.638778686523
0.0634996216666667, 229.629822121702, -0.000820584142717475, 1.26375,184.570755004883
0.064166275, 229.638514108333, -0.000662424586916978, 1.275,184.570755004883
0.064833125, 229.647414146994, -0.000753787997811235, 1.28875,179.425567626953
0.0655002516666667, 229.655895975907, -0.000440185249750878, 1.3025,221.736740112305
0.0661663666666667, 229.665296214418, -0.000901761565267626, 1.31625,188.055740356445
0.0668328766666667, 229.67446532967, -0.000935551868005333, 1.33,179.49543762207
0.067499715, 229.683665567642, -0.00141848561077703, 1.3425,179.49543762207
0.0681676083333333, 229.692564680334, -0.0015330738551271, 1.3575,181.109924316406
0.068832925, 229.702370599728, -0.00148471628403446, 1.37,182.807067871094
0.0695010183333333, 229.712581829244, -0.00150102346495222, 1.38375,180.467575073242
0.0701663833333333, 229.722813820702, -0.00151778362312478, 1.39625,182.581344604492
0.0708329333333333, 229.732114203504, -0.00107807470922385, 1.41,182.581344604492
0.071501155, 229.742040031261, -0.00108749873586483, 1.4225,183.933151245117
0.072166615, 229.751809719838, -0.00127036355076221, 1.43625,181.042236328125
0.0728331733333333, 229.760839527838, -0.000998629699678274, 1.45,181.399841308594
0.0734997316666667, 229.769864040961, -0.000887543779447432, 1.46375,190.762435913086
0.0741670733333333, 229.779750002757, -0.000659978209811437, 1.47625,190.762435913086
0.0748332033333333, 229.789169257172, -0.000306555461849571, 1.49,178.370849609375
0.0755008933333333, 229.798650712261, -3.64940267728273E-05, 1.50375,182.868759155273
0.07616618, 229.808058970763, -4.73894795084528E-05, 1.5175,182.877517700195
0.07683337, 229.817412685353, -0.000318977837904016, 1.53125,183.865447998047
0.0774997283333333, 229.827259972887, -0.000441278694853394, 1.54375,183.865447998047
0.07816709, 229.835996461193, -0.000416247952161007, 1.5575,178.76203918457
0.0788328383333333, 229.844636526167, -0.000206358994656742, 1.57125,180.799057006836
0.0795001333333333, 229.85359102264, -3.55400747035766E-05, 1.58375,184.520935058594
0.0801669033333333, 229.8625460947, 0.000118400193027917, 1.59875,183.986099243164
0.0808328916666667, 229.870568513242, 0.00030168348687631, 1.61,183.986099243164
0.0814997016666667, 229.879858024595, 0.000218805149819069, 1.625,185.221923828125
0.0821661933333333, 229.888370498433, 0.000293214912292746, 1.6375,222.026153564453
0.082833085, 229.896946601195, 0.000347113205002437, 1.65125,182.746337890625
0.0835000983333333, 229.905239038295, 0.000444977289408135, 1.66375,181.916427612305
0.0841671616666667, 229.913869027549, 0.000340461039147521, 1.6775,181.916427612305
0.0848330433333333, 229.922607082941, 0.000170818060117797, 1.69,183.868896484375
0.0854994733333333, 229.93114439237, 9.39679202361925E-05, 1.70375,181.908737182617
0.0861662066666667, 229.939639266245, 0.000188467673631522, 1.7175,185.448989868164
0.086832995, 229.947564811605, 0.000278961128244365, 1.73,189.36799621582
0.0874995466666667, 229.955565730588, 0.000324719329857314, 1.74375,189.36799621582
0.0881667533333333, 229.963234125682, 0.000315815777026772, 1.7575,190.802612304688
0.0888333066666667, 229.971348653325, 0.000216022789519673, 1.77,184.806167602539
0.089499785, 229.979231213728, -0.000136195518912581, 1.78375,184.915954589844
0.090166525, 229.987409396534, -0.000383242109992475, 1.79625,185.70246887207
0.09083316, 229.995488390862, -0.000484680514846251, 1.81,185.70246887207
0.091500075, 230.003907571817, -0.000169850828411487, 1.8225,193.845947265625
0.0921663566666667, 230.011517644707, -0.000313614107302786, 1.83625,189.236953735352
0.0928328666666667, 230.019404390424, -0.000273822605986193, 1.85,184.865341186523
0.093500065, 230.027493557026, -0.000253143144710297, 1.8625,188.988327026367
0.094166635, 230.034793206245, -0.000287687909571622, 1.87625,188.988327026367
0.09483292, 230.042125052762, -0.000291401723031711, 1.88875,191.011291503906
0.09549998, 230.050397883806, -0.000375046521650303, 1.9025,189.087127685547
0.096166785, 230.058095185691, -0.000321392716618343, 1.91625,180.754760742188
0.0968329083333333, 230.065959521924, -0.000362028675522748, 1.93,190.450805664063
0.097499685, 230.07449075182, -0.000127896435722823, 1.9425,190.450805664063
0.098166445, 230.082785293405, -0.00015872288730834, 1.95625,223.530227661133
0.098832885, 230.091000064891, -0.00019291217002233, 1.96875,184.427749633789
0.0995009, 230.099029773297, -0.000123074177916185, 1.9825,188.952056884766
0.100166193333333, 230.10728562959, 0.000100848074706674, 1.995,178.567398071289
0.100832858333333, 230.115786635571, -0.000262535672896301, 2.0075,178.567398071289
0.101499693333333, 230.124401836624, -0.000729400722751609, 2.02125,185.576568603516
0.102167195, 230.132946131532, -0.000561371662698602, 2.035,186.289031982422
0.102833376666667, 230.141201956083, -0.000400327751781796, 2.0475,187.434722900391
0.103499803333333, 230.149802884906, -0.000264917553273756, 2.06125,185.49169921875
0.104166988333333, 230.157807415566, -0.000453524079764492, 2.07375,185.49169921875
0.104833206666667, 230.166029069783, -0.000313146130825207, 2.0875,189.626083374023
0.105499943333333, 230.174035577038, -0.000363249614157033, 2.10125,189.31721496582
0.106167158333333, 230.182926728658, -0.000905061399549908, 2.115,190.555786132813
0.106832888333333, 230.191305099996, -0.00104893267304075, 2.12875,185.174606323242
0.107499716666667, 230.200666281483, -0.000846484841797546, 2.14125,185.174606323242
0.108166633333333, 230.208815410359, -0.000768250271415431, 2.15375,180.525283813477
0.108832835, 230.217817124177, -0.000905514376783454, 2.16875,175.910980224609
0.109499943333333, 230.2263866068, -0.00092627933377159, 2.18125,175.076171875
0.110166488333333, 230.234995510684, -0.00085691231799183, 2.195,183.56803894043
0.110833368333333, 230.24319807298, -0.000568886285234169, 2.2075,183.56803894043
0.111499708333333, 230.251992756622, -0.000423164104689642, 2.22125,180.52815246582
0.112167021666667, 230.260201714434, -0.000241677720552655, 2.235,179.720687866211
0.112833125, 230.268871971556, -0.000301970192119902, 2.24875,171.265518188477
0.113500065, 230.277546551206, -0.000455151497997076, 2.26125,182.166015625
0.114167101666667, 230.28613046648, -0.000386895926412671, 2.275,182.166015625
0.11483323, 230.294347226807, -0.000498449823184854, 2.2875,217.727066040039
0.115499698333333, 230.302644791777, -0.00046985525945145, 2.30125,185.561935424805
0.116166433333333, 230.310969461543, -0.000225670524600563, 2.315,179.487442016602
0.116833496666667, 230.319126501845, -0.000446756419688017, 2.32875,178.942810058594
0.11750082, 230.32646916197, -0.000703182039676793, 2.34125,178.942810058594
0.118167156666667, 230.334088717144, -0.000383209111591841, 2.355,184.939102172852
0.118833193333333, 230.341579163715, -0.000387263407955232, 2.36875,172.836578369141
0.119499673333333, 230.349477138665, -0.000378797833220474, 2.3825,171.590423583984
0.120166808333333, 230.357151478746, -8.2501215879225E-05, 2.395,174.642059326172
0.120832978333333, 230.365638847483, -4.52475870992809E-05, 2.4075,174.642059326172
0.121499741666667, 230.373851529988, -0.000212723174962469, 2.42125,175.824157714844
0.122166683333333, 230.382087918295, -0.000160600793001285, 2.435,170.856002807617
0.122833165, 230.390470020977, -0.000125693046349355, 2.4475,168.646682739258
0.123500046666667, 230.398918696985, -0.000246178994451979, 2.46125,179.094009399414
0.124166968333333, 230.407015535242, -0.000232409686070868, 2.475,179.094009399414
0.124833146666667, 230.416249581165, -0.000266205988527442, 2.48875,178.238250732422
0.125499671666667, 230.425347087649, -0.000386072467766504, 2.5025,165.605773925781
0.126167206666667, 230.43466018533, -0.000127491455985165, 2.515,172.386077880859
0.126832811666667, 230.44421187846, -6.03829424223126E-07, 2.5275,167.652038574219
0.127500448333333, 230.454268023514, 8.92356580425289E-05, 2.54125,167.652038574219
0.128166723333333, 230.4639031799, 0.000213813400618626, 2.555,166.080810546875
0.128833386666667, 230.474328410426, 0.000228883143712411, 2.5675,165.147766113281
0.129499691666667, 230.48466433061, 0.000108985166039626, 2.58125,161.636215209961
0.130166245, 230.495441556561, 0.000301840979108685, 2.595,160.016052246094
0.130832945, 230.505917039855, 0.00050002302460513, 2.6075,160.016052246094
0.131499538333333, 230.517170860493, 0.000376664720760169, 2.62125,193.797760009766
0.132166426666667, 230.527891866474, 0.000314395348468108, 2.63375,163.687362670898
0.132833016666667, 230.538545625528, 0.000628070092878568, 2.6475,157.659332275391
0.133499681666667, 230.549421738946, 0.000856228132738867, 2.66125,160.73210144043
0.13416676, 230.560721124167, 0.000591293440122622, 2.67375,160.73210144043
0.134833111666667, 230.571620366218, 0.000866169633362733, 2.68625,157.330642700195
0.135499953333333, 230.582453093359, 0.000950556894688463, 2.7,157.977584838867
0.136166786666667, 230.593185224324, 0.00072567919007195, 2.7125,154.477340698242
0.136833038333333, 230.603696013206, 0.000634962246701768, 2.72625,160.029144287109
0.137499676666667, 230.614145211165, 0.000897180575756122, 2.73875,160.029144287109
0.138166836666667, 230.624442376026, 0.000929509951912515, 2.7525,163.383911132813
0.13883296, 230.6351052558, 0.00110865495365219, 2.76625,158.223007202148
0.139499581666667, 230.645811036329, 0.00108781050064943, 2.77875,153.276916503906
0.140166393333333, 230.6563616326, 0.00124985786120455, 2.79125,162.65690612793
0.140832858333333, 230.666964313487, 0.000875695654969406, 2.805,162.65690612793
0.141500036666667, 230.677095305287, 0.000692934334898363, 2.81875,154.056106567383
0.142166506666667, 230.687019689936, 0.000532473894680695, 2.83125,156.503829956055
0.142833195, 230.696442343568, 0.000119883618666567, 2.845,157.457427978516
0.143499798333333, 230.705954351275, -0.000333755095547879, 2.8575,155.507125854492
0.144166266666667, 230.715458780655, -0.000373234612546086, 2.87125,155.507125854492
0.144833366666667, 230.725145054519, -0.000573113072882681, 2.885,150.943908691406
0.145500381666667, 230.735398449127, -0.000825643388558573, 2.8975,157.889617919922
0.146167043333333, 230.745195063425, -0.000591860631208369, 2.91125,159.954772949219
0.146833126666667, 230.755233701673, -0.000589916728841682, 2.925,165.682205200195
0.147499675, 230.765378152239, -0.000680651671325957, 2.9375,165.682205200195
0.148166923333333, 230.775660180655, -0.000703527022310797, 2.95125,192.951202392578
0.148833381666667, 230.785996863051, -0.0002742860826268, 2.965,162.027893066406
0.149499763333333, 230.797072827652, -0.000386070967778338, 2.97875,161.7841796875
0.150166358333333, 230.807961324967, -0.000527372870320063, 2.9925,161.021530151367
0.15083289, 230.818942349344, -0.000259214839651119, 3.005,161.021530151367
0.15149957, 230.830079828765, -0.000347495905386583, 3.0175,159.642456054688
0.152166741666667, 230.840880549819, -0.000544821493921243, 3.0325,158.579071044922
0.152832903333333, 230.851433733166, -0.000309465315638227, 3.045,158.095367431641
0.153499891666667, 230.862257077522, -0.0001593663549411, 3.0575,160.138671875
0.154166385, 230.873357013785, -0.000199937817074911, 3.07125,160.138671875
0.154832931666667, 230.88410959567, -8.94998642712932E-05, 3.085,159.693695068359
0.155500196666667, 230.895280866254, -0.000183486643393184, 3.09875,149.788040161133
0.156166181666667, 230.906544107951, -0.00029768190748584, 3.1125,158.562545776367
0.156833373333333, 230.917609997148, -0.000493879552699218, 3.125,157.93522644043
0.157499745, 230.928509740835, -0.00082126210861151, 3.1375,157.93522644043
