Time (min), Depth (µm), Load (N), Position (µm), Acoustic (aJ)
9.05166666666667E-06, 228.929706087847, 0.000791442100987049, 0,151.006134033203
0.00066528, 228.929809286491, 0.000648163297720511, 0.00375000000000028,151.703796386719
0.00133040333333333, 228.9298592528, 0.000377728381403594, 0.0162500000000006,154.181579589844
0.00199737, 228.930882917818, 0.000141266758644089, 0.0374999999999993,186.721466064453
0.00283019666666667, 228.932289089032, 8.34956604025469E-05, 0.0525000000000005,159.370819091797
0.00349703333333333, 228.934302297713, 0.000254557568151548, 0.0662500000000003,159.370819091797
0.00416392166666667, 228.937180255305, 0.000230690766923614, 0.0812499999999997,162.679107666016
0.00483022333333333, 228.940776252754, 0.000210512280504677, 0.0937500000000001,161.462036132813
0.005497055, 228.944510288138, 0.000546367910837505, 0.108749999999999,161.462036132813
0.00633077166666667, 228.952426608465, 0.000772351059930506, 0.123750000000001,156.540084838867
0.00699703666666667, 228.959932510201, 0.000555568448721146, 0.1375,156.540084838867
0.00766379166666667, 228.968243895177, 0.000295123030609, 0.15125,164.063842773438
0.008330275, 228.97847273268, -7.40969238672479E-05, 0.163750000000001,161.926300048828
0.00899714833333333, 228.989218648441, -0.00055979802760929, 0.18,160.974395751953
0.00983057, 229.000390197074, -0.000700030483860205, 0.193749999999999,155.43424987793
0.010497195, 229.010895830386, -0.000551984920074966, 0.207499999999999,158.482315063477
0.011163775, 229.02171074369, -0.000246919743184485, 0.22,158.482315063477
0.01183031, 229.032603796011, -1.6471318377838E-05, 0.2325,156.271789550781
0.0124974966666667, 229.04367492384, 0.000378121361639755, 0.24625,161.764999389648
0.01316354, 229.054647317905, 0.000299790796074578, 0.25875,160.167175292969
0.0138304016666667, 229.066347556126, 6.7461465768688E-05, 0.2725,160.167175292969
0.01449719, 229.077570325249, 0.000107690945074794, 0.285000000000001,155.145614624023
0.01516354, 229.087170633392, 0.000210539279143936, 0.297499999999999,157.755569458008
0.015830275, 229.096645016293, -1.79455552021424E-06, 0.3125,163.97575378418
0.0164972083333333, 229.106548415109, 0.000236589970685586, 0.32625,159.305374145508
0.017163575, 229.116320253162, 0.000430146248599745, 0.338750000000001,129.202011108398
0.0178302283333333, 229.126254223289, 0.000368271356489504, 0.3525,129.202011108398
0.018497135, 229.137927669577, 0.00011678948818403, 0.36625,165.241714477539
0.0191636633333333, 229.150013847337, -0.000101791532724902, 0.378750000000001,206.261993408203
0.0198304866666667, 229.161199275621, -0.000125355349138361, 0.392500000000001,167.923858642578
0.0204972233333333, 229.173140170817, -0.000209889603076864, 0.40625,170.544570922852
0.0211638683333333, 229.184033963668, -0.000396441232773817, 0.418750000000001,170.544570922852
0.0218302266666667, 229.194643586152, -0.000160966560441689, 0.432500000000001,169.031890869141
0.0224968816666667, 229.205508987234, 2.57022523715947E-06, 0.444999999999999,170.480529785156
0.0231642133333333, 229.217086825179, -0.000114038417624166, 0.458750000000001,176.187362670898
0.02383024, 229.227873780428, -0.000297950179925049, 0.472500000000001,180.043228149414
0.0244968683333333, 229.239939574963, -0.000391034004428654, 0.484999999999999,180.043228149414
0.0251636383333333, 229.251745647312, -0.000370965012491155, 0.498749999999999,171.24658203125
0.0258302083333333, 229.263670914383, -0.000507186670207627, 0.51125,174.820297241211
0.026497345, 229.274870727835, -0.000371336993764417, 0.524999999999999,168.449813842773
0.0271637516666667, 229.286520005072, -0.000255089832748039, 0.538749999999999,173.364334106445
0.0278302233333333, 229.297977984599, 4.23812255922484E-05, 0.552499999999999,173.364334106445
0.0284971333333333, 229.309553698699, -7.71882685724606E-05, 0.565,169.939315795898
0.0291638716666667, 229.321236105123, 6.87619005026158E-05, 0.578749999999999,174.678588867188
0.0298303116666667, 229.339325291814, 3.81169397273847E-05, 0.593750000000001,174.258224487305
0.0306640816666667, 229.351097591877, -0.000174290391253779, 0.6075,173.159484863281
0.0313301666666667, 229.362856932804, -0.000612851862752423, 0.62125,169.087615966797
0.0319972066666667, 229.37405980542, -0.00034090952209142, 0.635,169.087615966797
0.03266372, 229.386129434814, -0.000637422128589247, 0.65,173.304840087891
0.0333301933333333, 229.397058452763, -0.000845098697216133, 0.6625,168.815414428711
0.0339974216666667, 229.408339211945, -0.000751575394798611, 0.67625,168.020462036133
0.0346637433333333, 229.41919085276, -0.000443888349604899, 0.68875,171.616119384766
0.035330455, 229.430663372809, -0.000686052685965787, 0.7025,172.311828613281
0.0359970166666667, 229.441494353758, -0.000907492563233664, 0.71625,172.311828613281
0.036663535, 229.453003378278, -0.000994690683358689, 0.72875,164.532638549805
0.0373303133333333, 229.464101529481, -0.00113386269292898, 0.74375,175.114059448242
0.0379976016666667, 229.475438129545, -0.00102779552058034, 0.75625,166.843032836914
0.038663975, 229.486092960886, -0.000634389280978269, 0.77,166.843032836914
0.0393304933333333, 229.496732413478, -0.000324279857469468, 0.78375,168.468444824219
0.039997115, 229.506698674936, -0.000321430000635688, 0.79625,167.374755859375
0.0406643833333333, 229.517188805346, -0.000327287206408098, 0.81,172.615783691406
0.0413305616666667, 229.526966838839, -0.000340326051519807, 0.8225,162.749069213867
0.0419970633333333, 229.537545468891, -0.00071259235296917, 0.83625,162.749069213867
0.0426643883333333, 229.547833958382, -0.000998650484590945, 0.848750000000001,177.236251831055
0.043330475, 229.558175159034, -0.000984078716505312, 0.8625,174.526901245117
0.0439982633333333, 229.568518975792, -0.00124829944497808, 0.87625,172.149230957031
0.0446646883333333, 229.579392319365, -0.00152881085517892, 0.888750000000001,167.814376831055
0.0453303066666667, 229.589863811043, -0.00137603302905124, 0.902500000000001,167.814376831055
0.04599754, 229.600685531091, -0.00114294773663357, 0.91625,167.064865112305
0.0466641066666667, 229.611197960238, -0.000840621422171024, 0.928750000000001,171.376251220703
0.0473323816666667, 229.621399179228, -0.000341044515415238, 0.942500000000001,172.810317993164
0.04799709, 229.631805748383, -0.000117284254627931, 0.954999999999999,165.199096679688
0.0486655166666667, 229.641807946061, -0.000275049330246608, 0.9675,165.199096679688
0.0493316433333333, 229.651934882593, -0.000235632810137101, 0.98125,174.134902954102
0.04999835, 229.662014168427, -0.000276289767983152, 0.99375,170.691513061523
0.0506647566666667, 229.671935165123, -0.000309252112322736, 1.0075,167.598922729492
0.0513308966666667, 229.68138140833, -0.00030199697675144, 1.02125,213.524154663086
0.0519970916666667, 229.690817927337, -0.000211136040617291, 1.035,176.850830078125
0.0526645116666667, 229.700256235899, -0.000235868298353429, 1.04875,176.850830078125
0.0533316483333333, 229.709745678464, -0.000229954095411187, 1.06125,169.463684082031
0.0539979, 229.719211471142, -0.000286387260829974, 1.07375,174.171676635742
0.0546640483333333, 229.728667389335, -0.000130756578019706, 1.0875,175.504440307617
0.0553301816666667, 229.738084287836, -0.000176148797971989, 1.10125,175.504440307617
0.0559979216666667, 229.747353568762, -0.000262830944017277, 1.11375,174.445846557617
0.05666505, 229.756887326655, -0.000552346401941168, 1.1275,168.757995605469
0.05733178, 229.765718171564, -0.000631375932405788, 1.14,174.239105224609
0.0580018883333333, 229.774642278659, -0.000793745776728869, 1.1525,176.808135986328
0.05866801, 229.783583576416, -0.00067160991146385, 1.16625,176.808135986328
0.059334705, 229.79227314952, -0.000410473028116786, 1.18,175.2744140625
0.06000133, 229.800881225491, -0.000143412942259805, 1.1925,171.12516784668
0.0606680733333333, 229.809382402089, -0.000203510423590866, 1.20625,176.198272705078
0.061334745, 229.817826508421, -1.78002515904113E-05, 1.21875,170.761016845703
0.062001395, 229.826160021603, 3.10717936150532E-05, 1.2325,170.761016845703
0.0626680333333333, 229.834110312761, -0.000103942424723002, 1.24625,168.361618041992
0.0633346516666667, 229.841808654523, 0.000248221886430736, 1.26,171.407852172852
0.064001645, 229.850510955653, 0.000350249761660009, 1.2725,170.631820678711
0.0646681516666667, 229.858927838053, 0.000250495772187395, 1.28625,171.737655639648
0.0653347783333333, 229.867071041173, 0.000284562061036555, 1.3,171.737655639648
0.0660017616666667, 229.874881264161, 0.000549888233985812, 1.3125,172.366226196289
0.0666679983333333, 229.882943859252, 0.000538932784252802, 1.32625,173.304901123047
0.0673347, 229.890117600699, 0.000805814379084541, 1.34,163.36686706543
0.06800136, 229.897329988139, 0.00079427695859805, 1.35375,205.228546142578
0.0686680033333333, 229.905045546744, 0.00091918918440109, 1.3675,169.197128295898
0.0693346483333333, 229.912850618294, 0.00094099808896518, 1.38,169.197128295898
0.0700013283333333, 229.920713099611, 0.000814951920121991, 1.39375,171.790374755859
0.0706680283333333, 229.929038344707, 0.000646732369627262, 1.4075,169.897750854492
0.071334705, 229.937407877879, 0.000646189396887012, 1.42,173.389236450195
0.0720016, 229.946133161113, 0.000648310290375792, 1.43375,173.389236450195
0.0726681533333333, 229.955317168179, 0.000407876867073822, 1.4475,172.942047119141
0.073334695, 229.964280435276, 0.000224416582082082, 1.46,174.644302368164
0.0740013283333333, 229.973318540214, 0.000282585160332996, 1.4725,174.105758666992
0.0746681133333333, 229.982537705138, 0.000157326451992804, 1.48625,172.302795410156
0.075334695, 229.991239830209, 0.000260990745043588, 1.50125,172.302795410156
0.0760013433333333, 229.999995931956, 0.000253743109094308, 1.51375,167.532333374023
0.0766680383333333, 230.009371865145, 0.000398697328195589, 1.5275,169.991455078125
0.0773349983333333, 230.018456673829, 0.000130081820477381, 1.54,170.175323486328
0.0780017683333333, 230.027759173041, 0.000312736645873284, 1.555,177.345718383789
0.0786679616666667, 230.036960618979, 0.000188781371988302, 1.5675,177.345718383789
0.0793346766666667, 230.046885570389, 2.18847550085334E-05, 1.58125,175.111297607422
0.0800013283333333, 230.055786557973, 5.88938961107465E-05, 1.59375,171.530685424805
0.0806679933333333, 230.064865285678, 0.000265595513705483, 1.6075,174.097915649414
0.0813349766666667, 230.07384764131, 0.000161607236941087, 1.62125,172.041717529297
0.0820013483333333, 230.083181445006, 0.000250428275567994, 1.635,172.041717529297
0.0826680283333333, 230.091837338687, 0.000438088349590241, 1.6475,174.993927001953
0.0833346666666667, 230.100328202173, 0.000507215377401717, 1.66125,170.701507568359
0.0840013683333333, 230.109238738453, 0.000767875284703529, 1.67375,173.473373413086
0.084668115, 230.118030124147, 0.000772648044962351, 1.6875,168.437484741211
0.0853347233333333, 230.126870593134, 0.000528182824163038, 1.70125,171.486587524414
0.0860013316666667, 230.135727474701, 0.000488734805598554, 1.71375,171.486587524414
0.08666815, 230.145327078774, 0.000318182872252932, 1.7275,170.583526611328
0.0873347016666667, 230.154319405154, -4.38014456480087E-05, 1.74125,176.498092651367
0.088001475, 230.163816781636, -0.000188389683131132, 1.75375,170.785629272461
0.0886682183333333, 230.172707150374, -0.000395092800650272, 1.7675,171.391738891602
0.0893347233333333, 230.181913095596, -0.000484144827656535, 1.78,171.391738891602
0.0900014116666667, 230.190553638886, -0.000624410282265575, 1.7925,167.935684204102
0.090668005, 230.199144868002, -0.000624341285743025, 1.8075,177.122711181641
0.091334705, 230.207261302612, -0.000507422158466463, 1.82,175.361679077148
0.0920015616666667, 230.215737836897, -0.00022962711180626, 1.83375,176.57177734375
0.0926679983333333, 230.224267879309, -0.000319916576657752, 1.84625,176.57177734375
0.093334655, 230.232981194287, -0.000744096770512484, 1.85875,169.086898803711
0.0940013983333333, 230.241637821063, -0.000945874135462415, 1.8725,166.347381591797
0.0946681733333333, 230.250520400492, -0.00114394518655302, 1.88625,178.510192871094
0.0953347666666667, 230.258981377168, -0.00120158279150142, 1.9,181.811416625977
0.0960013566666667, 230.267087208823, -0.00130683850462036, 1.9125,181.811416625977
0.0966682366666667, 230.275461102111, -0.000736850634530116, 1.92625,170.25114440918
0.0973347483333333, 230.283668185307, -0.000542086917301302, 1.94,174.360244750977
0.0980015533333333, 230.292020870168, -0.000506316714011229, 1.9525,170.888229370117
0.0986679966666667, 230.300333685431, -0.000414512325278652, 1.96625,170.888229370117
0.0993348633333333, 230.308499611475, -0.000152136504119448, 1.97875,169.629989624023
0.10000176, 230.316982201896, -0.000392530929365679, 1.9925,174.320602416992
0.100667986666667, 230.324943563875, -0.000516357209709473, 2.005,170.917541503906
0.101335163333333, 230.332431826513, -0.000336802728543948, 2.0175,199.776077270508
0.10200153, 230.340755122827, -0.000695826195120251, 2.03125,174.265380859375
0.102668288333333, 230.348556219507, -0.000765404700262124, 2.045,174.265380859375
0.103334748333333, 230.356391494541, -0.000685854695987065, 2.0575,178.584930419922
0.104001326666667, 230.364961970019, -0.000748095569672955, 2.07125,175.386947631836
0.104668336666667, 230.373055981738, -0.000877756556944364, 2.085,168.073974609375
0.105334758333333, 230.38083959987, -0.000755314707101081, 2.0975,178.765335083008
0.106001326666667, 230.38901932995, -0.000718068577943153, 2.11125,178.765335083008
0.106668221666667, 230.396526506627, -0.00060925654346897, 2.125,170.551971435547
0.107334705, 230.404869219218, -0.000722412359758881, 2.1375,164.555404663086
0.10800148, 230.413393807907, -0.000747735587794919, 2.15125,161.417922973633
0.108668253333333, 230.421873616122, -0.000718260568309278, 2.165,161.417922973633
0.109334713333333, 230.429857624694, -0.000858695514375887, 2.1775,172.682800292969
0.110001318333333, 230.438138688577, -0.000797858570165241, 2.19125,166.176116943359
0.11066806, 230.445386597749, -0.00063228038701224, 2.205,162.941223144531
0.111334711666667, 230.452725472098, -0.000589564032599196, 2.21875,164.221343994141
0.11200134, 230.459828869911, -0.000502605900399947, 2.23125,160.694808959961
0.112668061666667, 230.467699667931, -0.000443466870911346, 2.245,160.694808959961
0.113334645, 230.47488841522, -0.00049642921066588, 2.2575,164.667449951172
0.114001361666667, 230.482568745161, -0.00047348336319158, 2.27125,163.942443847656
0.114667946666667, 230.490360860152, -0.000461573961368065, 2.285,161.819702148438
0.115334691666667, 230.498165602281, -0.000443634862402003, 2.29875,167.636352539063
0.116001341666667, 230.505742731906, -0.000511512452994278, 2.3125,167.636352539063
0.116668046666667, 230.513444551816, -0.000453102386850678, 2.32625,167.072860717773
0.11733463, 230.521255956954, -0.000383103902833384, 2.33875,199.322555541992
0.118001328333333, 230.528807563091, -0.000400707018669354, 2.3525,164.35954284668
0.11866832, 230.536662083942, -0.00052389433111109, 2.36625,163.566955566406
0.119334701666667, 230.544675966871, -0.000451866449036123, 2.37875,163.566955566406
0.120001333333333, 230.553104901686, -0.00075257134494244, 2.3925,164.62336730957
0.120668001666667, 230.560833724727, -0.000637753612116162, 2.405,161.107528686523
0.121334633333333, 230.56892990705, -0.000364497337486618, 2.4175,161.342224121094
0.122001998333333, 230.576321897147, 5.26152113897337E-05, 2.43125,165.109313964844
0.122668206666667, 230.584192570743, 0.000118010426712044, 2.44375,165.109313964844
0.123334696666667, 230.591551841883, 0.000422772618809305, 2.4575,170.450759887695
0.124001323333333, 230.599343942038, 0.000277002440705127, 2.47125,166.947830200195
0.12466802, 230.606876222352, 0.000189723324619818, 2.48625,169.683303833008
0.125334678333333, 230.61496966739, -2.32914758721891E-05, 2.49875,160.600051879883
0.12600134, 230.622557712558, -0.000126456294011672, 2.51125,160.600051879883
0.12666799, 230.630308536253, 2.95868681157623E-05, 2.525,157.824447631836
0.127334791666667, 230.637783478563, 0.000272832650098923, 2.53875,157.22314453125
0.128001495, 230.645619583281, 0.000492480117449858, 2.5525,164.661865234375
0.12866866, 230.653628719238, 0.000335955479525216, 2.56625,153.075469970703
0.12933487, 230.662062643642, 0.00043841383314324, 2.5775,153.075469970703
0.130001276666667, 230.671132315257, 0.00041408055536213, 2.59125,165.229522705078
0.130667991666667, 230.680643239332, 0.000325779990609424, 2.605,153.031951904297
0.131334673333333, 230.690372015029, 0.000154106113618878, 2.6175,154.73747253418
0.132001261666667, 230.700282332109, 0.000310443260971859, 2.63125,150.877319335938
0.13266812, 230.70987550302, 0.000466040945466509, 2.645,150.877319335938
0.133334656666667, 230.720253616603, 0.000369061816628767, 2.6575,158.149658203125
0.134001355, 230.730614980029, 7.2321221642899E-05, 2.67125,190.231033325195
0.134668148333333, 230.741177629517, 2.09323028211777E-05, 2.68375,154.733947753906
0.135334651666667, 230.7518082809, 0.000109886834719975, 2.69625,153.394622802734
0.136001525, 230.763098914462, 6.2813199192828E-05, 2.71,153.394622802734
0.136668298333333, 230.773306491169, 0.000265887998964118, 2.7225,152.725173950195
0.137334698333333, 230.784160321075, 0.000647320340014593, 2.73625,156.327224731445
0.138001323333333, 230.795184531489, 0.000352277659708262, 2.75,156.437942504883
0.13866801, 230.806406138526, 0.000475445473132756, 2.7625,155.221725463867
0.139334745, 230.817241933939, 0.000351916177905823, 2.77625,155.221725463867
0.140001391666667, 230.828625922834, 0.000469616765902753, 2.78875,157.495178222656
0.140667988333333, 230.839491673894, 0.000475157487583568, 2.8025,160.142318725586
0.14133476, 230.849842900361, 0.000944320422028494, 2.815,153.892532348633
0.142001471666667, 230.859966266869, 0.000872855011689766, 2.8275,158.887725830078
0.142667998333333, 230.870176459988, 0.000813864474717088, 2.84125,158.887725830078
0.143334735, 230.879954477876, 0.000803745982971128, 2.855,155.337326049805
0.144001413333333, 230.890088916581, 0.000603296051394384, 2.86875,166.937164306641
0.144668068333333, 230.899965407122, 0.000740083180717155, 2.8825,159.28125
0.145334725, 230.910018566617, 0.00113560281416474, 2.89625,155.449172973633
0.146002216666667, 230.920389425983, 0.0013060137545952, 2.90875,155.449172973633
0.14666796, 230.930468499288, 0.00132289390669877, 2.9225,165.192245483398
0.147334681666667, 230.941003975383, 0.00140813012538552, 2.935,160.729354858398
0.148001258333333, 230.952112513665, 0.000922202532994825, 2.94875,165.61376953125
0.148668036666667, 230.963270992919, 0.000583546543333524, 2.96125,154.566528320313
0.149334788333333, 230.974442115363, 0.000530033731216724, 2.97625,154.566528320313
0.150001323333333, 230.985600736847, 0.000254865052654216, 2.9875,164.389709472656
0.150668221666667, 230.996509624275, 0.000497828848807056, 3.00125,186.95036315918
0.151334698333333, 231.007490559847, 0.00103283697589527, 3.015,161.981292724609
0.152001353333333, 231.018811566497, 0.00111813169163375, 3.02875,161.845321655273
0.15266799, 231.030252025129, 0.00107313095199322, 3.0425,161.845321655273
0.153334946666667, 231.041811799746, 0.00135024653274997, 3.055,161.599380493164
0.154001811666667, 231.053133040745, 0.00144032300829369, 3.06875,159.729446411133
0.154668108333333, 231.064818461591, 0.00120988508295787, 3.0825,158.248123168945
0.15533475, 231.076000467856, 0.00138968405186489, 3.09625,160.233062744141
0.156001445, 231.087186460752, 0.00127927309767927, 3.10875,160.233062744141
0.156668016666667, 231.0983175005, 0.00128752118337556, 3.1225,160.141830444336
0.15733469, 231.109425880581, 0.00107946213398333, 3.13625,155.407165527344
