Time (min), Depth (µm), Load (N), Position (µm), Acoustic (aJ)
8.93666666666667E-06, 228.624006988571, -0.000609406231762858, 0,162.668670654297
0.000666611666666667, 228.623581970461, -0.000424492519769312, 0.00250000000000077,158.241577148438
0.00133304666666667, 228.623535803038, -0.00039111319638186, 0.0162500000000006,158.932861328125
0.00199997666666667, 228.623422211102, -0.000646181384573147, 0.0350000000000003,172.047744750977
0.00266638666666667, 228.623966233363, -0.000509094270327216, 0.0487500000000002,172.047744750977
0.00333376, 228.626301819464, -0.000702812540055672, 0.0625000000000001,179.207122802734
0.00399980833333333, 228.630392162237, -0.000892659504219189, 0.0774999999999994,182.501190185547
0.00466637, 228.637281002878, -0.00103502635327851, 0.0925000000000006,179.648468017578
0.00533318166666667, 228.646616883321, -0.00115291293194396, 0.10625,186.88053894043
0.00599983, 228.657097323952, -0.00131333887394286, 0.118750000000001,186.88053894043
0.00666647666666667, 228.668836011892, -0.00153868905487392, 0.131249999999999,182.580413818359
0.00733333166666667, 228.680341311321, -0.00157394328410551, 0.14375,179.664123535156
0.00799984, 228.691643790907, -0.00152882255047022, 0.1575,180.141540527344
0.00866639166666667, 228.702512102021, -0.00113463635005092, 0.17,176.6650390625
0.00933306166666667, 228.714038712495, -0.000889058185153106, 0.18375,176.6650390625
0.00999984166666667, 228.725314715476, -0.000718615746267667, 0.1975,182.301025390625
0.0106664033333333, 228.736887986434, -0.000465789945441825, 0.21,184.245483398438
0.011333185, 228.748663335359, -0.000444994989923116, 0.22375,213.283950805664
0.01199999, 228.760439237507, -0.000295148016610753, 0.2375,178.295928955078
0.0126663833333333, 228.772080085781, -0.000147594428093544, 0.25,178.295928955078
0.01333325, 228.783753572467, -0.000127009462055054, 0.262500000000001,178.470932006836
0.01399998, 228.795583632008, -0.000269248817540101, 0.27625,186.469436645508
0.0146663566666667, 228.806982687435, -0.000531378651033409, 0.2875,188.90478515625
0.01533338, 228.816544985112, -0.000987022764515076, 0.302500000000001,188.008773803711
0.015999825, 228.825526412833, -0.000983898421387975, 0.3175,188.008773803711
0.0166667766666667, 228.834812323297, -0.000959211161426444, 0.328749999999999,193.137496948242
0.0173330216666667, 228.844176850989, -0.000813515979521175, 0.342500000000001,195.149703979492
0.018000085, 228.854019298144, -0.000489781240352721, 0.356250000000001,196.353469848633
0.0186663633333333, 228.865129098351, -0.000421777656110572, 0.368749999999999,203.074096679688
0.0193330716666667, 228.877107770903, -0.000596445382741373, 0.382499999999999,203.074096679688
0.01999999, 228.888619097806, -0.00020738592474007, 0.39875,212.274078369141
0.0208330783333333, 228.906199782427, -0.000447615358280689, 0.4125,200.179931640625
0.0214999916666667, 228.918639936269, -0.00053347404567981, 0.42625,203.001861572266
0.0221665733333333, 228.930628376761, -0.000557631832241975, 0.43875,206.02912902832
0.0228330466666667, 228.942680931306, -0.000821425082196053, 0.4525,200.142990112305
0.0234998016666667, 228.954219040585, -0.00119949609210622, 0.46625,200.142990112305
0.0241670066666667, 228.965985824917, -0.00110241796823661, 0.47875,201.299026489258
0.0248330683333333, 228.977122496507, -0.00125980956261511, 0.4925,206.227951049805
0.0255002016666667, 228.988525451945, -0.00110398538953557, 0.50625,205.033767700195
0.0261663833333333, 229.000121904867, -0.00126055052544036, 0.51875,201.104049682617
0.0268332566666667, 229.01158768576, -0.00083814024265777, 0.5325,201.104049682617
0.02749979, 229.022896339605, -0.000897733749325574, 0.545,204.357666015625
0.0281663816666667, 229.034579212413, -0.00102423439532671, 0.55875,199.414306640625
0.028833365, 229.046123199778, -0.00106761971610863, 0.5725,198.919189453125
0.0295000183333333, 229.057838296653, -0.000935182368256688, 0.585,203.856414794922
0.0301664516666667, 229.069775684353, -0.00111435136878681, 0.59875,203.856414794922
0.0308330483333333, 229.081892761754, -0.000902563506690466, 0.611250000000001,199.630584716797
0.0315000033333333, 229.093811408338, -0.000500955679048606, 0.62625,198.469436645508
0.0321665616666667, 229.105444553597, -0.000302935625408967, 0.63875,201.090606689453
0.0328330416666667, 229.117166575978, -0.000231273724909649, 0.6525,194.585510253906
0.0334999133333333, 229.128830728468, -0.000573495035515117, 0.668749999999999,194.585510253906
0.0343330916666667, 229.14021380313, -0.000751072615955829, 0.682500000000001,199.375747680664
0.0349999883333333, 229.151321030991, -0.000951360555718276, 0.696250000000001,204.577285766602
0.035666375, 229.16245165006, -0.00112371539849417, 0.708749999999999,207.466049194336
0.0363333583333333, 229.173140306615, -0.00119932960047621, 0.722499999999999,199.630279541016
0.0369997933333333, 229.183386232858, -0.000783494987382715, 0.736250000000001,199.630279541016
0.0376664566666667, 229.193434063455, -0.000585690922899654, 0.750000000000001,201.855529785156
0.038333055, 229.204120842456, -0.00047808182798817, 0.762499999999999,212.476699829102
0.0389998283333333, 229.214377978222, -0.000419491770916179, 0.776249999999999,205.334716796875
0.03966638, 229.225200935281, -0.000361444686520675, 0.790000000000001,199.74821472168
0.040333045, 229.236023718336, -0.00072456144757987, 0.80625,207.409683227539
0.0411669583333333, 229.251929539654, -0.00128988905176279, 0.82,202.521438598633
0.04183361, 229.261856109385, -0.00118631025440299, 0.833749999999999,202.521438598633
0.042499855, 229.271539445295, -0.000972917472897602, 0.84625,205.13346862793
0.0431664466666667, 229.282153305952, -0.00151010649045073, 0.85875,203.835372924805
0.0438330916666667, 229.29194639529, -0.00117646474887717, 0.8725,211.65705871582
0.0445000266666667, 229.301864936065, -0.000836566821597433, 0.88625,248.470718383789
0.0451663783333333, 229.312180438224, -0.00112335691643427, 0.9,248.470718383789
0.04583316, 229.32275219526, -0.00122030304695639, 0.9125,211.194976806641
0.0465000116666667, 229.332598916133, -0.00120787317130119, 0.925,204.757766723633
0.0471685683333333, 229.343155623197, -0.00137763314445562, 0.93875,216.030792236328
0.0478331183333333, 229.35395301632, -0.00194907594149333, 0.9525,205.1826171875
0.0485001583333333, 229.364216147488, -0.00186325775203184, 0.965000000000001,205.1826171875
0.0491666383333333, 229.374089909394, -0.0018327402849159, 0.977499999999999,203.650939941406
0.049833435, 229.383689271735, -0.0014188930720393, 0.991250000000001,206.052474975586
0.050500325, 229.392736945784, -0.00134277339544836, 1.005,205.21418762207
0.051167015, 229.401931846025, -0.000940831084622061, 1.0175,211.220901489258
0.0518330583333333, 229.411400293237, -0.000938293212106667, 1.0325,211.220901489258
0.0525001683333333, 229.420658257234, -0.00106466036479341, 1.045,212.974395751953
0.053166895, 229.42991312139, -0.00113727621738323, 1.0575,208.417541503906
0.05383304, 229.438871286256, -0.00119550329270713, 1.07125,209.548034667969
0.054499875, 229.447351552048, -0.00118582277892943, 1.08375,209.70378112793
0.0551665083333333, 229.455760873377, -0.00126363287059915, 1.0975,209.70378112793
0.0558330866666667, 229.463907060814, -0.00111866515217824, 1.11,206.646728515625
0.0564998866666667, 229.472151288023, -0.00119348439405651, 1.12375,212.421035766602
0.05716668, 229.480644755826, -0.00121261293324439, 1.13625,206.985931396484
0.0578335466666667, 229.488992902856, -0.00115957559726969, 1.15,205.309387207031
0.05850032, 229.497391486496, -0.000985620334879219, 1.16375,205.309387207031
0.0591664633333333, 229.506546984467, -0.00105777121081902, 1.17625,207.687637329102
0.0598330916666667, 229.515727137743, -0.000805900862029335, 1.18875,203.610900878906
0.0604997133333333, 229.525386403067, -0.000824832911077878, 1.2025,208.032684326172
0.0611671533333333, 229.534718528697, -0.000838915703723033, 1.21625,247.518768310547
0.06183328, 229.544321185394, -0.000737717286816287, 1.23,247.518768310547
0.06249974, 229.553034197547, -0.000770136658436875, 1.2425,207.3828125
0.063166495, 229.562243153951, -0.000715648895309179, 1.255,201.014419555664
0.0638334666666667, 229.571255770725, -0.000588677272981655, 1.27,211.400466918945
0.06450044, 229.580948450467, -0.000528057817830736, 1.2825,201.159637451172
0.0651665566666667, 229.590114527737, -0.000650243180579808, 1.29625,201.159637451172
0.0658330516666667, 229.599597351157, -0.000476812891794236, 1.31,202.340240478516
0.0664998166666667, 229.608542145751, -0.000390490727669492, 1.3225,199.004318237305
0.0671663683333333, 229.617324821896, -0.000314066566360921, 1.3375,205.919067382813
0.0678332333333333, 229.625839639674, -0.000476752894775597, 1.35,202.535461425781
0.0684997766666667, 229.634385659884, -0.00046860530401433, 1.36375,202.535461425781
0.069166735, 229.642748206549, -0.00054798281696176, 1.3775,200.605239868164
0.0698330466666667, 229.65105806337, -0.000818119248301175, 1.39125,204.957275390625
0.0704997166666667, 229.659224892546, -0.000764628935071678, 1.40375,202.615264892578
0.0711665683333333, 229.667111817614, -0.000825677368686945, 1.41625,194.808364868164
0.07183315, 229.675286847189, -0.000900591105866387, 1.43,194.808364868164
0.07249972, 229.683632139658, -0.000879223179140617, 1.44375,198.719085693359
0.0731664266666667, 229.692429699307, -0.000703971981810677, 1.45625,200.897735595703
0.0738330466666667, 229.701658485569, -0.000548344298806708, 1.47125,201.259078979492
0.0744998916666667, 229.711455638613, -0.000308155363224977, 1.485,201.04817199707
0.0751670066666667, 229.721086609468, 6.86827085706638E-05, 1.4975,201.04817199707
0.0758331066666667, 229.731195770775, 0.000163180961999082, 1.51,201.477005004883
0.0764997166666667, 229.740826800968, -0.000201045743267302, 1.525,201.594497680664
0.0771663783333333, 229.75047772972, -0.00025523952121196, 1.5375,238.964569091797
0.0778330483333333, 229.760020160415, -0.000524171513021764, 1.55125,238.964569091797
0.078499975, 229.769623463455, -0.000780178654038268, 1.56375,202.343231201172
0.07916647, 229.778611266392, -0.000606542875566941, 1.5775,199.566116333008
0.079833065, 229.788169790652, -0.000500801186856325, 1.59125,205.58625793457
0.0805001583333333, 229.797427095664, -0.000536400398721918, 1.60375,203.285354614258
0.0811664783333333, 229.806366528244, -0.000479788742235381, 1.6175,204.656143188477
0.0818331033333333, 229.815529502003, -0.000612874057535797, 1.63125,204.656143188477
0.082499775, 229.824564698965, -0.000641684610404524, 1.64375,202.415481567383
0.0831665333333333, 229.833621415243, -0.000391878157933792, 1.6575,204.660491943359
0.0838330516666667, 229.842596183852, -0.000883403469132627, 1.67125,204.233123779297
0.0845000266666667, 229.851909888197, -0.000978476193756272, 1.685,206.327392578125
0.08516652, 229.86057847026, -0.000835414879549461, 1.69875,206.327392578125
0.0858330633333333, 229.869796743242, -0.00106022358762217, 1.71125,201.258453369141
0.0864999766666667, 229.87883180726, -0.0012770811950942, 1.72375,201.645126342773
0.0871666816666667, 229.887833006106, -0.00098647979168981, 1.7375,201.240112304688
0.0878330483333333, 229.896505822691, -0.000775548386555247, 1.75125,210.343307495117
0.088499985, 229.905343745525, -0.000938300711686175, 1.765,210.343307495117
0.0891672416666667, 229.913968321402, -0.000997193753530133, 1.7775,206.148529052734
0.08983304, 229.922825377532, -0.000860406624228616, 1.79,202.839874267578
0.0904997466666667, 229.931360344589, -0.00116661324380252, 1.805,205.127182006836
0.09116665, 229.939957504152, -0.00120398236674026, 1.8175,208.825500488281
0.0918339933333333, 229.948716342558, -0.00108844317016974, 1.83,208.825500488281
0.0924998966666667, 229.957638457226, -0.00108615278522339, 1.8425,207.987731933594
0.0931663866666667, 229.965779942664, -0.00121178647479193, 1.85625,209.226806640625
0.0938335116666667, 229.973953048369, -0.000755771879940145, 1.86875,251.200881958008
0.0944997466666667, 229.982019478883, -0.00096466338758872, 1.8825,207.770751953125
0.0951668366666667, 229.990557089118, -0.0012604350312613, 1.89625,207.770751953125
0.0958346316666667, 229.998480577805, -0.00143606570952903, 1.90875,205.749130249023
0.0965006133333333, 230.006887308286, -0.0014809734538353, 1.9225,210.954513549805
0.0971664633333333, 230.015374134084, -0.00193959641767068, 1.93625,207.562286376953
0.09783305, 230.024319055389, -0.00211791646083978, 1.95,201.741683959961
0.0985000366666667, 230.032345490494, -0.00184592912251045, 1.9625,201.741683959961
0.0991664283333333, 230.04010975814, -0.00153455976226911, 1.97625,204.574096679688
0.0998336316666667, 230.047864295036, -0.0013479541353149, 1.98875,209.929138183594
0.10050013, 230.0556047337, -0.00095480138297948, 2.0025,204.27458190918
0.101166648333333, 230.063166674433, -0.00071391798229277, 2.015,210.150482177734
0.10183322, 230.071203944911, -0.000803103502570923, 2.02875,210.150482177734
0.102499851666667, 230.08001900514, -0.00102111755194915, 2.0425,205.152359008789
0.103166655, 230.08856647849, -0.00131499479078161, 2.055,204.647750854492
0.103833273333333, 230.097646700143, -0.00140577923074994, 2.06875,209.837554931641
0.104500466666667, 230.106127289365, -0.00112513582718036, 2.0825,204.853561401367
0.10516641, 230.114541383526, -0.000905518358338744, 2.095,204.853561401367
0.105833191666667, 230.122861826101, -0.00074706181744264, 2.1075,218.410186767578
0.106500183333333, 230.131511510313, -0.000623337532000776, 2.1225,206.38053894043
0.107166676666667, 230.140740241761, -0.000728798734784221, 2.135,208.375518798828
0.107833091666667, 230.14974807057, -0.00102010660268882, 2.14875,188.839645385742
0.108499768333333, 230.158989975072, -0.00108940912167673, 2.1625,188.839645385742
0.10916706, 230.167923068861, -0.00113325041956225, 2.175,190.616668701172
0.109833091666667, 230.176381712006, -0.000961210560911035, 2.1875,201.535583496094
0.11049995, 230.18433031976, -0.000821884059148467, 2.2025,237.28205871582
0.111166633333333, 230.19258005987, -0.000956683788339364, 2.215,196.994964599609
0.111833195, 230.200418769611, -0.00105775321170492, 2.2275,196.994964599609
0.112500441666667, 230.209319566579, -0.00126330438709107, 2.2425,196.818008422852
0.113167236666667, 230.217768854818, -0.00126317389368924, 2.255,194.522232055664
0.113833085, 230.22611611063, -0.0012063282489958, 2.26875,188.446640014648
0.114500225, 230.234811648537, -0.000878668206983887, 2.2825,195.246170043945
0.11516639, 230.243640829118, -0.00119715920952463, 2.29625,195.246170043945
0.115833756666667, 230.252039075926, -0.00120410836047515, 2.30875,193.842269897461
0.116500021666667, 230.26025085922, -0.00117296842458308, 2.3225,192.8017578125
0.117166388333333, 230.268489924542, -0.00119387437448638, 2.33625,194.12077331543
0.117833358333333, 230.276195213348, -0.0011333854128223, 2.34875,197.92155456543
0.118499705, 230.283869674538, -0.000752332552709615, 2.3625,197.92155456543
0.119167071666667, 230.291382195773, -0.000359971760586643, 2.37625,191.171661376953
0.119833438333333, 230.299779973141, -0.00043882130005911, 2.38875,195.311386108398
0.12049995, 230.308118540206, -0.000724190966273519, 2.4025,189.846954345703
0.121166476666667, 230.316823367247, -0.00108838167335423, 2.41625,191.254425048828
0.12183309, 230.32521128698, -0.000723277512163156, 2.42875,191.254425048828
0.122499961666667, 230.333709507164, -0.00104312744642579, 2.44125,191.92529296875
0.123166961666667, 230.341881124059, -0.000960616590847345, 2.455,192.50358581543
0.12383319, 230.349819093753, -0.000714216467227764, 2.46875,182.783294677734
0.124499955, 230.357845271561, -0.000293052621836828, 2.4825,192.490142822266
0.125167031666667, 230.366120854675, -0.00029291762861928, 2.49625,192.490142822266
0.125833821666667, 230.374426894498, 1.0212645493441E-05, 2.5075,188.905578613281
0.126499765, 230.382965225775, -0.000359832267532123, 2.5225,187.875503540039
0.127166386666667, 230.391709663491, -0.000693232521191737, 2.535,231.085372924805
0.127833066666667, 230.40022025564, -0.000883604459023918, 2.54875,186.826599121094
0.128499718333333, 230.408921401997, -0.000970289604918012, 2.56125,186.826599121094
0.129166483333333, 230.416911835167, -0.00101353693267608, 2.575,187.020919799805
0.129833148333333, 230.42511413955, -0.000362739121556989, 2.5875,180.895660400391
0.130499953333333, 230.433205831802, -3.94963577203282E-05, 2.60125,180.088851928711
0.131166686666667, 230.441775869132, 2.26515206313056E-05, 2.615,178.533050537109
0.13183309, 230.450278079578, -2.14042665076422E-05, 2.6275,178.533050537109
0.13249999, 230.459187689793, -8.16292414554881E-05, 2.64125,177.352310180664
0.133166921666667, 230.46837456812, -0.000436232430135259, 2.65375,182.138610839844
0.13383349, 230.477496022275, -0.000338096859370063, 2.6675,177.881652832031
0.134500243333333, 230.486571725573, -0.000194137090296922, 2.68125,179.914276123047
0.135166653333333, 230.495920702389, -0.000277894383245758, 2.69375,179.914276123047
0.135833065, 230.505547151773, -0.000150076803384764, 2.70625,184.150939941406
0.136499906666667, 230.515135186533, -6.55965467460324E-05, 2.72125,178.929870605469
0.137166398333333, 230.524811832425, -5.55245526778283E-05, 2.73375,184.219360351563
0.137833425, 230.534382463106, 0.000151312058134455, 2.74625,182.819793701172
0.138499731666667, 230.544729458098, -7.5304059184245E-05, 2.76,182.819793701172
0.139166673333333, 230.55463496465, -5.94843537825601E-05, 2.7725,180.486221313477
0.139833468333333, 230.564669067439, 5.44964210779217E-05, 2.78625,183.277282714844
0.140499853333333, 230.574919775631, -7.46920899001912E-05, 2.79875,189.495025634766
0.141166656666667, 230.585335328483, -0.000667864295508617, 2.8125,175.457748413086
0.14183379, 230.594907448015, -0.000232299673477781, 2.82625,175.457748413086
0.142499746666667, 230.60486624011, -0.000376971906769995, 2.8375,175.896240234375
0.143166645, 230.614321774687, -0.000469737747257601, 2.85125,176.628646850586
0.143833151666667, 230.623848870571, -0.00039784335843327, 2.865,217.980911254883
0.144500305, 230.633596216681, -0.000129035860348937, 2.87875,187.72346496582
0.145166716666667, 230.643645053516, -0.000256244470774684, 2.89125,187.72346496582
0.14583318, 230.654261084626, -0.00028524851393394, 2.905,181.17204284668
0.146500216666667, 230.66433938451, -0.000143316643036576, 2.9175,183.729583740234
0.147166853333333, 230.67488827997, -0.000327912370971615, 2.9325,178.860961914063
0.147833068333333, 230.685559421757, -0.000229079335252634, 2.945,189.218887329102
0.14850018, 230.696636885094, -0.000278507852475469, 2.95875,189.218887329102
0.149166631666667, 230.706883292015, -0.000118534887752622, 2.97125,188.45231628418
0.149833078333333, 230.718182668123, 7.10375902450982E-05, 2.985,185.021682739258
0.15050002, 230.72918568735, 0.000286495767972586, 2.99875,182.495498657227
0.151166721666667, 230.740550032619, 0.000181217555987593, 3.01125,186.502212524414
0.151833078333333, 230.750872750216, 0.000222157999609622, 3.02625,186.502212524414
0.152500078333333, 230.762133676935, 8.75667599957945E-05, 3.03875,180.641555786133
0.153166373333333, 230.772848952509, -0.000142139202103715, 3.05125,179.445755004883
0.153833148333333, 230.784085706107, -5.20927250268055E-05, 3.065,179.039749145508
0.154500436666667, 230.794600181021, 0.000120175122091193, 3.07875,179.039749145508
0.15516671, 230.805473870092, 0.000142417504871587, 3.0925,179.328857421875
0.15583357, 230.81602194254, 0.000432787919875368, 3.105,179.259613037109
0.156499713333333, 230.827114059128, 0.000397559189358633, 3.11875,180.136276245117
0.157166601666667, 230.837114051713, 0.00030042256841604, 3.13125,178.508850097656
