Time (min), Depth (µm), Load (N), Position (µm), Acoustic (aJ)
8.39166666666667E-06, 228.80131810384, 8.50115402726326E-05, 0,170.545074462891
0.000668091666666667, 228.801713087009, -0.000195847852453525, 0.00375000000000028,176.166656494141
0.00133431333333333, 228.802408840411, -0.000117913267015823, 0.0175000000000002,177.766571044922
0.002000985, 228.803297588199, -0.000111223603050826, 0.0337500000000008,178.956176757813
0.00266782, 228.805442727869, -0.000255081377222038, 0.0499999999999997,178.956176757813
0.00333432833333333, 228.808654236374, -0.000580041554797987, 0.0625000000000001,190.109100341797
0.00400095833333333, 228.813203077591, -0.000447758699244601, 0.0800000000000002,197.095397949219
0.004834285, 228.82172487101, -0.000579440085027264, 0.0949999999999996,200.259963989258
0.005501485, 228.828317543546, -0.000473621900129574, 0.108749999999999,195.312164306641
0.00616781, 228.83598271851, -0.000405879302797354, 0.122499999999999,192.960418701172
0.00683428833333333, 228.844409603436, -9.5216407034972E-05, 0.13375,192.960418701172
0.00750113166666667, 228.853642496645, -0.000368027204010477, 0.1475,191.477874755859
0.00816756833333333, 228.863411977149, -0.000405957298823815, 0.16125,189.851867675781
0.00883421333333333, 228.873070283737, -3.71063258357852E-05, 0.17375,189.000427246094
0.00950125333333333, 228.883712807375, 5.01142931765426E-05, 0.1875,187.801498413086
0.010167545, 228.89454758893, -0.000206632310740801, 0.20125,187.801498413086
0.01083429, 228.905694403721, -0.0002584217094207, 0.215,190.792358398438
0.0116676533333333, 228.916892604474, -0.000190943098804708, 0.229999999999999,225.033401489258
0.0123343316666667, 228.928850699121, -0.000657131682647876, 0.2425,189.139343261719
0.01300101, 228.940128772305, -0.000923000828337382, 0.25625,193.306503295898
0.0136675583333333, 228.951513357942, -0.000877725602467299, 0.269999999999999,185.543640136719
0.0143344333333333, 228.962854995277, -0.000715955727990538, 0.2825,185.543640136719
0.0150010383333333, 228.972333397348, -0.000637821652564695, 0.295,194.129425048828
0.0156675966666667, 228.981711340217, -0.000368432183684373, 0.30875,195.165130615234
0.0163343733333333, 228.991095229585, -0.000216839297984044, 0.3225,201.805404663086
0.0170010016666667, 229.001078926708, -0.000266147821275873, 0.33625,202.684936523438
0.0176680483333333, 229.010447690322, -0.000105432393867143, 0.351249999999999,202.684936523438
0.018501055, 229.028008600499, 5.86053667111721E-05, 0.36625,204.834762573242
0.0191674833333333, 229.03954571748, 3.05252771118479E-05, 0.378750000000001,203.107177734375
0.0198346366666667, 229.050841529701, 0.000405138960634883, 0.392500000000001,210.679244995117
0.0205009316666667, 229.062530891325, 0.000254630520554413, 0.404999999999999,209.221481323242
0.0211675483333333, 229.073973434798, 0.000419406244045401, 0.422499999999999,206.228637695313
0.02200182, 229.085449252393, 0.000347354363158728, 0.435,219.401306152344
0.02266757, 229.096678449422, 0.000419335747619702, 0.448749999999999,219.401306152344
0.0233342316666667, 229.107848412588, 0.000182380649646509, 0.46125,213.257522583008
0.0240010716666667, 229.118600608005, 1.26326759085575E-05, 0.475,217.653594970703
0.0246675816666667, 229.129842684806, -0.000333519937195472, 0.4875,217.25178527832
0.0253346933333333, 229.140843298283, -0.000477089725881259, 0.5025,217.25178527832
0.0260009483333333, 229.152011599481, -0.000100218655727492, 0.516249999999999,214.422912597656
0.0266675733333333, 229.163978527306, 0.000121852689862935, 0.52875,215.956573486328
0.0273346183333333, 229.175060681348, 0.000505797404713949, 0.5425,214.177520751953
0.0280008883333333, 229.186729700895, 0.000740877596885511, 0.556249999999999,254.791854858398
0.0286676266666667, 229.198511878097, 0.000702947502114682, 0.56875,213.239990234375
0.0293343566666667, 229.210235154846, 0.000378596293952726, 0.5825,213.239990234375
0.030001315, 229.221556056708, 0.000152914629707288, 0.593750000000001,210.655303955078
0.0306676583333333, 229.233417495489, 0.000232554629467797, 0.6075,206.280807495117
0.03133421, 229.244718354967, 0.000191980167463925, 0.6225,210.554138183594
0.03200089, 229.255591249533, 0.000527474315909298, 0.635,212.313140869141
0.032667645, 229.266842159914, 0.000485288934841278, 0.64875,212.313140869141
0.03333437, 229.278004044757, 0.000640480139737629, 0.6625,212.416305541992
0.0340009516666667, 229.289329500564, 0.000662137551915736, 0.67625,207.198913574219
0.0346675666666667, 229.300653762083, 0.000625447894860196, 0.68875,203.723678588867
0.0353345283333333, 229.312675267466, 0.000504217984104777, 0.7025,213.127639770508
0.0360013216666667, 229.324566715626, 0.000148524350235059, 0.71625,213.127639770508
0.0366686416666667, 229.335943683357, 3.38881083040832E-05, 0.73,209.194213867188
0.0373343233333333, 229.347519123377, -0.00042560931162843, 0.7425,217.582473754883
0.0380010016666667, 229.358428609803, -0.000389915604525432, 0.75625,209.992080688477
0.038667645, 229.369352731877, -0.000723989324369632, 0.76875,213.009063720703
0.0393346283333333, 229.379193651121, -0.000378711167320227, 0.7825,213.009063720703
0.040000995, 229.389585888991, -0.000562801420646352, 0.79625,225.055847167969
0.0406678116666667, 229.40044175558, -0.000653564861715543, 0.80875,220.123306274414
0.0413343716666667, 229.410819892783, -0.000797739119957097, 0.8225,217.899993896484
0.042001025, 229.421175058379, -0.00075055598988475, 0.8375,216.22721862793
0.04266773, 229.431914885187, -0.000855651211050037, 0.848750000000001,216.22721862793
0.043334265, 229.442034697421, -0.000697928133357159, 0.8625,217.636260986328
0.0440012983333333, 229.451852116617, -0.0002488866882251, 0.87625,219.834106445313
0.04466787, 229.462176552819, -0.000163087997844618, 0.888750000000001,271.210876464844
0.0453343583333333, 229.472918124217, -3.49001426509365E-06, 0.902500000000001,220.002471923828
0.0460012, 229.483699305642, 0.000255273988272189, 0.9175,220.002471923828
0.0466677916666667, 229.495005099697, 0.000215501985994093, 0.928750000000001,216.48698425293
0.047334595, 229.506155731369, -0.000138802717665667, 0.942500000000001,225.169006347656
0.04800129, 229.517100145531, -0.000313887423344337, 0.954999999999999,219.099304199219
0.048667845, 229.527365259364, -0.00030989762375154, 0.9675,222.550811767578
0.04933478, 229.537974083288, -0.000298966172808982, 0.98125,222.550811767578
0.0500008766666667, 229.548085232016, -0.000641038990856019, 0.99375,221.859161376953
0.0506679366666667, 229.557789729453, -0.000401876003778657, 1.0075,221.913497924805
0.05133427, 229.567937096079, -0.000331727527257276, 1.02125,222.607376098633
0.0520012033333333, 229.578032735319, -0.000438219178318299, 1.035,223.8232421875
0.052667545, 229.587886253822, -0.000343866417578251, 1.04875,223.8232421875
0.053334775, 229.597494487537, 2.8806363448157E-05, 1.06125,228.877426147461
0.0540013166666667, 229.607371317082, 7.56280116330484E-05, 1.07375,220.767166137695
0.0546680366666667, 229.616572454977, 0.00040553344085921, 1.0875,225.107421875
0.055334195, 229.625513119591, 0.000633280501369254, 1.10125,220.796096801758
0.05600097, 229.635138290736, 0.000215285996795007, 1.11375,220.796096801758
0.0566681633333333, 229.644415097056, 2.46260734561464E-05, 1.12625,218.454177856445
0.0573342366666667, 229.653093028967, -8.13826018407578E-05, 1.14,224.109619140625
0.0580009433333333, 229.661995435996, -0.000420310077861557, 1.1525,226.247543334961
0.0586676083333333, 229.671218929967, -0.000714754288203463, 1.16625,220.575073242188
0.05933486, 229.678932044314, -0.000421926996602064, 1.18,220.575073242188
0.0600012933333333, 229.687190088655, -0.000125639378807234, 1.1925,219.521774291992
0.0606675433333333, 229.695217455853, 3.36526200877553E-05, 1.20625,222.986022949219
0.0613342083333333, 229.703544400312, -5.92977111227059E-05, 1.22,261.361358642578
0.0620009583333333, 229.710836327387, 4.39121047488748E-05, 1.2325,215.611373901367
0.0626677733333333, 229.71902449988, 2.22919844096284E-06, 1.24625,215.611373901367
0.0633349016666667, 229.727111907337, -0.000123614480586533, 1.26,220.712738037109
0.0640013816666667, 229.737372551515, -0.000260863586668015, 1.2725,220.445617675781
0.0646679516666667, 229.747684011714, -4.73283123230609E-05, 1.28625,215.892364501953
0.0653345366666667, 229.758134049825, 4.54840257997923E-05, 1.3,221.653518676758
0.0660012116666667, 229.767659148397, 0.000111875191074644, 1.3125,221.653518676758
0.0666676566666667, 229.777147758609, 6.49860462703522E-05, 1.32625,215.902267456055
0.0673346633333333, 229.784448796966, 0.000112467661298948, 1.34,216.050842285156
0.0680012, 229.790779200735, 0.000265728463169494, 1.35375,214.003753662109
0.0686678283333333, 229.797927091697, 0.000112593654948821, 1.36625,219.10285949707
0.0693346083333333, 229.805149356867, 3.92728377831968E-05, 1.38125,219.10285949707
0.07000194, 229.81312311863, -9.90577140268299E-05, 1.3925,219.95491027832
0.0706675666666667, 229.820584841921, 7.33991236297417E-05, 1.4075,214.979019165039
0.0713343516666667, 229.829239361117, 1.93148402515383E-05, 1.42125,214.303436279297
0.0720009166666667, 229.837958850998, 0.000101908191629652, 1.43375,214.470779418945
0.0726679683333333, 229.847308446505, 9.00047895250042E-05, 1.44625,214.470779418945
0.073334525, 229.855874830346, 8.04547691916419E-05, 1.46,223.711532592773
0.0740014266666667, 229.865351315612, -0.000135445886319824, 1.47375,214.545944213867
0.0746676916666667, 229.87479741812, -0.000273065473856436, 1.4875,219.575607299805
0.0753342516666667, 229.884237310293, -0.000273920430872563, 1.50125,214.216766357422
0.07600095, 229.893702640883, -0.000197685260060056, 1.51375,214.216766357422
0.076667615, 229.903999327381, -0.000346423789047125, 1.5275,213.717636108398
0.0773342883333333, 229.914249649441, -0.000385405331058434, 1.54,221.330841064453
0.0780012933333333, 229.92337949208, -0.000282275011137717, 1.55375,263.255950927734
0.0786676183333333, 229.93302914662, -0.000250863588907405, 1.5675,216.100616455078
0.07933453, 229.941807450168, -0.000148757717609163, 1.58125,216.100616455078
0.0800013466666667, 229.950872655068, -0.000121909066157455, 1.59375,223.164520263672
0.0806685933333333, 229.959391426622, 1.04367862421225E-05, 1.6075,212.260482788086
0.0813342316666667, 229.968584697544, -2.40719804335237E-05, 1.62,217.958618164063
0.0820009066666667, 229.976873529378, -1.03041719555611E-05, 1.63375,215.602935791016
0.08266796, 229.986042579487, -3.82147700335549E-05, 1.6475,215.602935791016
0.0833344466666667, 229.994055337465, 0.000319610256774512, 1.66125,216.520843505859
0.0840009833333333, 230.003206020585, 0.000293058590439665, 1.675,216.254180908203
0.084667895, 230.011671552896, 6.49770467239327E-05, 1.6875,212.179901123047
0.0853345916666667, 230.020238036226, 0.000166058469505971, 1.70125,232.011245727539
0.0860012066666667, 230.028662753617, 8.23191756499734E-05, 1.71375,232.011245727539
0.0866681466666667, 230.037140881696, -8.2179061783904E-05, 1.7275,213.93782043457
0.0873349983333333, 230.045871721913, -0.00013915669984609, 1.74125,218.515243530273
0.0880011433333333, 230.054770794996, 8.94588170422184E-05, 1.755,224.691146850586
0.0886676283333333, 230.064442623069, -0.000110484140043717, 1.7675,223.504272460938
0.0893342616666667, 230.074238703763, -0.000589806064214745, 1.78125,223.504272460938
0.090000875, 230.084044715163, -0.000598163644434976, 1.79375,222.845474243164
0.0906677866666667, 230.092797436087, -0.000594097348676359, 1.8075,225.319641113281
0.0913342333333333, 230.101592687005, -0.000795253744817071, 1.82,224.81413269043
0.0920014433333333, 230.109409589087, -0.000898898538850613, 1.83375,228.41716003418
0.09266877, 230.117885840516, -0.000482576450262302, 1.84625,228.41716003418
0.0933342333333333, 230.12603794828, -0.000389011149961489, 1.85875,225.110610961914
0.0940013966666667, 230.134605341862, -0.0003891086450477, 1.8725,272.396850585938
0.0946679133333333, 230.143164569496, -0.000353756920729899, 1.88625,225.80436706543
0.09533432, 230.151790297291, -0.000339200151867044, 1.9,227.531814575195
0.09600095, 230.15952505334, -0.000788145601837294, 1.9125,227.531814575195
0.09666759, 230.167753387617, -0.00097864653318941, 1.92625,234.581512451172
0.0973348483333333, 230.175396523345, -0.00127678355807101, 1.94,226.474349975586
0.09800099, 230.183037782505, -0.00128799399497383, 1.9525,220.69905090332
0.0986678533333333, 230.190623037267, -0.00141178127726189, 1.96625,222.500900268555
0.099334575, 230.198611519499, -0.00134264225003393, 1.98,222.500900268555
0.100001195, 230.206176543033, -0.00160008931873261, 1.9925,222.33918762207
0.10066765, 230.213305991771, -0.00128999639434974, 2.005,221.84928894043
0.101334353333333, 230.220833655961, -0.00119520265575012, 2.01875,229.580749511719
0.102001261666667, 230.228600688947, -0.00127846647348526, 2.03125,219.233001708984
0.102667743333333, 230.235852846321, -0.000878043586313265, 2.045,219.233001708984
0.103334211666667, 230.243434231411, -0.000822507375815151, 2.0575,226.393356323242
0.104000925, 230.251286838654, -0.000858781553832243, 2.07125,226.701950073242
0.104667746666667, 230.259146190512, -0.000893263321826122, 2.085,223.423538208008
0.105334518333333, 230.267067159523, -0.000755060263632881, 2.0975,229.031982421875
0.106001243333333, 230.274603835158, -0.000839471523770316, 2.11125,229.031982421875
0.106667845, 230.282372463677, -0.000696698195133946, 2.125,222.084854125977
0.107334216666667, 230.290779323354, -0.000429024640089763, 2.1375,221.690338134766
0.108001671666667, 230.299116943624, -0.000137971759333721, 2.15125,211.306381225586
0.108667543333333, 230.307193114844, 0.00023875831788363, 2.165,200.714752197266
0.109334233333333, 230.315797394035, 0.000598456750611432, 2.1775,200.714752197266
0.110000913333333, 230.324430326111, 0.000895480831373277, 2.19125,204.211517333984
0.110667915, 230.332786819478, 0.000780318115912996, 2.20375,249.255462646484
0.111334325, 230.340786960106, 0.000811870531037214, 2.2175,210.038116455078
0.112001103333333, 230.349619824162, 0.000538168778774887, 2.23125,206.749176025391
0.112667553333333, 230.357931164296, 0.000358786788958244, 2.24625,206.749176025391
0.113334561666667, 230.366377492149, 0.000610310655189518, 2.25875,210.058959960938
0.114001013333333, 230.374703323226, 0.00081828720871831, 2.2725,207.869216918945
0.114668125, 230.383589745437, 0.000522140583881149, 2.28625,211.239395141602
0.115334373333333, 230.392070972668, 0.000590384156112836, 2.29875,206.933746337891
0.11600125, 230.400390438902, 0.000518156784007219, 2.3125,206.933746337891
0.116667675, 230.409043271896, 8.65654624007439E-05, 2.325,219.703689575195
0.11733429, 230.417628002178, -0.000269603647611077, 2.33875,207.002456665039
0.118001791666667, 230.425770248644, -0.000453440413713051, 2.3525,214.052658081055
0.118667936666667, 230.433467417871, -0.000485691793779221, 2.36625,209.104507446289
0.119334566666667, 230.441715994276, -0.000404008896641409, 2.37875,209.104507446289
0.120000883333333, 230.449058007681, -9.89272206037465E-05, 2.3925,208.405670166016
0.12066792, 230.45680554615, -0.000321183056917029, 2.405,206.119201660156
0.121334376666667, 230.464224152051, -0.000214248928093282, 2.41875,211.656005859375
0.122000991666667, 230.471742830131, -0.000163984952765291, 2.43125,203.034851074219
0.12266762, 230.479433825749, -0.000569552581533136, 2.44375,203.034851074219
0.123334538333333, 230.487406236528, -0.00103246532988447, 2.4575,206.657043457031
0.124001226666667, 230.495001357412, -0.00064689169685522, 2.47125,204.531890869141
0.124667973333333, 230.502602569752, -0.00070211142321923, 2.48625,208.336059570313
0.125335123333333, 230.510661142752, -0.000589927558112663, 2.49875,203.578659057617
0.126001388333333, 230.518456925394, -0.000390746562793615, 2.51125,203.578659057617
0.12666788, 230.526484919975, -0.000282399504969458, 2.525,199.023818969727
0.12733455, 230.534459760485, -0.000244524907380295, 2.53875,233.7392578125
0.128001743333333, 230.543488044265, -3.81157750867022E-05, 2.55125,202.559341430664
0.128667673333333, 230.551926396735, 7.48343453950124E-06, 2.565,201.414611816406
0.129334541666667, 230.561059981985, 0.00029503249125191, 2.5775,201.414611816406
0.130000878333333, 230.570186814269, 0.000339592253054115, 2.59125,192.626663208008
0.130667566666667, 230.579589243494, -7.80452694271402E-05, 2.605,188.557846069336
0.131334516666667, 230.588330853182, -0.000115003413057134, 2.6175,187.859924316406
0.132000926666667, 230.597932960739, -0.000473600901081658, 2.63125,196.894744873047
0.132667925, 230.607050979584, -0.000818900057051455, 2.645,196.894744873047
0.133334335, 230.616161939849, -0.000617331181614831, 2.6575,188.563552856445
0.13400099, 230.625329168707, -8.22677629572936E-06, 2.67125,186.826583862305
0.134667908333333, 230.635127691587, 8.1194026565154E-06, 2.68375,186.487014770508
0.135334236666667, 230.644500342185, 0.000245282990185523, 2.6975,188.005889892578
0.136001485, 230.654764419566, 0.000690096147702159, 2.71125,188.005889892578
0.136667651666667, 230.664685182538, 0.000646232350886828, 2.7225,185.300750732422
0.137334273333333, 230.675096532962, 0.000460913659261894, 2.73625,190.027267456055
0.13800104, 230.685474702573, -5.30655241007024E-05, 2.75,181.218795776367
0.138667686666667, 230.695951888047, -5.70973215980447E-05, 2.7625,190.465423583984
0.139335343333333, 230.706209953918, -0.000500508049563839, 2.77625,190.465423583984
0.140000865, 230.716459720567, -0.00065435982175554, 2.78875,188.131393432617
0.140667728333333, 230.72641389857, -0.000767610133304111, 2.8025,190.776000976563
0.141334593333333, 230.736583077219, -0.000255204370895581, 2.815,189.888626098633
0.142001061666667, 230.746533969637, -0.000282868981328932, 2.8275,191.22575378418
0.142667576666667, 230.756180786141, -0.00020112758711814, 2.84125,191.22575378418
0.143334581666667, 230.766850718813, -0.000189977147170198, 2.855,192.737411499023
0.144001061666667, 230.777576310412, -0.000327521738444139, 2.86875,236.23844909668
0.14466782, 230.788396381936, -0.000609543572816616, 2.88125,191.193756103516
0.145334316666667, 230.798983497338, -0.000692060428092672, 2.89625,194.511459350586
0.146001023333333, 230.809545333822, -0.000381843009984328, 2.90875,194.511459350586
0.146667721666667, 230.819812823322, -0.000505259810881016, 2.92125,202.87467956543
0.147334605, 230.830032061328, -0.000472544954152986, 2.935,198.609298706055
0.148001236666667, 230.839792606276, -0.000531961469719951, 2.9475,198.897827148438
0.148667848333333, 230.850445543209, -0.000635957246127618, 2.96125,196.724014282227
0.149334603333333, 230.860630823771, -0.00126885495633638, 2.97625,196.724014282227
0.150001168333333, 230.871668369355, -0.00101683161521506, 2.98875,200.660903930664
0.150667928333333, 230.882293967801, -0.000895705199264724, 3.0025,198.349426269531
0.151334213333333, 230.892999377881, -0.000430266577729456, 3.015,194.820999145508
0.152000871666667, 230.903841395976, -0.000374268390451376, 3.0275,192.784774780273
0.152667693333333, 230.915097556434, 3.70589490239227E-05, 3.0425,192.784774780273
0.153334351666667, 230.925169970342, -4.68288373692515E-05, 3.055,189.860122680664
0.154001286666667, 230.935870143401, 1.63972812922849E-06, 3.06875,188.338394165039
0.154667661666667, 230.94657167712, -0.000222455015863768, 3.0825,192.712341308594
0.155334535, 230.957314498141, -0.000306306804092518, 3.095,188.198669433594
0.1560011, 230.967912441842, -0.000260376111194448, 3.1075,188.198669433594
0.15666768, 230.979295620408, -0.000241832542608857, 3.12125,191.760803222656
0.157334238333333, 230.989862300024, -0.000318787677262452, 3.135,190.580581665039
