Time (min), Depth (µm), Load (N), Position (µm), Acoustic (aJ)
8.74166666666667E-06, 228.881135982186, 0.000144605732343253, 0,164.963439941406
0.000666798333333333, 228.881057635193, 0.000600054855631242, 0.00375000000000028,169.323867797852
0.00133315166666667, 228.881855585001, 0.00069066380444439, 0.0149999999999994,171.262420654297
0.00199972166666667, 228.882760552275, 0.000896583961297505, 0.0337500000000008,187.324172973633
0.00266676166666667, 228.884474450372, 0.000686630507065153, 0.0499999999999997,185.475631713867
0.003333755, 228.887232505327, 0.000570842323001188, 0.0625000000000001,185.475631713867
0.00399997166666667, 228.890066479446, 0.000232199832659516, 0.0774999999999994,191.937561035156
0.00466672833333333, 228.893607566178, 0.000243650257509364, 0.0912499999999993,192.019668579102
0.005333155, 228.898183853385, 0.000214272733109935, 0.104999999999999,194.365966796875
0.0059998, 228.904059143677, 0.000545781581778228, 0.118750000000001,193.374755859375
0.00666656, 228.911760695876, 0.000728943381749958, 0.131249999999999,193.374755859375
0.007333135, 228.921011338235, 0.000645922551810645, 0.144999999999999,194.476501464844
0.00799993166666667, 228.931306608084, 0.000747156966924324, 0.1575,194.410369873047
0.00866657, 228.941879927207, 0.000648283433246455, 0.17125,230.08659362793
0.00933341, 228.952762790569, 0.000434407675998199, 0.18375,230.08659362793
0.00999983166666667, 228.963450005378, 0.000112948322553315, 0.1975,187.288925170898
0.0106665916666667, 228.974158920284, 0.000320264909259657, 0.21,192.295471191406
0.0113333416666667, 228.985190872515, 0.000165637676002693, 0.22375,189.84538269043
0.01199988, 228.996212285989, 0.000250525912164127, 0.23625,188.943603515625
0.0126667416666667, 229.007669631681, 0.000415129144306233, 0.25,193.350296020508
0.0133332233333333, 229.019135956496, 0.000429150440008346, 0.262500000000001,193.350296020508
0.0139998016666667, 229.030397354706, 0.000491313317625266, 0.27625,188.894378662109
0.0146667233333333, 229.041034673333, 0.000353131258394925, 0.2875,194.652801513672
0.0153331566666667, 229.050505754443, 0.000253746250389274, 0.302500000000001,197.074813842773
0.01599986, 229.059459647657, -0.000119602996649274, 0.316250000000001,202.896209716797
0.01666658, 229.069476828262, 4.84110641809549E-05, 0.328749999999999,202.896209716797
0.0173333516666667, 229.079247691794, -0.000239617968404258, 0.342500000000001,200.504379272461
0.018000035, 229.090043041507, 2.5601709869859E-05, 0.356250000000001,204.149322509766
0.0186666616666667, 229.102323517928, -0.000356030121168757, 0.368749999999999,204.912399291992
0.019333155, 229.114753931475, -0.000150517943817091, 0.382499999999999,206.401031494141
0.019999805, 229.126536766569, -0.000324479205926434, 0.395,206.401031494141
0.0206665383333333, 229.138623007008, -0.000285635657002733, 0.408749999999999,208.236373901367
0.0213331283333333, 229.149964592111, -0.000349644941878876, 0.422499999999999,211.517562866211
0.0219998483333333, 229.16200648641, 0.000283144773751603, 0.435,209.162841796875
0.0226665883333333, 229.173637518966, 6.26753477001581E-05, 0.448749999999999,208.63346862793
0.0233331383333333, 229.185035672735, 9.21293682441533E-05, 0.46125,208.63346862793
0.0239997666666667, 229.196921074447, -3.8544068148234E-05, 0.475,218.709854125977
0.02466671, 229.208957122943, -0.000179178504202984, 0.48875,209.877105712891
0.0253331616666667, 229.220689973476, -0.000484665159935797, 0.5025,252.826461791992
0.0260000433333333, 229.232505360804, -0.000268739005709476, 0.516249999999999,209.895721435547
0.0266664866666667, 229.244331972405, -0.000408666977285276, 0.52875,209.895721435547
0.0273331416666667, 229.255923970479, -0.000249617966164869, 0.5425,204.912261962891
0.0279997966666667, 229.267784249477, -0.000101764392681992, 0.556249999999999,210.784561157227
0.0286665166666667, 229.279447684021, 4.40987807351869E-05, 0.56875,209.173400878906
0.029333245, 229.291014873194, 4.55192094001213E-05, 0.5825,207.213836669922
0.029999935, 229.302412608727, 0.000193687767071444, 0.595,207.213836669922
0.0306667733333333, 229.313752425537, 0.000479177427195606, 0.6075,205.571319580078
0.031333365, 229.324691534972, 0.000472405267367175, 0.6225,203.515548706055
0.0319999433333333, 229.336794818264, 0.000248835497042844, 0.63625,207.343856811523
0.0326666333333333, 229.348521788368, 0.000407976003573104, 0.64875,207.749252319336
0.033333125, 229.360710882838, 0.000414799160852499, 0.6625,207.749252319336
0.03399984, 229.372751757134, -7.20238865557208E-05, 0.67625,202.045196533203
0.034666675, 229.385182075472, -9.47207465153182E-05, 0.69,201.320236206055
0.0353333516666667, 229.396299454395, -4.88875869183659E-06, 0.70375,205.441513061523
0.035999845, 229.407700082684, 7.80900733641846E-05, 0.71625,211.250061035156
0.036666775, 229.418894005473, 4.27023508607047E-05, 0.72875,211.250061035156
0.0373332683333333, 229.429877006575, 0.000554482644686806, 0.7425,206.828262329102
0.03799983, 229.441208629867, 0.00065835242740209, 0.75625,203.415222167969
0.03866667, 229.452285406998, 0.000659520868703515, 0.77,208.089981079102
0.03933317, 229.463794551252, 0.000240912894920812, 0.7825,209.288314819336
0.0400000466666667, 229.474533102129, 0.000305804135516102, 0.79625,209.288314819336
0.0406665766666667, 229.485288441308, -8.88905777671047E-06, 0.80875,214.056381225586
0.0413334283333333, 229.495333381443, -0.00017364678217486, 0.8225,253.812622070313
0.0419997766666667, 229.505596950721, -0.000259965946450797, 0.8375,206.603637695313
0.042666795, 229.515157714198, 1.22718793176476E-05, 0.848750000000001,207.865951538086
0.043333305, 229.524907552009, -0.000151660886509931, 0.8625,207.865951538086
0.043999745, 229.534761284243, -0.00030896698519745, 0.87625,213.155776977539
0.044666465, 229.54518531739, -0.000377635036035258, 0.888750000000001,212.859512329102
0.04533322, 229.555260082965, -0.000507275024365022, 0.902500000000001,216.18473815918
0.04599998, 229.56562774558, -0.000590039367167615, 0.91625,213.869110107422
0.0466664816666667, 229.576409702446, -0.000544245167368988, 0.928750000000001,213.869110107422
0.0473332383333333, 229.586785514242, -0.00047653556837364, 0.942500000000001,208.249435424805
0.047999855, 229.596566100401, -0.000475323629264521, 0.954999999999999,212.392669677734
0.0486667133333333, 229.606650839333, -0.000221144896414399, 0.9675,214.630523681641
0.0493332533333333, 229.616409762495, -0.000146310655249584, 0.982500000000001,212.019989013672
0.0499997716666667, 229.62614260959, -0.000105236718355665, 0.99375,212.019989013672
0.0506664983333333, 229.63571381758, -3.9711009631526E-05, 1.0075,209.236038208008
0.0513331166666667, 229.645707669651, 0.000108820529766639, 1.02125,212.453918457031
0.0519997516666667, 229.655869896839, 3.80210859692272E-05, 1.035,210.092590332031
0.05266653, 229.665881136776, -0.000167546588585359, 1.04875,213.930206298828
0.0533331616666667, 229.675437966012, -0.000277843548473817, 1.06125,213.930206298828
0.053999765, 229.685328251275, -0.000349212963650737, 1.07375,210.914535522461
0.054666545, 229.694770871424, -0.00052668704928637, 1.0875,206.556625366211
0.055333135, 229.703541418304, -0.000552340260754887, 1.10125,215.355987548828
0.0559999566666667, 229.712502231622, -0.000689766358000971, 1.11375,212.247894287109
0.05666648, 229.721331668165, -0.00045467266646727, 1.12625,212.247894287109
0.0573332116666667, 229.730009620805, -0.000401284348118449, 1.14,211.637435913086
0.0579998666666667, 229.738268701975, -0.000246861104644091, 1.1525,250.983016967773
0.0586665666666667, 229.746941932241, -6.10474379023194E-05, 1.16625,216.751815795898
0.0593340183333333, 229.755411926522, 0.000444827652527959, 1.18,215.80094909668
0.0599998566666667, 229.763743047898, 0.000463149232238106, 1.1925,215.80094909668
0.0606665766666667, 229.772511518524, 0.000525727588999745, 1.20625,207.133804321289
0.0613332516666667, 229.78094859869, 0.000438794955536605, 1.22,206.506973266602
0.0619998033333333, 229.789436977181, 0.000230243930876349, 1.2325,207.831237792969
0.0626667633333333, 229.797431419626, -0.000191872366701944, 1.2475,205.392517089844
0.0633333516666667, 229.805697650988, -0.000338289012330196, 1.26125,205.392517089844
0.0640006666666667, 229.814957953042, -0.000135074719568149, 1.2725,209.29541015625
0.0646666833333333, 229.82496355286, -0.000128178065992994, 1.28625,204.991287231445
0.0653331466666667, 229.833861322544, -0.000311479358976734, 1.3,206.056945800781
0.0659999766666667, 229.843205416277, -0.000219569975472167, 1.31375,209.204071044922
0.0666666833333333, 229.852074401174, -0.000331444856130409, 1.32625,209.204071044922
0.0673331383333333, 229.859427337891, -0.000429079452081154, 1.34,205.120864868164
0.0679998483333333, 229.865746909011, -0.000330078424807754, 1.35375,203.862915039063
0.0686665466666667, 229.873209118368, -0.000303898739788678, 1.3675,206.261993408203
0.06933379, 229.880564828354, -0.000302392815411503, 1.38125,215.499221801758
0.06999977, 229.888305735558, -0.000283672255746328, 1.3925,215.499221801758
0.0706664683333333, 229.895811926667, -0.000157492593609994, 1.40625,207.467163085938
0.0713333816666667, 229.904409417375, -0.000378633985879115, 1.42,207.300445556641
0.071999775, 229.912521510477, -7.48602441336338E-05, 1.43375,206.622482299805
0.0726664383333333, 229.921562914016, -0.000114930731452995, 1.4475,209.375457763672
0.07333331, 229.930727417304, -0.000125658192612947, 1.46,209.375457763672
0.0739997633333333, 229.94050779041, -0.000567964976047911, 1.47375,208.419235229492
0.0746665533333333, 229.950076261312, -0.000430546378423844, 1.4875,253.215087890625
0.07533327, 229.960016972351, -0.000852973160353611, 1.50125,211.252548217773
0.0759998183333333, 229.969583914572, -0.000684437125746032, 1.51375,213.310089111328
0.0766665933333333, 229.978763216365, -0.000549107923177023, 1.5275,213.310089111328
0.07733317, 229.987839412224, -0.000368599489899738, 1.54125,205.404571533203
0.0779997533333333, 229.997114663665, -0.000487308027286944, 1.55375,212.836334228516
0.0786664916666667, 230.005944514378, -0.000147311105017844, 1.5675,203.912155151367
0.0793331566666667, 230.01474483758, -3.95715166620231E-05, 1.58125,211.508911132813
0.0799999633333333, 230.02419255471, -0.000441320337240297, 1.595,211.508911132813
0.0806665566666667, 230.032841435754, -0.000593268705024198, 1.6075,210.518188476563
0.0813331633333333, 230.042024187378, -0.000515289121875654, 1.62125,210.089263916016
0.0820000333333333, 230.05121221652, -0.000561842283528599, 1.63375,203.103698730469
0.0826664766666667, 230.059782705027, -0.000692232234166263, 1.6475,207.561706542969
0.0833332983333333, 230.068442937105, -0.00029074740032547, 1.66125,207.561706542969
0.0839998, 230.077371432527, -0.000336549099767368, 1.67375,209.348220825195
0.0846664983333333, 230.085339337191, -0.000260432423025226, 1.6875,210.082168579102
0.0853334033333333, 230.093339696483, -0.000213414284701, 1.70125,208.220520019531
0.085999765, 230.101923049639, -0.000333211767396258, 1.71375,207.259292602539
0.0866667483333333, 230.110074576143, -0.000427257043633639, 1.7275,207.259292602539
0.0873333033333333, 230.118682218344, -0.000269722956415571, 1.74125,212.945556640625
0.0879998616666667, 230.127512924523, -0.000302142327993651, 1.755,215.297500610352
0.0886668216666667, 230.136704967108, -0.000485127136843288, 1.7675,214.788955688477
0.089333395, 230.145398917726, -0.000365655137786045, 1.78125,212.552047729492
0.089999835, 230.155004405453, -0.000431720819337865, 1.79375,212.552047729492
0.09066665, 230.163628437497, -0.000469247434422964, 1.80625,218.620162963867
0.0913334683333333, 230.17217781268, -0.000414392189731454, 1.82125,254.60400390625
0.0919997933333333, 230.180438993148, -0.000681705762876347, 1.83375,209.233596801758
0.0926665866666667, 230.188726692768, -0.00074502208255066, 1.84625,221.207626342773
0.0933331483333333, 230.195854346513, -0.000833723127204052, 1.85875,221.207626342773
0.0940000283333333, 230.204360618304, -0.000506291073807707, 1.8725,218.249557495117
0.0946664733333333, 230.212062121322, -0.000509503912453346, 1.88625,216.282730102539
0.0953332083333333, 230.220363773357, -0.000196325643062872, 1.9,209.125106811523
0.0959998083333333, 230.228421616928, -0.00043391820901372, 1.9125,213.880447387695
0.0966665683333333, 230.236582714126, -0.00046114784128511, 1.92625,213.880447387695
0.09733319, 230.243833311884, -0.000488572463750178, 1.94,212.810501098633
0.09799985, 230.25206184069, -0.000636889513937423, 1.9525,211.877777099609
0.0986664716666667, 230.259166223389, -0.000662959704432553, 1.96625,220.063873291016
0.0993332583333333, 230.266473667872, -0.000153903273832867, 1.98,213.398956298828
0.099999795, 230.274069671786, -0.000187125105136723, 1.9925,213.398956298828
0.100667271666667, 230.281721739962, -0.000110384459736556, 2.005,212.748840332031
0.101333188333333, 230.289108253156, -0.000212469332114407, 2.01875,210.341247558594
0.101999845, 230.296531037503, -0.000166361648051736, 2.03125,209.824172973633
0.102666661666667, 230.304410736371, -0.000454411679599849, 2.045,211.629470825195
0.10333316, 230.311981951516, -0.00043971091803679, 2.0575,211.629470825195
0.104000425, 230.319800704305, -0.000564291660461693, 2.07125,211.672439575195
0.104666533333333, 230.327628804636, -0.000377011067377233, 2.085,214.717208862305
0.105333146666667, 230.33580401329, -0.000488929445864423, 2.09875,217.675643920898
0.105999901666667, 230.343593654047, -0.000429850413351953, 2.11125,213.225204467773
0.10666671, 230.351000295656, -0.000408239498809093, 2.125,213.225204467773
0.107333258333333, 230.359231780004, -0.000832416692878782, 2.1375,247.001922607422
0.107999948333333, 230.366818457236, -0.000849773821070109, 2.15125,196.342651367188
0.108666535, 230.374519045633, -0.000816572988707899, 2.165,199.429763793945
0.109333346666667, 230.382468340145, -0.00101330010729939, 2.17875,197.335876464844
0.109999846666667, 230.3909373531, -0.00115140717035208, 2.19125,197.335876464844
0.110666598333333, 230.398024544666, -0.000698398424493269, 2.205,194.569046020508
0.111333351666667, 230.405797071187, -0.00094771740146918, 2.21875,202.551651000977
0.111999781666667, 230.413418582105, -0.00104809535959982, 2.23125,199.324142456055
0.112666465, 230.420645332062, -0.00100311411895528, 2.245,200.852142333984
0.113333286666667, 230.428096635396, -0.00103544949476678, 2.25875,200.852142333984
0.113999803333333, 230.435635271915, -0.00106233864411361, 2.2725,199.681686401367
0.114666655, 230.4434972225, -0.00103206716457856, 2.28625,200.461822509766
0.115333225, 230.451294810149, -0.000931053238394665, 2.29875,196.775833129883
0.115999806666667, 230.459290320316, -0.000886950953577962, 2.3125,200.852035522461
0.116666475, 230.467130809817, -0.000543558201864772, 2.325,200.852035522461
0.117333206666667, 230.475030559138, -0.000771027776338959, 2.33875,193.487213134766
0.11800075, 230.482370132319, -0.000605106110433848, 2.3525,201.390930175781
0.118666496666667, 230.490009653358, -0.000298167527644887, 2.36625,208.027328491211
0.119333231666667, 230.497949061225, -0.000405250149048319, 2.37875,201.423782348633
0.119999741666667, 230.50573809688, -0.000374525692300969, 2.3925,201.423782348633
0.120666605, 230.513357678027, -0.000270903397133476, 2.405,195.545288085938
0.121333346666667, 230.521170414004, -0.000180298948093538, 2.41875,200.462615966797
0.121999836666667, 230.528759071658, -0.000552370259327969, 2.4325,197.474502563477
0.12266667, 230.5356697989, -0.000141741884730859, 2.445,199.631454467773
0.123333171666667, 230.543353882744, -0.000318622000196532, 2.4575,199.631454467773
0.12400002, 230.550914885583, -0.000251492872030261, 2.4725,236.088012695313
0.124666655, 230.558344403489, -0.000343481751506947, 2.48625,201.21842956543
0.125333118333333, 230.566375208079, -0.000267309577561885, 2.49875,188.424255371094
0.125999851666667, 230.574527278017, -0.000400846370171444, 2.51125,191.622802734375
0.126666533333333, 230.58223472937, -0.000386754578001123, 2.525,191.622802734375
0.127333198333333, 230.590804381013, -0.000540547853119843, 2.53875,189.66552734375
0.128000085, 230.599378690638, -0.000333943730632573, 2.55125,189.772964477539
0.128666495, 230.608134335192, -0.000125698690571835, 2.565,192.79931640625
0.129333225, 230.617811014703, -0.000197527082701169, 2.57875,185.398406982422
0.129999863333333, 230.627567856032, -0.000240447426896818, 2.59125,185.398406982422
0.130666456666667, 230.637592132116, -2.74131274088217E-05, 2.605,183.535247802734
0.1313333, 230.647860827201, -0.000301095380632653, 2.6175,181.682159423828
0.131999845, 230.658000180768, -0.000217245092370814, 2.63125,180.289764404297
0.132666473333333, 230.668435253375, -0.000372062816005738, 2.645,179.236526489258
0.133333225, 230.679340771289, -0.000531471809046689, 2.6575,179.236526489258
0.133999901666667, 230.690360537751, -0.000619902867243733, 2.67125,175.358810424805
0.134666486666667, 230.701494019309, -0.000465128641416504, 2.68375,181.077209472656
0.135333315, 230.712128003871, -0.000275514165535492, 2.6975,181.466903686523
0.135999823333333, 230.722811407548, 0.000139185004550936, 2.71125,179.956161499023
0.136666573333333, 230.733096795269, 0.000394269691910659, 2.7225,179.956161499023
0.137333131666667, 230.743506930285, 0.000163188298899566, 2.73625,177.027969360352
0.13799989, 230.754190625081, 9.72441112244099E-05, 2.75,183.57502746582
0.138666783333333, 230.765615555445, -0.000296247624089905, 2.76375,183.21435546875
0.139333281666667, 230.776704120389, -0.000657117497967938, 2.77625,179.916610717773
0.139999746666667, 230.787596734498, -0.000814192608276101, 2.78875,179.916610717773
0.140666475, 230.797825560286, -0.00041148683577977, 2.8025,222.374801635742
0.141333421666667, 230.808727797078, -0.000493936194436424, 2.815,189.458892822266
0.141999848333333, 230.818588633084, -0.000330253916026698, 2.82875,184.769271850586
0.142666741666667, 230.828604076688, -0.00010668564562677, 2.84125,191.104232788086
0.143333296666667, 230.838792356563, -2.09019544478123E-05, 2.855,191.104232788086
0.143999793333333, 230.848697855525, -0.000115436206083163, 2.8675,192.237564086914
0.144666555, 230.858447675652, -0.000227101097261187, 2.88125,186.631896972656
0.145333263333333, 230.86859133867, -0.000495109135511059, 2.895,194.18635559082
0.146000706666667, 230.878199765855, -0.00047487215201914, 2.90875,191.460067749023
0.146666515, 230.888292643282, -0.000519595405623809, 2.9225,191.460067749023
0.147333255, 230.898876368204, -0.000710195331944031, 2.935,187.992660522461
0.147999806666667, 230.909423474548, -0.000769296863365058, 2.9475,198.33088684082
0.14866669, 230.920201150626, -0.000818123910838425, 2.9625,197.931518554688
0.149333253333333, 230.931436104815, -0.00114625642905862, 2.97625,190.000015258789
0.1499998, 230.942691153515, -0.000949700301891606, 2.9875,190.000015258789
0.150666778333333, 230.953724640652, -0.000938966841034041, 3.00125,185.278686523438
0.15133314, 230.964417067698, -0.000708311426595982, 3.015,191.156097412109
0.151999898333333, 230.975616206558, -0.00063848393396066, 3.02875,177.299407958984
0.152666573333333, 230.986725723284, -0.000644411636222531, 3.0425,181.261077880859
0.153333393333333, 230.997817081988, -0.000810792279122563, 3.055,181.261077880859
0.15399984, 231.008830271205, -0.00039722255228182, 3.06875,185.394454956055
0.154666733333333, 231.020006927146, -0.000482491769305444, 3.0825,184.316940307617
0.155333343333333, 231.031058319438, -0.000321764342480234, 3.095,182.24853515625
0.155999778333333, 231.041834216817, 1.23798738321739E-05, 3.10875,179.07763671875
0.156666458333333, 231.052527944344, -2.96435153790399E-05, 3.1225,179.07763671875
