Time (min), Depth (µm), Load (N), Position (µm), Acoustic (aJ)
8.75666666666667E-06, 228.968424591541, 0.000383781272634409, 0,150.084442138672
0.000667176666666667, 228.968357554342, -0.000119501947980704, 0.00375000000000028,150.084442138672
0.001331975, 228.969060012381, -8.08004457726173E-06, 0.0162500000000006,147.163772583008
0.00199880166666667, 228.969641733623, -0.000204001703636678, 0.0324999999999995,153.32405090332
0.00266531666666667, 228.9709759999, -0.00050628602017342, 0.0487500000000002,161.293411254883
0.00333249, 228.972896260029, -0.000214598671352292, 0.0625000000000001,160.330062866211
0.00399864666666667, 228.976917645199, -0.000496843994460855, 0.0762499999999999,160.330062866211
0.004665285, 228.982202148177, -0.00104778582124791, 0.0912499999999993,163.689743041992
0.00533249, 228.989554174853, -0.00124604286304953, 0.104999999999999,162.624450683594
0.00599870333333333, 228.997880170272, -0.000989615743136355, 0.1175,164.408432006836
0.006665345, 229.007807606488, -0.00124689182043181, 0.131249999999999,193.1953125
0.007332015, 229.017886261655, -0.00087395205279786, 0.14375,193.1953125
0.00799881, 229.028115542588, -0.000566960972612276, 0.1575,156.342742919922
0.00866550333333333, 229.038136678929, -0.000183115252771878, 0.17125,160.157669067383
0.00933207, 229.048539265087, 9.99704743389994E-06, 0.18375,153.503723144531
0.00999867, 229.05937285561, -1.34452750603871E-05, 0.19625,164.854125976563
0.0106653816666667, 229.070869230175, 5.72076225882666E-06, 0.21,164.854125976563
0.0113323716666667, 229.082873148623, 3.76406589681138E-05, 0.2225,154.366149902344
0.0119988683333333, 229.094878678086, -0.000177226548480729, 0.23625,157.823425292969
0.0126653783333333, 229.106961414852, -5.36087576714956E-05, 0.25,159.312637329102
0.0133324233333333, 229.119081071376, -0.000154189205639083, 0.262500000000001,159.750854492188
0.013998755, 229.130551052064, -0.00030664154812875, 0.27625,159.750854492188
0.0146653366666667, 229.141213845298, -0.000496827495313673, 0.2875,155.596633911133
0.0153323833333333, 229.150632665806, -0.00089315408823899, 0.302500000000001,160.470291137695
0.016165445, 229.160276286675, -0.00114623787612596, 0.31875,167.381530761719
0.0168319983333333, 229.169463497075, -0.00112056216574888, 0.332499999999999,158.945251464844
0.0174987866666667, 229.179006177219, -0.0010727670664775, 0.345,168.089721679688
0.018165385, 229.189256257421, -0.00102475447810388, 0.35875,168.089721679688
0.0188319916666667, 229.200729862268, -0.000732501657655197, 0.3725,166.85627746582
0.0194991383333333, 229.212228285089, -0.000521904735747577, 0.385,173.624221801758
0.0201668716666667, 229.223962989034, -0.000331534297861053, 0.39875,178.42219543457
0.020831965, 229.235743168649, -0.000463605664031071, 0.41125,178.839324951172
0.02149892, 229.247760551096, -0.000498753398566268, 0.425,178.839324951172
0.0221653783333333, 229.260055183067, -0.000467691458785677, 0.43875,172.74494934082
0.0228321333333333, 229.27185647911, -0.000537667443958176, 0.4525,171.615325927734
0.0234987483333333, 229.283915939355, -0.000837317892817716, 0.465,210.658416748047
0.0241653133333333, 229.295735424132, -0.00101538894849337, 0.47875,168.689315795898
0.024832405, 229.307464425051, -0.00122257504175538, 0.49125,168.689315795898
0.025498725, 229.319287015971, -0.00150452487971399, 0.505,177.921936035156
0.026166045, 229.330624311821, -0.00162781118714508, 0.51875,173.397033691406
0.0268321516666667, 229.342154429462, -0.0014577527289919, 0.5325,173.953231811523
0.0274987683333333, 229.353612366652, -0.00121130010803945, 0.545,175.418014526367
0.028165355, 229.364740253572, -0.000844399037094471, 0.55875,175.418014526367
0.028832445, 229.376230440404, -0.00077324561103162, 0.571250000000001,177.952575683594
0.029499685, 229.387766266066, -0.000852902109981819, 0.583749999999999,168.084823608398
0.03016544, 229.399009517092, -0.000959318764843934, 0.597500000000001,175.61865234375
0.0308320066666667, 229.410038684092, -0.000906656410033814, 0.611250000000001,173.079956054688
0.0314987983333333, 229.42135060432, -0.00103978072334746, 0.625000000000001,173.079956054688
0.032166345, 229.432946975567, -0.00103699536328427, 0.63875,171.881912231445
0.0328322816666667, 229.44479210183, -0.0010573508408253, 0.6525,173.336807250977
0.0334986916666667, 229.456862251289, -0.00112192409736209, 0.66625,167.541732788086
0.0341654016666667, 229.468698036528, -0.00139099108238944, 0.678750000000001,165.31901550293
0.0348320916666667, 229.480699131549, -0.00142452639795734, 0.6925,165.31901550293
0.03549868, 229.491917047877, -0.000954393012253471, 0.70625,174.442230224609
0.0361654016666667, 229.503165446863, -0.000773962575087664, 0.718750000000001,170.063232421875
0.0368321466666667, 229.513699387619, -0.000604882067815433, 0.7325,169.708419799805
0.0374987083333333, 229.525215710096, -0.000327279011521355, 0.744999999999999,175.655181884766
0.0381655233333333, 229.536238792519, -0.000360977818849209, 0.758750000000001,175.655181884766
0.03883202, 229.547300038419, -0.000431705266296518, 0.772500000000001,168.092956542969
0.0394987533333333, 229.55790250192, -0.000651196741467006, 0.78625,176.667098999023
0.0401655416666667, 229.568938571836, -0.000568265906970635, 0.798749999999999,209.766036987305
0.040832035, 229.578838247353, -0.000353190210008486, 0.812500000000001,171.858627319336
0.0414987283333333, 229.589277543782, -0.000213022250485657, 0.826250000000001,171.858627319336
0.0421654883333333, 229.599703772031, -0.000613530633348642, 0.840000000000001,173.141784667969
0.042832055, 229.610885633352, -0.000577332951518624, 0.852500000000001,174.275985717773
0.0434987933333333, 229.621158784185, -0.000934532509765516, 0.866250000000001,173.572647094727
0.04416544, 229.631898327561, -0.00126654233329077, 0.878749999999999,170.597320556641
0.0448321916666667, 229.641954341597, -0.00133198854602154, 0.892499999999999,170.597320556641
0.0454987433333333, 229.652524721476, -0.00126299351155755, 0.905,177.539962768555
0.046165375, 229.662281319572, -0.00120371948887265, 0.918749999999999,180.575073242188
0.0468320983333333, 229.672745362876, -0.00098998622446396, 0.932499999999999,168.64924621582
0.0474987766666667, 229.682842262644, -0.000880535222023956, 0.945,170.966003417969
0.04816538, 229.693358111849, -0.000785844978229412, 0.9575,170.966003417969
0.0488320816666667, 229.702580355242, -0.000732113177149737, 0.97125,174.628356933594
0.0494998366666667, 229.712476061598, -0.000734475558467441, 0.98375,173.512802124023
0.0501657266666667, 229.721704800759, -0.000813122608081706, 0.9975,174.816711425781
0.05083217, 229.730622138205, -0.000603166154021802, 1.01125,170.652725219727
0.05149885, 229.739407859933, -0.000535962029614114, 1.02375,170.652725219727
0.0521653583333333, 229.748747780345, -0.000587617934958361, 1.0375,182.089202880859
0.05283212, 229.757693948291, -0.000786824429056026, 1.05125,176.252685546875
0.0534989366666667, 229.766988214883, -0.000817766374863103, 1.06375,171.113479614258
0.0541655016666667, 229.77602567169, -0.00099687087860138, 1.0775,181.314956665039
0.0548321783333333, 229.785108319023, -0.00124384547330992, 1.09,181.314956665039
0.0554986666666667, 229.79366052537, -0.00143352744578908, 1.10375,173.865371704102
0.05616542, 229.802187863783, -0.00116249255956208, 1.11625,206.166320800781
0.05683265, 229.810792932447, -0.00121230805738722, 1.12875,178.361251831055
0.0574986983333333, 229.819403664251, -0.00147852368567764, 1.1425,178.224273681641
0.05816546, 229.827472398886, -0.00138240101380169, 1.15625,178.224273681641
0.0588320383333333, 229.836196145594, -0.00155733272716997, 1.16875,171.863571166992
0.0594986883333333, 229.844248107182, -0.00154323193545323, 1.1825,174.140289306641
0.060165425, 229.852170102909, -0.00164964409049963, 1.19625,169.544540405273
0.0608321416666667, 229.860063146798, -0.00150390541080792, 1.20875,173.068099975586
0.0614987766666667, 229.868222084695, -0.00153856117009634, 1.2225,173.068099975586
0.0621654116666667, 229.875644560846, -0.00123682432603055, 1.23625,170.028671264648
0.06283208, 229.882730388147, -0.00125579987286553, 1.25,171.185806274414
0.0634986983333333, 229.88945136046, -0.00106824479357276, 1.26375,170.491851806641
0.064165615, 229.896960373443, -0.00108809629642928, 1.27625,177.241027832031
0.064832135, 229.904511485294, -0.00131407794561914, 1.28875,177.241027832031
0.06549873, 229.912134318893, -0.00146240849512601, 1.3025,176.42333984375
0.066165545, 229.919607085336, -0.0014542849031977, 1.31625,171.106185913086
0.06683209, 229.927644395635, -0.0017922134293959, 1.32875,174.00569152832
0.0674987783333333, 229.934577299604, -0.0016662527562862, 1.3425,181.061248779297
0.0681655233333333, 229.941450433143, -0.00159719022524532, 1.35625,181.061248779297
0.06883204, 229.94899322417, -0.00173838863298197, 1.37,175.359970092773
0.0694987616666667, 229.957243967525, -0.00204945650835448, 1.38375,178.445068359375
0.0701657283333333, 229.965011263214, -0.00177617773481638, 1.39625,172.361618041992
0.0708321083333333, 229.973446435858, -0.00174418284190819, 1.41,172.288787841797
0.0714989033333333, 229.9817750887, -0.0018496125462154, 1.4225,172.288787841797
0.0721653416666667, 229.989604148775, -0.00144074958298099, 1.43625,170.682067871094
0.0728320683333333, 229.997726853903, -0.00128918969570255, 1.45,206.796615600586
0.0734987133333333, 230.005848461647, -0.0011524985615841, 1.4625,171.595565795898
0.0741655183333333, 230.01376376329, -0.00110495694955812, 1.47625,173.242034912109
0.074832145, 230.021539995588, -0.000815571985078563, 1.49,173.242034912109
0.0754986483333333, 230.02931812344, -0.000738684347023114, 1.50375,171.814987182617
0.0761653783333333, 230.037133857327, -0.000595492539393219, 1.5175,178.716430664063
0.0768320116666667, 230.044724993852, -0.000628754868677217, 1.53125,175.438339233398
0.0774987883333333, 230.052187637824, -0.000779624790602635, 1.54375,170.106246948242
0.0781653883333333, 230.059518877261, -0.000629708820767722, 1.5575,170.106246948242
0.078832235, 230.06702543765, -0.000847337389510552, 1.57125,174.376846313477
0.079498715, 230.074202471976, -0.000574832577134565, 1.585,171.056457519531
0.0801654033333333, 230.081299577583, -0.000609029359449317, 1.5975,179.113922119141
0.0808322016666667, 230.088694746379, -0.000682426672780762, 1.61,173.255111694336
0.0814987783333333, 230.09608326536, -0.000812428142912965, 1.62375,173.255111694336
0.0821653983333333, 230.10286191441, -0.000702635157730273, 1.6375,179.286743164063
0.0828321433333333, 230.110003524386, -0.000713116631266837, 1.65125,169.259857177734
0.0834986983333333, 230.117033321632, -0.000749113323205564, 1.665,175.28010559082
0.08416552, 230.12399197551, -0.000473871148326042, 1.6775,183.264465332031
0.0848323533333333, 230.130882428228, -0.000376247051867373, 1.69,183.264465332031
0.0854986933333333, 230.137528320344, -4.96954541807566E-05, 1.705,172.968734741211
0.0861653666666667, 230.143815182027, -0.000158294499368423, 1.7175,169.961959838867
0.0868325783333333, 230.150826395949, -0.000200457381570394, 1.73,172.73161315918
0.0874988383333333, 230.156900663549, -0.000229668414361061, 1.74375,174.362869262695
0.088165945, 230.162959725243, 0.000121096467090642, 1.7575,174.362869262695
0.0888320666666667, 230.170185206304, -0.000622539180866157, 1.77,182.451171875
0.08949874, 230.176842361068, -0.000941801144635187, 1.78375,211.662292480469
0.0901653566666667, 230.183362820655, -0.00106380801638027, 1.79625,178.168640136719
0.0908321766666667, 230.190080650681, -0.00119771079054423, 1.81,170.807342529297
0.0914998583333333, 230.197574893007, -0.00152064456993256, 1.8225,170.807342529297
0.0921654533333333, 230.204022468968, -0.00142661579290613, 1.83625,181.05632019043
0.0928320233333333, 230.211168848076, -0.00132927668219035, 1.85,180.017120361328
0.0934987083333333, 230.217982607057, -0.000920292225015511, 1.8625,170.115386962891
0.094165505, 230.225569075082, -0.00105846378479628, 1.875,172.722259521484
0.0948330133333333, 230.232533152655, -0.00123573688056188, 1.88875,172.722259521484
0.0954988466666667, 230.239772287619, -0.00104402850989511, 1.9025,174.9599609375
0.096166595, 230.246420376922, -0.000852585625847715, 1.91625,174.286499023438
0.0968320133333333, 230.253171203899, -0.00108537393312727, 1.92875,176.96662902832
0.097498675, 230.259645899651, -0.00109825978590734, 1.9425,181.974426269531
0.0981659716666667, 230.266343750415, -0.00116622587201815, 1.95625,181.974426269531
0.098832085, 230.272966390831, -0.00137494488825408, 1.96875,178.686737060547
0.0994987583333333, 230.279437606486, -0.00151187001062195, 1.9825,177.952301025391
0.100165405, 230.286249674825, -0.00152968011604683, 1.99625,176.404495239258
0.100832116666667, 230.292177322985, -0.00142489687917867, 2.0075,181.974487304688
0.10149881, 230.298375019878, -0.0014971977476013, 2.02125,181.974487304688
0.102165406666667, 230.304283787439, -0.00128236653833814, 2.035,173.968048095703
0.102832103333333, 230.310913011758, -0.00133265901220854, 2.0475,178.273742675781
0.103498768333333, 230.317093860105, -0.00168119200578687, 2.06125,176.975860595703
0.104165378333333, 230.324122447572, -0.00178329037750561, 2.07375,179.358779907227
0.10483232, 230.3301649633, -0.00163572928934513, 2.0875,179.358779907227
0.105498708333333, 230.336627863331, -0.0014416360384521, 2.10125,175.624557495117
0.106165443333333, 230.342812798576, -0.0010818506101089, 2.11375,211.464538574219
0.106832061666667, 230.349185717941, -0.000802936619652584, 2.1275,180.974533081055
0.10749868, 230.355833046009, -0.000539671343215977, 2.14125,169.281753540039
0.10816552, 230.362557888764, -0.000411699271098939, 2.15375,169.281753540039
0.10883208, 230.36939568793, -0.00042939688215106, 2.1675,171.740509033203
0.10949869, 230.376195731466, -0.000658406879221188, 2.1825,164.832702636719
0.110165358333333, 230.383093972543, -0.000506187025077789, 2.19375,167.89599609375
0.110832303333333, 230.389766757842, -0.000562243709386342, 2.2075,168.118270874023
0.111498896666667, 230.396931068402, -0.000671843204321014, 2.22125,168.118270874023
0.112165338333333, 230.404367940755, -0.00064401810195526, 2.235,161.492935180664
0.112832185, 230.412366064061, -0.000500299820774805, 2.2475,167.298919677734
0.113498805, 230.420373010637, -0.000563950623654807, 2.2625,167.619125366211
0.11416533, 230.428855872469, -0.000391597280803314, 2.275,165.506301879883
0.114832121666667, 230.437638375715, -0.000388544934132586, 2.2875,165.506301879883
0.115498741666667, 230.447060160715, -0.000711768198952005, 2.3025,164.64176940918
0.116165861666667, 230.456740315151, -0.000716179477365879, 2.31625,172.369384765625
0.116832201666667, 230.466983792606, -0.000860083749193593, 2.32875,166.154159545898
0.117498758333333, 230.477379157465, -0.00104517145243917, 2.34125,164.551376342773
0.118166146666667, 230.488355816822, -0.00120937270479869, 2.355,164.551376342773
0.118832028333333, 230.499111577085, -0.00114681084722675, 2.36875,167.873641967773
0.119498768333333, 230.510253147888, -0.00110525843436317, 2.38125,169.790573120117
0.120165576666667, 230.521359436323, -0.00120104662305469, 2.395,166.257766723633
0.120832168333333, 230.532873078968, -0.00120405997169094, 2.4075,176.268844604492
0.121498933333333, 230.543895110337, -0.000790200759397858, 2.42125,176.268844604492
0.122165415, 230.55541018389, -0.000828267347353147, 2.43375,172.267562866211
0.122832053333333, 230.566595537469, -0.000828846318321583, 2.4475,198.28889465332
0.123498758333333, 230.577818200567, -0.000652615670186283, 2.46125,164.143753051758
0.12416536, 230.588630589777, -0.000716072982797011, 2.475,165.087554931641
0.124832883333333, 230.600057735834, -0.000959132774175421, 2.48875,165.087554931641
0.12549866, 230.611435978698, -0.000998217810970555, 2.50125,159.138076782227
0.126165446666667, 230.623014289463, -0.00131781125809647, 2.515,158.968063354492
0.126832126666667, 230.635083106335, -0.00144935465083403, 2.5275,156.234115600586
0.127498833333333, 230.646907707379, -0.00128623184433299, 2.54125,162.61408996582
0.128165543333333, 230.658974659015, -0.00153200199953317, 2.555,162.61408996582
0.12883206, 230.670226699432, -0.00148533934335628, 2.5675,157.468048095703
0.129498713333333, 230.6813982503, -0.00119055764993862, 2.58125,151.849868774414
0.130165585, 230.692862748492, -0.00136999063716372, 2.595,153.92333984375
0.130832006666667, 230.704259258207, -0.001396717794675, 2.6075,153.501724243164
0.131498723333333, 230.714940799889, -0.00118480693875633, 2.62125,153.501724243164
0.132165655, 230.726247845907, -0.00102245509352609, 2.63375,149.680633544922
0.132832373333333, 230.737386810853, -0.0010848399599972, 2.6475,159.651840209961
0.133498716666667, 230.748002180529, -0.000806582936557035, 2.6625,148.819320678711
0.13416546, 230.7590767375, -0.000842512131897616, 2.67375,156.52229309082
0.13483229, 230.77037734569, -0.000797392898144217, 2.6875,156.52229309082
0.135499328333333, 230.781064668529, -0.000889200286746855, 2.7,151.951110839844
0.136166353333333, 230.791796561801, -0.000871015200157404, 2.7125,147.923950195313
0.136832213333333, 230.802570751666, -0.000921958641325088, 2.72625,151.131271362305
0.1374989, 230.812689239421, -0.00108831828524097, 2.73875,152.43830871582
0.138165505, 230.822328741265, -0.000903700058461132, 2.7525,152.43830871582
0.138832036666667, 230.832874573315, -0.000867985352373979, 2.76625,180.760269165039
0.139498738333333, 230.842878560946, -0.000922009638776053, 2.77875,156.591949462891
0.140165405, 230.852772192647, -0.000818165354796877, 2.79125,144.533111572266
0.14083202, 230.862933115311, -0.000726579955069684, 2.805,158.666412353516
0.14149872, 230.873304728098, -0.00111362351429043, 2.8175,158.666412353516
0.142165566666667, 230.883184351594, -0.00112525093026237, 2.83125,157.663116455078
0.142832111666667, 230.892812174591, -0.000924592509108561, 2.84375,155.014938354492
0.143498661666667, 230.902263621466, -0.00109509044515441, 2.8575,157.731948852539
0.14416558, 230.91186559799, -0.000922350121700608, 2.87125,157.962799072266
0.144832103333333, 230.921059102313, -0.000812612633678328, 2.885,157.962799072266
0.145498753333333, 230.930485006773, -0.000684012093172563, 2.8975,161.957778930664
0.14616541, 230.940197967246, -0.000935621455094822, 2.91125,160.774948120117
0.146832368333333, 230.950015976, -0.000755942480161318, 2.925,160.17561340332
0.147498661666667, 230.959743916799, -0.000914902995720679, 2.9375,163.267822265625
0.14816542, 230.969946653143, -0.000789810778989249, 2.95125,163.267822265625
0.148832291666667, 230.979824602436, -0.00101349754341703, 2.965,159.69921875
0.149498745, 230.990572123364, -0.00122082312969105, 2.97875,162.854309082031
0.150165368333333, 231.000708714219, -0.00144674778177483, 2.9925,159.235366821289
0.150832428333333, 231.011368299018, -0.00169190746767912, 3.005,157.639007568359
0.15149873, 231.021778221063, -0.0018121429283639, 3.01875,157.639007568359
0.152165351666667, 231.032147380155, -0.00173678671342173, 3.03125,161.993453979492
0.152832255, 231.042098810857, -0.00128735078812911, 3.045,158.086975097656
0.15349881, 231.052634621168, -0.00115010918160588, 3.0575,157.437286376953
0.154165438333333, 231.06284718195, -0.000723836592847281, 3.07125,161.896865844727
0.154832303333333, 231.073152654195, -0.000742665147133254, 3.085,161.896865844727
0.155498848333333, 231.083523837627, -0.000726720947984844, 3.0975,181.939086914063
0.156166016666667, 231.093465316597, -0.000869371282798893, 3.11125,160.873626708984
0.156832113333333, 231.10353559469, -0.000929159779681629, 3.125,157.681610107422
0.157498703333333, 231.113148021399, -0.000784696035923976, 3.1375,157.866485595703
