Time (min), Depth (µm), Load (N), Position (µm), Acoustic (aJ)
8.61166666666667E-06, 228.82355101352, 1.64680136387003E-05, 0,186.428558349609
0.000665743333333333, 228.824232737517, -0.000246323286601461, 0.00375000000000028,182.334289550781
0.001331965, 228.824978587848, -0.000445451784587648, 0.0162500000000006,184.729827880859
0.00199873166666667, 228.826089405, -0.000710317480638835, 0.0337500000000008,200.880111694336
0.00266554666666667, 228.828214389099, -0.000716023194025262, 0.0512499999999992,200.880111694336
0.00349870833333333, 228.833358785808, -0.000750998437254084, 0.0662500000000003,205.140533447266
0.00416545833333333, 228.837269846792, -0.000375340806176348, 0.0812499999999997,205.140533447266
0.00483193166666667, 228.844067162306, -0.00045424584287299, 0.0949999999999996,207.96467590332
0.00549866, 228.85145486081, -0.000399642585566243, 0.1075,207.965576171875
0.00616619166666667, 228.86012883518, -0.000153578445119262, 0.12125,207.755279541016
0.00683190833333333, 228.869278752962, -5.78036883930664E-06, 0.135,206.846130371094
0.00749860833333333, 228.879241208877, 0.00016332713705093, 0.1475,206.846130371094
0.00816543333333333, 228.888749358616, 0.000585863413504642, 0.16125,205.013519287109
0.008831845, 228.898586540866, 0.000704195469824123, 0.17375,207.727157592773
0.00949861666666667, 228.908516930042, 0.000699325214479089, 0.189999999999999,199.730667114258
0.010332855, 228.919144722714, 0.000555177954813032, 0.203750000000001,207.489974975586
0.0109993733333333, 228.930676187413, 0.00016551252728905, 0.217500000000001,204.641464233398
0.0116655833333333, 228.941848597721, 9.5458613274359E-06, 0.229999999999999,204.641464233398
0.012331965, 228.953186464118, 0.000148035405166716, 0.2425,246.695678710938
0.0129988166666667, 228.964645924688, -0.000141921030638003, 0.25625,202.144424438477
0.013666165, 228.976241175679, -0.000262573470349389, 0.269999999999999,206.724624633789
0.0143319566666667, 228.987087345428, -7.95706623644048E-05, 0.2825,203.20149230957
0.01499898, 228.996755330292, -0.000246834760886734, 0.295,203.20149230957
0.015665345, 229.006645062385, -0.000593002373277304, 0.30875,215.332534790039
0.0163319833333333, 229.016484795863, -0.00052576525051149, 0.3225,216.77783203125
0.0171662866666667, 229.031548639121, -0.000204821871188851, 0.338750000000001,219.195785522461
0.0178318633333333, 229.042122528696, 3.00243327545494E-05, 0.3525,220.260543823242
0.01849861, 229.054478295557, 6.68219844521409E-05, 0.36625,219.928833007813
0.0191653633333333, 229.066279869773, 7.84014028219224E-05, 0.377499999999999,219.928833007813
0.0198319516666667, 229.078108944446, 3.56700491648463E-05, 0.395,225.589080810547
0.0206659483333333, 229.089933246308, 0.000110462292425116, 0.410000000000001,225.387649536133
0.021332095, 229.101320742505, 0.000289605794219132, 0.422499999999999,228.447845458984
0.02199926, 229.113108566841, 0.000216937444275195, 0.435,224.240356445313
0.0226653866666667, 229.124913287849, 0.000180889754885503, 0.448749999999999,224.167388916016
0.0233321083333333, 229.136322382323, 0.000114503089405115, 0.462499999999999,224.167388916016
0.0239994466666667, 229.148112634267, -0.000133224467481381, 0.475,232.497116088867
0.024666985, 229.160149691481, -0.000542277921178767, 0.48875,228.020401000977
0.0253319533333333, 229.172571908489, -0.000208466688147645, 0.5025,225.921325683594
0.0259986166666667, 229.184880674382, -0.000278282181387741, 0.515,231.765380859375
0.026665855, 229.197280216229, -0.000470584522224473, 0.52875,231.765380859375
0.0273325283333333, 229.209365944316, -0.000485840255923008, 0.5425,234.668701171875
0.027998765, 229.221588026991, -0.000394278854965013, 0.555,229.50309753418
0.0286656966666667, 229.233341770023, -0.000923944250414896, 0.56875,270.194854736328
0.029332085, 229.245119166677, -0.000883698271897846, 0.5825,222.876190185547
0.0299992666666667, 229.257215283267, -0.000791449905435634, 0.593750000000001,222.876190185547
0.03066549, 229.269209523394, -0.00059926905849682, 0.6075,224.288604736328
0.0313322366666667, 229.281283550644, -0.000465778763586271, 0.62125,222.118896484375
0.0319987366666667, 229.293195137697, -0.000242018502820217, 0.635,221.701919555664
0.0326655616666667, 229.305371161867, -0.000157619242099262, 0.64875,225.331695556641
0.0333319066666667, 229.316942944091, -5.05906180806178E-05, 0.6625,225.331695556641
0.0339992016666667, 229.328654911698, 5.55770492455399E-05, 0.675,223.461135864258
0.0346654766666667, 229.339938766426, 0.000264080076324892, 0.68875,218.041152954102
0.0353322383333333, 229.351375723289, 0.000473660049359579, 0.7025,227.586547851563
0.0359986466666667, 229.362325057563, 0.000602785563534009, 0.71625,228.137847900391
0.0366654166666667, 229.37364096946, 0.000598029302464877, 0.72875,228.137847900391
0.037331945, 229.384939021535, 0.000722394055733202, 0.7425,223.842803955078
0.0379997766666667, 229.395975514629, 0.000532977569915929, 0.75625,220.340469360352
0.0386660716666667, 229.406834921435, 0.000451561659343152, 0.76875,221.041442871094
0.039331955, 229.417538246153, -3.72547206677786E-06, 0.7825,226.493637084961
0.039998785, 229.427670376891, -0.000141898531814463, 0.79625,226.493637084961
0.040665565, 229.437685310401, -0.000150220113806507, 0.80875,227.855987548828
0.0413320533333333, 229.447585001886, -0.000377343205637271, 0.8225,230.95979309082
0.04199875, 229.457035302003, -0.000218700674072655, 0.83625,228.461380004883
0.0426653183333333, 229.466745005924, -8.39864406152516E-05, 0.848750000000001,229.440322875977
0.0433320533333333, 229.476592392489, -1.86947201830369E-05, 0.8625,229.440322875977
0.0439986533333333, 229.48621823861, -0.000101627054582557, 0.875000000000001,231.744873046875
0.0446658833333333, 229.49605784502, 0.000150825264981858, 0.888750000000001,224.752853393555
0.0453325133333333, 229.506101840619, 3.82544192729791E-05, 0.902500000000001,275.463500976563
0.045998725, 229.516126083454, 0.00021912133452515, 0.91625,230.34619140625
0.0466658583333333, 229.525762644857, 0.000304444548827291, 0.928750000000001,230.34619140625
0.04733191, 229.535525198934, 0.000242370166750163, 0.941249999999999,228.183395385742
0.0479997533333333, 229.545550466345, 0.000307133913707414, 0.954999999999999,230.544143676758
0.048666095, 229.555364636202, 0.000322766128516184, 0.9675,235.339202880859
0.0493319016666667, 229.564779438455, 0.00024393908793102, 0.98125,229.598663330078
0.049998625, 229.575087013901, 9.27541817959014E-05, 0.99375,229.598663330078
0.0506653983333333, 229.584623987779, 0.000124921566074234, 1.0075,225.498428344727
0.051332645, 229.594095763033, -1.67013203322958E-05, 1.02125,233.138641357422
0.0519991733333333, 229.60372632697, -0.000368619643841391, 1.035,228.574722290039
0.0526663083333333, 229.613692598036, -0.000495807255325492, 1.0475,231.206939697266
0.053331935, 229.622786527118, -0.000682133896340702, 1.06125,231.206939697266
0.053998605, 229.632604682544, -0.000805124718643103, 1.07375,228.152435302734
0.0546659383333333, 229.64156989363, -0.000829994969445595, 1.0875,233.827209472656
0.0553320733333333, 229.650531309952, -0.000683674318957897, 1.10125,229.710510253906
0.055998745, 229.659069070014, -0.000747707602645746, 1.1125,232.529159545898
0.0566655066666667, 229.668437673442, -0.000752954339122268, 1.12625,232.529159545898
0.0573322383333333, 229.676827216425, -0.000988980983762319, 1.14,238.696914672852
0.0579987966666667, 229.68571721543, -0.00124198977538661, 1.1525,232.189331054688
0.058665405, 229.694191335225, -0.00131041183862229, 1.16625,232.734130859375
0.0593322466666667, 229.703006922741, -0.0012042741698267, 1.17875,232.398178100586
0.05999903, 229.711388362909, -0.00124899442358256, 1.1925,232.398178100586
0.0606653216666667, 229.719902050678, -0.000968812996771697, 1.20625,221.509246826172
0.0613322316666667, 229.728782053824, -0.000903782263185649, 1.22,274.592926025391
0.0619989366666667, 229.738075677021, -0.000608988570351513, 1.2325,221.274169921875
0.0626659183333333, 229.746978828101, -0.000690288986702731, 1.24625,226.987762451172
0.063331955, 229.755936063424, -0.000182155009759827, 1.26,226.987762451172
0.0639991016666667, 229.767776647853, -0.000234761867388281, 1.2725,220.462265014648
0.064665325, 229.778737014864, -0.000370631042827479, 1.28625,223.98095703125
0.065332255, 229.789423928248, -0.000357521701311326, 1.3,221.036315917969
0.0659986266666667, 229.800060071985, -0.000164757383673374, 1.3125,223.407455444336
0.06666536, 229.809815028408, -0.000503573865245824, 1.32625,223.407455444336
0.0673319633333333, 229.817367685869, -0.0006272576527288, 1.34,223.526077270508
0.06799877, 229.824646471299, -0.00013864519523119, 1.3525,223.124969482422
0.0686664633333333, 229.832382473906, -4.14800757249347E-05, 1.36625,230.548858642578
0.0693320116666667, 229.83974747947, -4.81232420334308E-05, 1.38125,226.160873413086
0.0699987733333333, 229.847803964784, 0.000156389985453124, 1.3925,226.160873413086
0.0706653133333333, 229.85502566714, 0.000337847871005195, 1.40625,222.431869506836
0.0713321183333333, 229.863025873714, 0.000214483567462621, 1.42,216.206207275391
0.0719992083333333, 229.870289122554, 8.15482446450392E-05, 1.43375,221.972778320313
0.0726655166666667, 229.87858423792, 3.67244960840988E-05, 1.44625,219.449172973633
0.0733319533333333, 229.886513341683, -4.52808848854294E-05, 1.45875,219.449172973633
0.0739988916666667, 229.895682719232, -0.000208205701322732, 1.4725,226.870529174805
0.0746654433333333, 229.904666957696, -0.000420998512981803, 1.4875,223.850570678711
0.07533195, 229.914395137343, -0.000491661463637265, 1.50125,224.417694091797
0.0759993183333333, 229.924174548, -0.000837112112035553, 1.51375,222.687057495117
0.0766661533333333, 229.933956808722, -0.00114225078522179, 1.5275,222.687057495117
0.0773319216666667, 229.943766682586, -0.00125906191792007, 1.54,221.711044311523
0.077998715, 229.95286462274, -0.00110288226265068, 1.555,263.111755371094
0.0786653183333333, 229.961986161811, -0.000827082115808132, 1.5675,220.995056152344
0.079332175, 229.970884527721, -0.000421974963917103, 1.58125,227.155807495117
0.0799995133333333, 229.979996638907, -0.000186479292622075, 1.59375,227.155807495117
0.0806653333333333, 229.98895774499, -0.000121694546723178, 1.6075,221.29931640625
0.0813319433333333, 229.998288224477, -7.40884379478583E-05, 1.62125,227.159759521484
0.08199872, 230.007636354155, -0.000386207760539599, 1.63375,220.007781982422
0.082666005, 230.016449559809, -0.000495841753714292, 1.6475,218.942245483398
0.0833319616666667, 230.025360029588, -0.000601568443180875, 1.66,218.942245483398
0.0839986333333333, 230.03387503122, -0.000460710518326277, 1.67375,224.538345336914
0.08466547, 230.043195984144, -0.000577496152267187, 1.6875,225.890899658203
0.0853323333333333, 230.052111952199, -0.000664080803247517, 1.70125,227.595169067383
0.08599878, 230.061193034867, -0.000290151085379892, 1.715,223.676696777344
0.086666445, 230.069815237802, -0.000199914117903769, 1.7275,223.676696777344
0.0873322933333333, 230.078552377887, -0.000250754064266373, 1.74,227.166748046875
0.0879988816666667, 230.086652485457, -0.000168754683015712, 1.75375,229.278305053711
0.0886653983333333, 230.095263444409, 2.91018789064801E-05, 1.7675,225.836853027344
0.0893321183333333, 230.103649248547, -0.000190190106254612, 1.78125,230.110992431641
0.0899986316666667, 230.112702911198, -0.000362631944688405, 1.79375,230.110992431641
0.0906655833333333, 230.121238183595, -0.000494971797411624, 1.8075,228.44319152832
0.0913319283333333, 230.130041964047, -0.000567674645638089, 1.82,225.354095458984
0.09199883, 230.137694222186, -0.000853101308979823, 1.8325,226.615905761719
0.0926657266666667, 230.145592220645, -0.00100902297718808, 1.84625,227.339248657227
0.093332815, 230.15319461449, -0.000905064698933008, 1.85875,227.339248657227
0.0939988233333333, 230.161022313921, -0.00102654959683698, 1.8725,226.809387207031
0.094665385, 230.168896498209, -0.00125614606445505, 1.88625,278.471343994141
0.0953322433333333, 230.177424195732, -0.00139255671268884, 1.89875,230.147888183594
0.095998725, 230.185479418112, -0.00158221318645315, 1.9125,233.240447998047
0.0966661233333333, 230.194016749998, -0.00166993928005313, 1.92625,233.240447998047
0.09733194, 230.201854473731, -0.00149188622349157, 1.93875,231.540664672852
0.097998725, 230.209872151091, -0.0013216297752959, 1.9525,226.677352905273
0.0986653166666667, 230.217661015028, -0.00112798650178761, 1.96625,234.449066162109
0.0993319283333333, 230.225742709111, -0.000664980758102013, 1.97875,225.215682983398
0.0999992066666667, 230.233106540035, -0.000483150891191664, 1.99125,225.215682983398
0.100666081666667, 230.241194130732, -0.000508747105511603, 2.005,230.018585205078
0.10133201, 230.248895666747, -0.000567476655553097, 2.0175,229.269912719727
0.101998741666667, 230.25712429298, -0.000447257694036761, 2.03125,232.104385375977
0.10266539, 230.264595910184, -0.000587821633687067, 2.045,232.563201904297
0.103332571666667, 230.272887757613, -0.000917284585107997, 2.0575,232.563201904297
0.104000416666667, 230.28101023192, -0.000824478246704011, 2.07125,226.501983642578
0.104665725, 230.288665942343, -0.000444778318615602, 2.085,228.429229736328
0.105332145, 230.296113613225, -0.000355318312065383, 2.0975,229.181930541992
0.105998706666667, 230.304479523418, -0.000370304059350077, 2.11125,226.861465454102
0.106665575, 230.312040268259, -2.91401956401933E-05, 2.125,226.861465454102
0.107332486666667, 230.320389048663, 0.000135778020711613, 2.1375,224.608474731445
0.10799863, 230.32912815798, -0.000178471194872819, 2.15125,215.281219482422
0.1086657, 230.337778010253, -0.000389443097987524, 2.165,214.356674194336
0.109331913333333, 230.346128948707, -0.000273858903663657, 2.17875,210.880569458008
0.109999216666667, 230.354395619409, -0.000461817462727168, 2.19125,210.880569458008
0.110665613333333, 230.362686681236, -0.000927601066917694, 2.205,217.458831787109
0.11133224, 230.370743056027, -0.00103007441980101, 2.2175,253.31169128418
0.111998726666667, 230.378809551633, -0.0013060980554009, 2.23125,205.351318359375
0.11266586, 230.386933609501, -0.00151653298549422, 2.24375,211.226623535156
0.113332448333333, 230.395627941906, -0.00167315661842947, 2.25875,211.226623535156
0.113999693333333, 230.40349930738, -0.00167244715403796, 2.27125,214.557250976563
0.114665336666667, 230.411216080921, -0.00166847235368919, 2.28625,213.328903198242
0.115331953333333, 230.418929814712, -0.00163905283140647, 2.29875,211.892883300781
0.115998613333333, 230.426544503558, -0.00176696940629933, 2.31125,214.901290893555
0.116665328333333, 230.433561269677, -0.00150044479358184, 2.325,214.901290893555
0.11733262, 230.44081374248, -0.00125861944019985, 2.33875,210.115432739258
0.117998598333333, 230.44804184663, -0.00126807346537141, 2.3525,211.397033691406
0.118665411666667, 230.454875371766, -0.000969958939334597, 2.36625,216.559631347656
0.119332235, 230.462063706089, -0.00102857899491591, 2.37875,214.14485168457
0.119998608333333, 230.469494825069, -0.00108273827453553, 2.39125,214.14485168457
0.120665746666667, 230.476656612307, -0.00106283127445483, 2.40625,208.009094238281
0.12133257, 230.484520675498, -0.00126541259903369, 2.4175,212.732559204102
0.121998581666667, 230.492033848092, -0.00131010435422589, 2.43125,211.909332275391
0.122665558333333, 230.499607726779, -0.00112634408431099, 2.44375,208.931106567383
0.123331923333333, 230.507093176979, -0.00132974286779589, 2.4575,208.931106567383
0.123999378333333, 230.514767654073, -0.00153753943037504, 2.4725,211.238418579102
0.124665996666667, 230.521921126541, -0.00133471361807594, 2.48625,213.342407226563
0.125332011666667, 230.529702932109, -0.00135957936908397, 2.49875,200.950714111328
0.12599861, 230.537035800934, -0.00122729351368178, 2.51125,205.489669799805
0.126665715, 230.544103286453, -0.000998609000228413, 2.525,205.489669799805
0.127332133333333, 230.55126759317, -0.000851415393610495, 2.53875,205.281768798828
0.127998658333333, 230.558594995766, -0.000859874968668894, 2.55125,243.132461547852
0.128665391666667, 230.565866729228, -0.000969024486218826, 2.565,199.472137451172
0.129332093333333, 230.573133264765, -0.00135411664340837, 2.5775,202.035369873047
0.129998616666667, 230.580896386188, -0.00139809293455394, 2.59125,202.035369873047
0.130665981666667, 230.588382711009, -0.00132827144163749, 2.605,204.831558227539
0.13133194, 230.596414063156, -0.00120353470707464, 2.6175,191.912033081055
0.131998643333333, 230.604859537504, -0.000923213787273018, 2.63125,196.310577392578
0.132665406666667, 230.613933500512, -0.000530890493260127, 2.64375,192.233276367188
0.133332238333333, 230.623040444083, -0.000530382018802407, 2.6575,192.233276367188
0.133998626666667, 230.632789347182, -0.000446099752227413, 2.67125,191.082580566406
0.134665741666667, 230.642731904241, -0.000633671330709868, 2.68375,192.230178833008
0.13533193, 230.652604908379, -0.000720374475696801, 2.6975,194.27815246582
0.135998735, 230.662436856932, -0.000698445577180451, 2.71125,190.67121887207
0.136665318333333, 230.673006116077, -0.000738643558095342, 2.7225,190.67121887207
0.137332633333333, 230.683274649477, -0.000940101439019855, 2.73625,191.779983520508
0.137998968333333, 230.693303585458, -0.000754172278035271, 2.75,191.707946777344
0.138666231666667, 230.70331735474, -0.000562622899376499, 2.7625,198.842147827148
0.139331911666667, 230.713753920444, -0.000622195407081403, 2.77625,190.094833374023
0.13999861, 230.723532973526, -0.000405640784381338, 2.78875,190.094833374023
0.140665448333333, 230.733799131441, -0.000521766451542307, 2.8025,192.61344909668
0.141332095, 230.743681426284, -0.000484253335798091, 2.815,198.212371826172
0.141999135, 230.753488887135, -0.000552399412879804, 2.8275,200.194549560547
0.14266546, 230.762972261409, -0.000543000884996187, 2.84125,203.555145263672
0.143332213333333, 230.772903703599, -0.000646158203492399, 2.85375,203.555145263672
0.143998618333333, 230.782291065472, -0.000291250530137513, 2.8675,237.804122924805
0.144666483333333, 230.792014064377, -0.000413861871502127, 2.88125,200.171096801758
0.145331933333333, 230.802168656427, -0.000568900084088092, 2.895,199.398422241211
0.145999253333333, 230.812462725031, -0.000386275257137745, 2.9075,199.370269775391
0.146665316666667, 230.822459628876, -0.000487625166451729, 2.92125,199.370269775391
0.147331941666667, 230.832794799268, -0.00033377039445373, 2.935,203.660949707031
0.14799968, 230.843176806307, -4.16675664453749E-05, 2.94875,200.726348876953
0.148665386666667, 230.85394202751, 5.14897543327359E-05, 2.9625,200.844772338867
0.149332086666667, 230.864481830517, 6.17912368984008E-05, 2.975,203.437347412109
0.14999862, 230.875107321283, 0.000200610764127652, 2.98875,203.437347412109
0.150665955, 230.886043366249, 0.00016187071000903, 3.00125,199.427398681641
0.151332638333333, 230.897191852587, -6.58478519586058E-05, 3.015,199.823394775391
0.15199879, 230.908164021441, -6.16195643219285E-05, 3.0275,197.589874267578
0.152665326666667, 230.919261203038, 3.25292066567684E-05, 3.0425,195.216171264648
0.153332063333333, 230.93038587964, -4.58688554853017E-05, 3.055,195.216171264648
0.153998646666667, 230.941354520914, -0.000164286407474514, 3.06875,198.276626586914
0.154666115, 230.952525531177, -0.000101229574785727, 3.0825,195.258972167969
0.15533197, 230.963786404009, -0.00036856714665731, 3.095,193.023345947266
0.155998741666667, 230.975177596012, -0.000553552855022212, 3.1075,188.452697753906
0.156665278333333, 230.986256468447, -0.000627982116534385, 3.1225,188.452697753906
0.157331956666667, 230.997429250865, -0.00082816056179414, 3.135,194.048217773438
