Time (min), Depth (µm), Load (N), Position (µm), Acoustic (aJ)
8.49833333333333E-06, 228.944191550815, 9.05451733435764E-05, 0,234.856307983398
0.000664095, 228.943617381397, 0.000163727997464101, 0.00375000000000028,234.856307983398
0.00133070666666667, 228.943365873993, -7.09307158863841E-05, 0.0212500000000004,192.223403930664
0.00216430333333333, 228.943139594279, -0.000202792092639947, 0.0374999999999993,197.625091552734
0.00283255166666667, 228.944706455178, 3.85067871702281E-05, 0.0525000000000005,164.227890014648
0.003497485, 228.946270933848, 0.000122129086901517, 0.0674999999999999,204.291290283203
0.00416605333333333, 228.949651343932, -0.000253426549295542, 0.0812499999999997,209.926177978516
0.00483279666666667, 228.95238608603, -0.000325068950777618, 0.0949999999999996,209.926177978516
0.00549750833333333, 228.956647227508, -0.000232150117979625, 0.1075,210.626419067383
0.00616363666666667, 228.960746083688, -0.000288418291671546, 0.12125,210.236328125
0.00683045833333333, 228.966842052426, -0.000647311264846019, 0.135,204.781173706055
0.00749875, 228.973740616401, -0.000445320910630826, 0.1475,214.966156005859
0.00816583333333333, 228.982812402454, -0.000231092671084042, 0.16125,214.966156005859
0.00883079833333333, 228.992102430674, 9.88522479756553E-06, 0.17375,209.217575073242
0.00949850333333333, 229.002930126833, -0.000104193045170382, 0.1875,208.160186767578
0.0101651566666667, 229.014010629338, 5.18816153482666E-05, 0.20125,206.064468383789
0.0108317233333333, 229.025006130792, -1.58159842731098E-05, 0.21375,201.272262573242
0.0114969766666667, 229.03604831311, -0.000310897662613925, 0.2275,201.272262573242
0.01216424, 229.047110169989, -0.000477479295362739, 0.240000000000001,204.280166625977
0.0128309383333333, 229.057773388278, -0.000447873782454015, 0.25375,206.78776550293
0.01349725, 229.067942720897, -0.000606766801393975, 0.2675,203.808166503906
0.014163665, 229.078530997708, -0.000417699798047677, 0.27875,200.012573242188
0.0148307916666667, 229.087384765657, -0.000249930224937688, 0.29125,200.012573242188
0.0154970233333333, 229.096316265806, -0.000215374960605541, 0.306249999999999,213.330307006836
0.016163665, 229.105447274701, -0.000146717409196046, 0.320000000000001,220.233901977539
0.0168308866666667, 229.115109997413, -4.50765145478306E-05, 0.332499999999999,256.672576904297
0.0174974366666667, 229.124687558047, -1.90933196468347E-05, 0.346249999999999,219.227493286133
0.0181637516666667, 229.13610147831, 0.000266534333564935, 0.35875,219.227493286133
0.01883031, 229.148271534883, 0.000150297671998126, 0.3725,222.146987915039
0.0194972616666667, 229.159720051048, 0.000402045027007993, 0.386249999999999,226.619689941406
0.0201637033333333, 229.171478368922, 0.000289642172896041, 0.39875,227.80940246582
0.0208308083333333, 229.182993175835, 0.000144638456289453, 0.4125,222.263168334961
0.0214969583333333, 229.194738743251, -4.82173567583509E-05, 0.425,222.263168334961
0.022163685, 229.205954125226, 0.000227200309297607, 0.43875,232.013442993164
0.0228302783333333, 229.218005619598, -8.94187872478007E-05, 0.4525,226.871826171875
0.0234969416666667, 229.230123882492, -0.00018135666931603, 0.46625,227.869888305664
0.02416362, 229.241924994632, -0.000102736618341024, 0.47875,231.575653076172
0.0248302866666667, 229.254175757038, -0.0002506111907868, 0.4925,231.575653076172
0.02549707, 229.266467500872, -0.000663433955125941, 0.50625,234.095642089844
0.0261636233333333, 229.278466874182, -0.000651407559220226, 0.51875,222.783721923828
0.0268303033333333, 229.290624429457, -0.000446777337587709, 0.5325,224.22021484375
0.027496945, 229.302956001176, -0.000258170811096973, 0.54625,231.321640014648
0.0281641166666667, 229.314320866273, -4.88743238170106E-05, 0.55875,231.321640014648
0.0288310316666667, 229.326328613382, 0.000123539016010612, 0.5725,220.550750732422
0.0294969466666667, 229.338292905248, 0.00019433546002298, 0.585,220.877990722656
0.03016365, 229.349545981709, 0.000286280841713226, 0.59875,226.333847045898
0.0308305183333333, 229.361319242413, 0.000159396215001091, 0.611250000000001,223.530868530273
0.0314969416666667, 229.372982971663, 0.000168686748348927, 0.625000000000001,223.530868530273
0.0321637883333333, 229.384979558058, -0.000144286031355792, 0.64,226.6171875
0.0328311766666667, 229.39674827255, -0.000220533201584779, 0.6525,221.797012329102
0.0334969483333333, 229.408675208548, 8.72798373013152E-05, 0.66625,263.0126953125
0.034163825, 229.421021700008, 0.000155845893300957, 0.678750000000001,223.750137329102
0.034830315, 229.433213573, 0.000234431446035942, 0.6925,223.750137329102
0.0354970616666667, 229.445187505229, 0.000857870631342454, 0.70625,217.419174194336
0.0361636433333333, 229.457584904098, 0.000857498650026684, 0.72125,222.435317993164
0.03683082, 229.470153003026, 0.000663553891713336, 0.73375,222.608306884766
0.0374974866666667, 229.481731602634, 0.000908676079486292, 0.74625,221.027069091797
0.038163695, 229.493873077607, 0.000765898251055458, 0.76125,221.027069091797
0.0388303183333333, 229.505381863077, 0.00049207650484087, 0.772500000000001,229.837341308594
0.039496975, 229.516893002021, 0.000480357593501585, 0.78625,219.767471313477
0.040164095, 229.527617915008, 0.000526922754571011, 0.8,220.487258911133
0.0408306066666667, 229.538652492284, 0.000229201208812872, 0.812500000000001,222.546508789063
0.041497245, 229.549321615697, 0.000171029630691898, 0.826250000000001,222.546508789063
0.04216385, 229.560009179611, -7.78063705624016E-05, 0.840000000000001,230.261245727539
0.042830385, 229.56991495414, -0.000147312879375427, 0.852500000000001,230.936126708984
0.043496995, 229.580221883284, -0.000364960947135499, 0.866250000000001,232.117309570313
0.0441636, 229.590131457445, -0.000292660078734123, 0.878749999999999,228.918655395508
0.0448304516666667, 229.600365675356, -0.00040205858375625, 0.892499999999999,228.918655395508
0.0454975666666667, 229.609799226265, -1.61714664842065E-05, 0.906250000000001,231.732986450195
0.0461636633333333, 229.619466288897, 0.000231904073012625, 0.920000000000001,226.791778564453
0.046830325, 229.629043746862, 0.000370888591989997, 0.932499999999999,229.900741577148
0.0474969133333333, 229.639015322714, 0.000325299881898378, 0.945,223.035751342773
0.04816365, 229.648037015903, 0.000651840980071664, 0.9575,223.035751342773
0.048830295, 229.657782902609, 0.000407633746354728, 0.97125,226.678527832031
0.04949906, 229.667481809647, 0.000398782690920809, 0.98375,228.540298461914
0.0501658366666667, 229.677042100424, 0.000350414620399855, 0.99875,277.258056640625
0.05083248, 229.686599498494, 6.46744727728247E-05, 1.01125,224.623992919922
0.051498425, 229.696402762388, -5.7372896909894E-05, 1.025,229.81819152832
0.05216418, 229.70632900094, -6.6267450151508E-05, 1.03875,229.81819152832
0.052830365, 229.716090500395, -0.000397846795266755, 1.05125,223.606628417969
0.0534970166666667, 229.72570333409, -0.000540836113080956, 1.065,224.871688842773
0.054163645, 229.734783213598, -0.000261589139364604, 1.0775,224.940689086914
0.0548308466666667, 229.744452681545, -0.000555590871943787, 1.09125,224.940689086914
0.05549695, 229.753168033972, -8.15501825105561E-05, 1.10375,233.18962097168
0.056163825, 229.762264810656, 0.000395211370257775, 1.1175,230.828369140625
0.0568302816666667, 229.771223032994, 0.000586538760062356, 1.13125,233.822494506836
0.0574969616666667, 229.780115346963, 0.00054018358843064, 1.14375,227.370254516602
0.0581636416666667, 229.788882720508, 0.00045938414693638, 1.15625,227.370254516602
0.0588307433333333, 229.798235475469, 0.000102222086820824, 1.17,231.172836303711
0.0594977116666667, 229.806778731059, -0.00012650442449458, 1.18375,227.964767456055
0.0601636266666667, 229.81576003216, 0.000132528064595902, 1.19625,227.644546508789
0.0608307183333333, 229.824292709223, 0.000381418063107465, 1.20875,220.271026611328
0.0614970733333333, 229.8328240302, 0.000792859396816157, 1.22375,220.271026611328
0.06216366, 229.840789081995, 0.000776100738610508, 1.23625,226.04833984375
0.0628309866666667, 229.849281605524, 0.00103242436373986, 1.25,228.546524047852
0.0634970083333333, 229.857569104701, 0.000721596476229359, 1.26375,220.826171875
0.0641636483333333, 229.867523065624, 0.000571298025586599, 1.27625,220.686935424805
0.0648302716666667, 229.876353766477, 0.000426366305372622, 1.29,220.686935424805
0.0654969333333333, 229.885581938678, 0.000503355938244983, 1.3025,216.953872680664
0.06616379, 229.894041812351, 3.91157565629671E-05, 1.31625,218.732818603516
0.066830305, 229.902191121388, -7.60769573853797E-05, 1.33,258.929992675781
0.0674969766666667, 229.909186032345, -0.000373816502236358, 1.34375,217.051864624023
0.0681638816666667, 229.91677703772, -0.000387143332854746, 1.35625,220.964340209961
0.0688302616666667, 229.923900912298, -0.000205760443544092, 1.37,220.964340209961
0.0694971766666667, 229.931621966822, -6.81828539120256E-05, 1.38375,220.493133544922
0.0701648316666667, 229.939703052996, -0.000193698049388937, 1.3975,219.893341064453
0.0708302966666667, 229.947531068139, 9.10941457814392E-05, 1.41,220.627670288086
0.0714970666666667, 229.955602064386, 0.000351554563116364, 1.4225,220.627670288086
0.0721641716666667, 229.96474361095, 0.000162934537305999, 1.43625,220.669479370117
0.07283049, 229.973969611647, 2.32495535260354E-05, 1.45,219.954940795898
0.073496985, 229.983292063065, -0.000259280755261654, 1.465,220.336883544922
0.0741645383333333, 229.993341194773, -0.000237984824949749, 1.4775,214.862731933594
0.0748309033333333, 230.003531348721, -0.000597041289905432, 1.49,214.862731933594
0.075497435, 230.013167816788, -0.000561419579152535, 1.50375,223.446273803711
0.0761638083333333, 230.022743622621, -0.000649991630264739, 1.5175,215.816741943359
0.0768308316666667, 230.032343255867, -0.000424341464453024, 1.53125,218.455520629883
0.07749903, 230.041564437574, -0.000854486858658456, 1.54375,218.805389404297
0.0781640683333333, 230.050705184115, -0.000794980347627295, 1.5575,218.805389404297
0.078830295, 230.059971585095, -0.000957848166958528, 1.57125,219.94807434082
0.0794972366666667, 230.069328206444, -0.000772209991371938, 1.585,220.531463623047
0.0801648016666667, 230.078454344588, -0.000588911698258258, 1.59875,214.045959472656
0.0808307483333333, 230.087471268984, -0.00040511093038447, 1.61125,214.249847412109
0.0814972566666667, 230.096826330667, -0.000566231337445842, 1.62375,214.249847412109
0.0821635916666667, 230.105019945446, -0.000627284270813065, 1.6375,216.255386352539
0.0828305066666667, 230.113803878782, -0.000689252158257562, 1.65125,267.124694824219
0.083497455, 230.122196988102, -0.000704369898932252, 1.665,217.430206298828
0.084163625, 230.131803826065, -0.000702638985894589, 1.6775,220.364212036133
0.0848311633333333, 230.140211449102, -0.000387279826060459, 1.69125,216.286895751953
0.0854969283333333, 230.149928532956, -0.000467543794500248, 1.705,216.286895751953
0.08616361, 230.158599693069, -0.000140743209341436, 1.7175,231.656875610352
0.086831245, 230.167963198332, -2.72439102994164E-05, 1.73125,227.234802246094
0.0874973033333333, 230.17584392641, 7.65933655804891E-06, 1.74375,225.272598266602
0.0881636383333333, 230.18451569794, 0.00010037567949784, 1.7575,225.272598266602
0.088830795, 230.192871612541, -0.000125062996930508, 1.77125,225.502227783203
0.089497225, 230.201738698805, -0.000172879095186046, 1.78375,223.076751708984
0.0901637866666667, 230.210591302573, -0.000336510376166062, 1.7975,222.325271606445
0.0908303666666667, 230.219867187523, -0.000347269335738483, 1.81,231.837829589844
0.091496945, 230.229164155326, -0.000693673936184768, 1.82375,231.837829589844
0.09216407, 230.238509300988, -0.000352552070443192, 1.83625,228.508499145508
0.0928303033333333, 230.247665336835, -0.000657647245821738, 1.85,221.426620483398
0.0934970933333333, 230.256688122912, -0.000749093152579428, 1.86375,225.375473022461
0.0941636533333333, 230.265332787343, -0.000778110695015805, 1.87625,228.576782226563
0.0948307216666667, 230.27408329182, -0.000738793169895658, 1.88875,228.576782226563
0.095497065, 230.282613220391, -0.000714533388410309, 1.9025,218.743850708008
0.0961636166666667, 230.291141948443, -0.000703838925587228, 1.91625,224.332077026367
0.096830755, 230.299480595991, -0.000662040525079011, 1.93,225.160598754883
0.0974971366666667, 230.308013502153, -0.000937329197636289, 1.9425,224.641525268555
0.0981636383333333, 230.316245939942, -0.000800771556789724, 1.95625,224.641525268555
0.098830395, 230.324980955444, -0.000978671621083407, 1.97,234.908508300781
0.09949749, 230.333570360846, -0.00111906606921238, 1.9825,270.359527587891
0.100163846666667, 230.342088539344, -0.00123566271265723, 1.99625,224.858169555664
0.100830331666667, 230.350267871167, -0.00120459177330896, 2.00875,222.894393920898
0.101496958333333, 230.358627399383, -0.00132621016452733, 2.02125,228.463790893555
0.102164055, 230.366385651447, -0.00121671416439774, 2.035,228.463790893555
0.102830271666667, 230.374593349471, -0.00131959549676125, 2.04875,225.531402587891
0.10349806, 230.382410565562, -0.001456600115165, 2.0625,225.214279174805
0.104165313333333, 230.390517713069, -0.0012298475047256, 2.075,223.225662231445
0.104831058333333, 230.398782430118, -0.00139132339395556, 2.0875,223.225662231445
0.105497093333333, 230.407197833583, -0.00160151083643733, 2.10125,226.796752929688
0.106163663333333, 230.41505546971, -0.00115642619256119, 2.115,226.254638671875
0.106830283333333, 230.42383528124, -0.000965958259588459, 2.12875,237.242172241211
0.107497663333333, 230.433353495343, -0.0011156792392722, 2.14125,215.385284423828
0.108163621666667, 230.441750228667, -0.000668640193537305, 2.155,215.385284423828
0.108830286666667, 230.450648073801, -0.000501853071081482, 2.16875,213.8095703125
0.109496938333333, 230.459476100941, -0.000609273175475647, 2.1825,215.721618652344
0.110163611666667, 230.467726679936, -0.000459247711074279, 2.19625,211.382034301758
0.110830496666667, 230.475073620194, -0.000397785298259951, 2.20875,212.077484130859
0.111498921666667, 230.483421055859, -0.000712252002946618, 2.2225,212.077484130859
0.11216366, 230.49113456327, -0.000756955757555297, 2.235,215.966003417969
0.112830725, 230.499203124327, -0.000527813767116429, 2.24875,210.047134399414
0.113497055, 230.507008582215, -0.000609831147502437, 2.2625,211.334579467773
0.114163678333333, 230.515336160048, -0.000307665324972298, 2.275,206.401565551758
0.114830281666667, 230.523556946426, -0.000221644645695117, 2.28875,206.401565551758
0.115496958333333, 230.531825887369, -0.000161032690187469, 2.3025,210.449783325195
0.116163623333333, 230.540180832766, -0.000395101933141203, 2.31625,249.211212158203
0.11683028, 230.548691605879, -0.000431914584040319, 2.33,206.029983520508
0.117497073333333, 230.557084943057, -0.000604812399577719, 2.3425,209.041015625
0.118163618333333, 230.565112993623, -0.000774479377376641, 2.35625,209.041015625
0.118830416666667, 230.573176705703, -0.000890915528910337, 2.36875,210.910552978516
0.119496955, 230.581204677036, -0.00110807012147798, 2.3825,210.417449951172
0.120163633333333, 230.588938309257, -0.00107784063991123, 2.395,210.602355957031
0.120830333333333, 230.596399992267, -0.00115193991796967, 2.40875,203.824478149414
0.12149698, 230.60427345484, -0.000995686766383267, 2.42125,203.824478149414
0.12216368, 230.612027906236, -0.000915508293676972, 2.435,214.979049682617
0.122830883333333, 230.619824106707, -0.000626381316216033, 2.4475,213.271408081055
0.123496993333333, 230.627884306482, -0.000551199092547155, 2.46125,206.95947265625
0.124163786666667, 230.635887891158, -0.000606757801890064, 2.47625,212.638748168945
0.124831228333333, 230.643880315619, -0.00065773274149147, 2.48875,212.638748168945
0.125496941666667, 230.651870162186, -0.000758872661325235, 2.5025,206.84895324707
0.12616429, 230.6595237005, -0.000872008978597904, 2.51625,210.873657226563
0.126830268333333, 230.667757531427, -0.000901615991473539, 2.52875,203.990280151367
0.127496936666667, 230.675644979634, -0.000757918709255984, 2.5425,202.214859008789
0.128163778333333, 230.683377225675, -0.000560368132039581, 2.55625,202.214859008789
0.128830288333333, 230.691134680556, -0.000254906975042878, 2.56875,205.826400756836
0.129496943333333, 230.699146648153, -4.48755247203024E-05, 2.5825,196.768966674805
0.130163633333333, 230.707077576436, 0.000385175374268978, 2.59625,194.719146728516
0.130830671666667, 230.715660933371, 0.000707297694406373, 2.6075,199.894424438477
0.131499198333333, 230.72480054424, 0.00051687325928384, 2.62125,199.894424438477
0.132163766666667, 230.734103114558, 0.000528862157100727, 2.635,199.833511352539
0.132830768333333, 230.743796376221, 0.000385907337569055, 2.6475,235.193969726563
0.133497028333333, 230.753990020133, -0.000138512821349964, 2.66125,196.650146484375
0.134163606666667, 230.764683988124, -0.000378256279277657, 2.67375,194.973114013672
0.134830471666667, 230.774396994072, 0.000107080342749377, 2.68625,194.973114013672
0.135497006666667, 230.785229789599, -0.000168839798109196, 2.70125,189.822204589844
0.136163623333333, 230.79562723941, -0.00010174816807426, 2.71375,194.392379760742
0.136830313333333, 230.806351536891, -0.00016780035034896, 2.72625,199.771072387695
0.137497315, 230.816974101658, -0.000596690307658832, 2.74,196.492233276367
0.138163833333333, 230.828302664856, -0.000701283054064011, 2.7525,196.492233276367
0.138830606666667, 230.839221498783, -0.000696291304736043, 2.76625,193.567565917969
0.139496981666667, 230.850198742236, -0.000536861312710938, 2.78,198.551681518555
0.140163606666667, 230.861013897011, -3.87288333680304E-05, 2.7925,193.813003540039
0.140830728333333, 230.871963128191, 0.000498920661061911, 2.80625,197.139938354492
0.141497121666667, 230.882722213848, 0.000568779652130955, 2.81875,197.139938354492
0.142163651666667, 230.893397073334, 0.000706901714427675, 2.83125,198.981460571289
0.142830285, 230.90389773367, 0.000632652443865147, 2.845,196.468841552734
0.143496951666667, 230.914193233999, 0.000667849675926905, 2.85875,203.409805297852
0.144163653333333, 230.923751715062, 0.000485146852886335, 2.8725,199.912567138672
0.144830313333333, 230.934443583107, 9.57034142377981E-05, 2.885,199.912567138672
0.145497016666667, 230.944984691524, 9.73973210919543E-06, 2.89875,206.895065307617
0.146164408333333, 230.955703806587, 6.0054704824389E-05, 2.9125,203.550109863281
0.146830635, 230.966455193607, -0.000263428046980556, 2.92625,203.743301391602
0.147497, 230.977766031222, -0.000189051282843751, 2.93875,202.703598022461
0.148163638333333, 230.988233570838, 0.00018793978128353, 2.95125,202.703598022461
0.14883091, 230.999076910956, 0.00025809425748127, 2.965,209.233734130859
0.14949695, 231.010000736109, 0.000457422245476854, 2.97875,242.906005859375
0.150163625, 231.020852780878, 0.00042617881480096, 2.9925,205.900680541992
0.150830275, 231.032432222301, 0.000524179392327354, 3.005,205.246856689453
0.15149704, 231.043850434161, 0.000353006490151258, 3.01875,205.246856689453
0.152163626666667, 231.055280168846, 0.00051102955278855, 3.03125,201.113616943359
0.152830291666667, 231.067509502609, 0.000184377460188169, 3.04625,203.647399902344
0.153497128333333, 231.079907857614, 0.00028058862760392, 3.05875,209.527008056641
0.154164141666667, 231.091090131265, 0.000110956148066273, 3.0725,201.095062255859
0.154830838333333, 231.10326829886, 6.68808619100825E-05, 3.085,201.095062255859
0.155497545, 231.114668768051, -6.01027598126676E-05, 3.09875,203.422149658203
0.156163666666667, 231.125585661906, 0.000320788108421961, 3.1125,198.278594970703
0.15683148, 231.13627887204, 0.000133716004893315, 3.12625,201.342132568359
0.157497051666667, 231.147483680573, 7.82712898050536E-05, 3.13875,203.192474365234
