Time (min), Depth (µm), Load (N), Position (µm), Acoustic (aJ)
7.55166666666667E-06, 228.586225941834, 0.00022932210362095, 0,109.442184448242
0.000666181666666667, 228.586491177186, 0.000160271571954039, 0,108.019973754883
0.00133273, 228.585229582655, 0.000115051843308131, 0.005,108.541519165039
0.00199941333333333, 228.584091531559, -3.24762465154762E-05, 0.0125,108.541519165039
0.002666025, 228.582662298631, -0.000500137756377692, 0.0225,108.639694213867
0.00333270333333333, 228.581984811079, -0.000493292100253503, 0.03,107.387176513672
0.00399958, 228.581136495229, -0.000556260437402497, 0.03625,108.569007873535
0.00466606333333333, 228.582677660165, -0.000712713078977037, 0.04375,108.569007873535
0.005332715, 228.585263931365, -0.000844712448754445, 0.05125,101.114837646484
0.005999375, 228.58864592323, -0.000935834371819778, 0.0575,114.405700683594
0.00666609166666667, 228.591390070295, -0.00118138703796023, 0.06375,110.396018981934
0.00733278333333333, 228.595129648393, -0.0011084472016568, 0.07,98.359733581543
0.00799941333333333, 228.597644717405, -0.00118673726922058, 0.07875,105.151466369629
0.00866608666666667, 228.601315456258, -0.00117596031051281, 0.085,105.151466369629
0.00933273166666667, 228.60500793337, -0.00116172152570846, 0.09,108.55069732666
0.00999959833333333, 228.608739275951, -0.000996867806084742, 0.0975,105.126983642578
0.0106660483333333, 228.613003049382, -0.0010381397330424, 0.105,111.396606445313
0.0113329083333333, 228.617936646955, -0.00104847121411738, 0.11125,105.799423217773
0.0119994816666667, 228.622820689123, -0.00131914311857503, 0.11625,105.799423217773
0.0126660333333333, 228.627711111685, -0.00153638920651001, 0.12375,110.71240234375
0.0133329216666667, 228.633309271789, -0.00196707007387619, 0.13125,111.310615539551
0.013999355, 228.638585372632, -0.00214234377007218, 0.1375,107.248405456543
0.014667145, 228.643049503083, -0.00221463563892713, 0.1425,111.316314697266
0.0153326966666667, 228.647842668391, -0.00190671610540841, 0.15,111.316314697266
0.0159993666666667, 228.652664953801, -0.00152663669642472, 0.1575,126.106475830078
0.0166662933333333, 228.657812327983, -0.000818387271046999, 0.16375,105.944145202637
0.0173328333333333, 228.662153479001, -0.000568016846851863, 0.17,104.286827087402
0.0179997866666667, 228.667896217622, -0.000408801344080186, 0.17625,107.462936401367
0.0186663016666667, 228.672915531285, -0.000440173768276013, 0.18375,107.462936401367
0.01933297, 228.678477725349, -0.000539147796931409, 0.19,109.590476989746
0.0199997516666667, 228.683357914797, -0.00112001762043765, 0.19625,110.028579711914
0.0206663116666667, 228.689229602811, -0.00147153246426102, 0.20375,110.271072387695
0.0213331033333333, 228.693525225084, -0.00153370884119757, 0.21,110.409339904785
0.02199952, 228.698801656305, -0.00158836609580408, 0.21625,110.409339904785
0.0226663333333333, 228.703747047058, -0.00163931703657253, 0.22375,108.768615722656
0.0233328116666667, 228.709238786147, -0.0015550407697164, 0.23,106.901489257813
0.0240005533333333, 228.714391570959, -0.00148300988775012, 0.235,120.360313415527
0.02466615, 228.720658530653, -0.00161177242013395, 0.24375,110.137741088867
0.0253329716666667, 228.725687789301, -0.00139346288560577, 0.25,110.137741088867
0.0260012383333333, 228.731031718965, -0.00134292592401513, 0.25625,107.648971557617
0.0266676933333333, 228.736847809039, -0.00137669372790804, 0.2625,110.521125793457
0.0273329466666667, 228.743275610706, -0.00168668765721654, 0.26875,108.403800964355
0.0279999133333333, 228.748626279254, -0.00202120685465101, 0.27625,111.428825378418
0.028667895, 228.755040009814, -0.00223980137485832, 0.2825,111.428825378418
0.0293330966666667, 228.760673246394, -0.00196860449677452, 0.28875,110.440277099609
0.0299996466666667, 228.765666188278, -0.00200905896478362, 0.29625,107.521827697754
0.03066772, 228.769811344, -0.00142481581074184, 0.30125,104.970710754395
0.0313329633333333, 228.775401363543, -0.00106092958835751, 0.30875,130.145324707031
0.0320002433333333, 228.780252845305, -0.000981346585745576, 0.31625,130.145324707031
0.032666235, 228.786118406959, -0.00159019750379802, 0.3225,107.336280822754
0.0333339066666667, 228.791992663368, -0.00172489673799014, 0.32875,100.348114013672
0.0339996766666667, 228.797818120443, -0.0017663546555738, 0.335,108.85945892334
0.0346677516666667, 228.803606574153, -0.00171902603283433, 0.3425,104.393379211426
0.0353338833333333, 228.809570258208, -0.00189737757439465, 0.34875,104.393379211426
0.03599961, 228.815323269674, -0.00146352136655668, 0.355,104.504913330078
0.0366663866666667, 228.820941437912, -0.00104990214223189, 0.36125,108.121315002441
0.0373329333333333, 228.826600270576, -0.00121225548740779, 0.36875,105.803497314453
0.0379996266666667, 228.832797123845, -0.00130873814120429, 0.375,111.353530883789
0.0386662716666667, 228.838216735523, -0.00144189995264927, 0.38125,111.353530883789
0.0393330533333333, 228.844444112679, -0.00178999346824993, 0.3875,106.575828552246
0.0400004716666667, 228.849922888271, -0.00200773903111747, 0.395,108.307510375977
0.04066627, 228.856279057999, -0.00178989747306686, 0.40125,109.05948638916
0.04133294, 228.861108243272, -0.00134995457098028, 0.4075,112.93017578125
0.0419998866666667, 228.866668026461, -0.000916464344739213, 0.41375,112.93017578125
0.04266675, 228.871563228724, -0.000793101541142296, 0.42125,112.343299865723
0.0433329683333333, 228.877425430539, -0.000577086891333675, 0.4275,103.283699035645
0.044000065, 228.882152649023, -0.000610097233254163, 0.43375,104.601219177246
0.0446676883333333, 228.887204185954, -0.000566912902342287, 0.44,111.362716674805
0.04533298, 228.892792093824, -0.000651009178270022, 0.4475,111.362716674805
0.0459996983333333, 228.897949749256, -0.000381846197995846, 0.45375,106.72607421875
0.0466662716666667, 228.903419885239, -5.28707221122449E-05, 0.46125,112.020027160645
0.0473329583333333, 228.909101412017, -5.47156294258094E-05, 0.46625,108.53702545166
0.0479997916666667, 228.915687699806, -0.000306423986379938, 0.47375,137.824890136719
0.04866629, 228.921090348448, -0.000261237256070901, 0.48,137.824890136719
0.0493330433333333, 228.926644034212, -0.000309267843579867, 0.4875,111.114929199219
0.0500012166666667, 228.932891983218, -0.00060631742312033, 0.4925,107.159080505371
0.0506677333333333, 228.937366219659, -0.000651337661820606, 0.5,105.213195800781
0.0513329616666667, 228.942932593655, -0.000630014732826934, 0.5075,114.564994812012
0.0519996966666667, 228.948383421971, -0.000750859162946953, 0.51375,114.564994812012
0.05266641, 228.954267766937, -0.000596257428404844, 0.51875,109.771957397461
0.0533338066666667, 228.958449147159, -0.00045153269777977, 0.52625,103.999565124512
0.0539996233333333, 228.96529498147, -0.000331004751730093, 0.5325,102.952178955078
0.0546663566666667, 228.97015041576, -7.05698331100233E-05, 0.53875,109.711181640625
0.0553329733333333, 228.975719240189, 0.000139536613475223, 0.545,109.711181640625
0.0560005466666667, 228.980836860038, 1.23220033093548E-05, 0.5525,109.443756103516
0.0566663266666667, 228.986954387551, -0.000151969244493111, 0.55875,115.301536560059
0.05733458, 228.991725572722, -0.000178363418744362, 0.565,107.47745513916
0.05799977, 228.997027130952, -0.000457358405118458, 0.5725,109.70964050293
0.0586663466666667, 229.002081152454, -0.000253523143525938, 0.57875,109.70964050293
0.059333135, 229.006311979609, -0.000259300853326229, 0.58375,103.278251647949
0.0599996066666667, 229.010253099406, -9.94433828249414E-05, 0.59125,109.748741149902
0.06066773, 229.015069496954, -6.81954523758383E-05, 0.59875,104.30696105957
0.0613333166666667, 229.019660529508, -0.000104429132391534, 0.605,114.857894897461
0.0619996366666667, 229.024622527086, -0.000281976714386689, 0.61125,114.857894897461
0.062666405, 229.030530095343, -0.000468327354192351, 0.61875,112.193878173828
0.0633329816666667, 229.036628664088, -0.000497277400051836, 0.625,103.91480255127
0.0639996183333333, 229.042130742315, -0.000613850044727483, 0.63125,110.589721679688
0.0646663033333333, 229.048001469156, -0.000485583987384898, 0.6375,124.960708618164
0.065332985, 229.053580307863, -0.000605159481204712, 0.64375,124.960708618164
0.0659998266666667, 229.059071695697, -0.000742917061786424, 0.65125,104.940505981445
0.0666672416666667, 229.063907439869, -0.00106888668867705, 0.6575,112.663467407227
0.0673330583333333, 229.069649580159, -0.000992743013295652, 0.66375,104.76570892334
0.0679999566666667, 229.074602931878, -0.000985054399508052, 0.67,104.828872680664
0.068666515, 229.080192602038, -0.000887614793814747, 0.6775,104.828872680664
0.0693346316666667, 229.085200401998, -0.00058953626598487, 0.68375,107.376884460449
0.069999755, 229.090834831596, -0.000380916244738302, 0.69125,105.562950134277
0.070666445, 229.096318782978, -0.000249768832128214, 0.6975,109.486351013184
0.07133335, 229.10169571111, -0.000127142491498313, 0.7025,107.180686950684
0.0719997266666667, 229.107030862914, -5.53050998225602E-05, 0.71,107.180686950684
0.0726673183333333, 229.113071400063, -0.000425420509295078, 0.7175,107.101791381836
0.0733330916666667, 229.119013787318, -0.000486321950255063, 0.72375,113.333473205566
0.07399971, 229.124801124024, -0.00079864676249005, 0.73,105.559547424316
0.0746673033333333, 229.131077329589, -0.00128957060389691, 0.7375,106.656539916992
0.0753331066666667, 229.136798276959, -0.00127765070262382, 0.74375,106.656539916992
0.0759997266666667, 229.142853167289, -0.00102033712723954, 0.75,109.961524963379
0.07666735, 229.148721341127, -0.000792270582789096, 0.7575,110.325004577637
0.0773331716666667, 229.154506806985, -0.000641190671362206, 0.76375,109.36107635498
0.0779997466666667, 229.159859222925, -0.000314903060476833, 0.77,110.049949645996
0.0786672433333333, 229.165744065355, -0.000614159029197062, 0.77625,110.049949645996
0.0793330766666667, 229.171076369022, -0.000444687041591818, 0.78375,105.019729614258
0.0799998616666667, 229.175745269419, -0.000506161453758864, 0.79,108.654502868652
0.080666535, 229.181492473835, -0.000411153225927068, 0.79625,107.752250671387
0.0813330933333333, 229.187439597719, -0.000503430090952942, 0.8025,131.786697387695
0.0820000766666667, 229.192436719475, -0.000337185941216115, 0.81,131.786697387695
0.0826664183333333, 229.197436346509, -0.000286109006776542, 0.8175,105.395484924316
0.0833335866666667, 229.20255887674, -0.000515084505585394, 0.8225,114.110084533691
0.08399976, 229.206919852399, -0.000518366340753583, 0.82875,103.104804992676
0.0846664033333333, 229.211063763653, -0.00010642253226353, 0.83625,105.74633026123
0.0853331083333333, 229.215834426308, -0.00013378865767687, 0.8425,105.74633026123
0.0859999883333333, 229.221121762083, -0.00046981077961846, 0.84875,106.895301818848
0.0866667733333333, 229.226702355473, -0.000428447357272204, 0.85625,111.954727172852
0.0873331316666667, 229.232557601223, -0.000603583060380585, 0.8625,110.450927734375
0.08799974, 229.238215684763, -0.000845735397346246, 0.86875,110.886688232422
0.0886663933333333, 229.243572766018, -0.00100779775712415, 0.87625,110.886688232422
0.0893332666666667, 229.248299747782, -0.000570994197323682, 0.8825,109.024078369141
0.0899997866666667, 229.252907819216, -0.00029528554586973, 0.88875,103.90843963623
0.0906666916666667, 229.257061943409, -0.00015709598695361, 0.895,113.565475463867
0.0913330683333333, 229.261903308049, -0.000108565924554596, 0.90375,107.544425964355
0.0920006166666667, 229.266799203035, -0.000125123592868955, 0.90875,107.544425964355
0.092666435, 229.271533005479, 9.7730713387498E-05, 0.915,110.610733032227
0.0933333316666667, 229.27629707089, -8.44051381223702E-05, 0.9225,101.395561218262
0.0939999216666667, 229.281272304374, 7.6895259931155E-05, 0.93,112.378402709961
0.0946663966666667, 229.285997933302, -0.000119198890498398, 0.935,109.166809082031
0.0953332016666667, 229.290535908814, -0.000250044818260922, 0.94125,109.166809082031
0.0959999416666667, 229.295333807405, -0.000510704725562734, 0.95,107.037841796875
0.0966664616666667, 229.300020490943, -0.00034530503341372, 0.95625,106.979095458984
0.09733395, 229.304626776697, -0.000479573789238339, 0.96125,104.839202880859
0.098000685, 229.308968906359, -0.00051216265233775, 0.9675,133.993240356445
0.0986664166666667, 229.313398161808, -0.00054768386811312, 0.97625,133.993240356445
0.09933481, 229.317717346668, -0.000977239792006817, 0.9825,106.889228820801
0.100001286666667, 229.322278905083, -0.00135348689350256, 0.9875,108.62907409668
0.100667293333333, 229.326483381231, -0.00147869760432561, 0.995,108.616233825684
0.101333105, 229.330708476738, -0.00152435531096103, 1.0025,112.029418945313
0.102000716666667, 229.33496673184, -0.000964299941948231, 1.00875,112.029418945313
0.10266723, 229.339129040816, -0.000745072453493971, 1.015,111.598731994629
0.103333145, 229.343784574717, -0.000723338545192552, 1.02125,110.359771728516
0.10399984, 229.347899276706, -0.000702287102537123, 1.0275,112.717460632324
0.104666393333333, 229.352356820222, -0.000770247188992832, 1.035,108.265129089355
0.105333913333333, 229.356517302825, -0.00124641927142817, 1.04125,108.265129089355
0.10599978, 229.360855605811, -0.00125166900773225, 1.0475,113.631782531738
0.106667803333333, 229.364634993953, -0.00130276094143711, 1.05375,104.512802124023
0.10733388, 229.369073164436, -0.00142370736645906, 1.06125,105.228019714355
0.107999765, 229.373366857092, -0.00123467786122284, 1.06875,108.863319396973
0.108666513333333, 229.377391718603, -0.00118390541145838, 1.075,108.863319396973
0.109333975, 229.381213643847, -0.00127557030724271, 1.08,103.501922607422
0.10999996, 229.384862253877, -0.00109175454008238, 1.08875,102.080764770508
0.110667851666667, 229.388280795578, -0.00102480990266022, 1.095,110.95378112793
0.111333171666667, 229.391548720709, -0.000930058161922635, 1.10125,108.115051269531
0.111999721666667, 229.395367032154, -0.000601919643983577, 1.10625,108.115051269531
0.11266788, 229.399106727824, -0.000662384606835944, 1.11375,110.140182495117
0.113334651666667, 229.403470633101, -0.000468504345250682, 1.12125,111.57048034668
0.113999728333333, 229.406699406614, -0.00064321406974352, 1.1275,128.243576049805
0.114666651666667, 229.411289267551, -0.00042550000528845, 1.1325,107.994598388672
0.115333125, 229.414598675145, -0.000594015040933129, 1.14,107.994598388672
0.11599975, 229.418333055512, -0.000471906174349877, 1.1475,108.683013916016
0.11666654, 229.421840391607, -0.000733298044888003, 1.15375,103.600883483887
0.117333065, 229.426605298555, -0.000760355185831765, 1.16,105.811805725098
0.118000461666667, 229.429169676389, -0.00099063261925644, 1.16625,103.167190551758
0.118666778333333, 229.434085429173, -0.00115094156708813, 1.17375,103.167190551758
0.119333095, 229.437628348338, -0.00115368642923493, 1.18,118.106216430664
0.120001373333333, 229.441359688238, -0.000994173941388901, 1.18625,108.686950683594
0.120667808333333, 229.44459118577, -0.000878273262973438, 1.1925,117.221405029297
0.121334008333333, 229.449039845709, -0.00096617634765301, 1.2,105.48477935791
0.121999823333333, 229.452350676214, -0.000861544603213346, 1.20625,105.48477935791
0.122666418333333, 229.455615876049, -0.000790383677570986, 1.2125,114.15795135498
0.12333328, 229.45926831828, -0.00079411998987587, 1.21875,108.081489562988
0.123999796666667, 229.462561433914, -0.000584684009647659, 1.225,105.30827331543
0.12466661, 229.465881040671, -0.000649119273160597, 1.23375,106.454147338867
0.125333118333333, 229.468883483599, -0.000587730356642028, 1.24,106.454147338867
0.125999761666667, 229.473038340103, -0.000707803825469994, 1.245,105.907089233398
0.126666548333333, 229.475235417558, -0.000544702017910599, 1.25125,108.931549072266
0.127333278333333, 229.478978211954, -0.000856161373637381, 1.25875,112.677696228027
0.128001351666667, 229.481839669267, -0.000894532446289039, 1.265,112.677696228027
0.128666503333333, 229.48518464816, -0.000473463096156762, 1.27125,111.833137512207
0.129333083333333, 229.487792003032, -0.000485564488303893, 1.27875,105.896865844727
0.1299998, 229.491655535947, -0.000693244056758333, 1.285,107.003456115723
0.130666413333333, 229.494528403152, -0.000633346065372905, 1.29125,127.379516601563
0.131334733333333, 229.498005907492, -0.000821337622752035, 1.2975,112.171813964844
0.131999733333333, 229.500519834134, -0.0013761852533228, 1.305,112.171813964844
0.132666443333333, 229.503810288293, -0.00131808117182122, 1.31125,108.019866943359
0.133333076666667, 229.506491708384, -0.00134703871736648, 1.3175,109.826812744141
0.13400013, 229.509637396724, -0.00115425190079872, 1.325,109.928779602051
0.13466814, 229.511749770198, -0.000601468166568163, 1.33125,109.928779602051
0.1353346, 229.51497724708, -0.000493949067142129, 1.3375,109.002616882324
0.136001321666667, 229.51729830885, -0.000626054931594677, 1.34375,104.672981262207
0.136667856666667, 229.520332873403, -0.000840862142046135, 1.35125,107.793647766113
0.137334513333333, 229.523088375543, -0.000855501406772423, 1.3575,108.291526794434
0.138001406666667, 229.525750981823, -0.00113821920615303, 1.36375,111.200012207031
0.138667345, 229.528463253338, -0.00118135253957143, 1.37,111.200012207031
0.139333085, 229.531207497218, -0.00134429685508974, 1.3775,104.943870544434
0.140001378333333, 229.533446037069, -0.00100589135282504, 1.38375,107.829116821289
0.140667363333333, 229.535171084969, -0.000939906667169738, 1.38875,102.885322570801
0.141333061666667, 229.538651775328, -0.000919246704868576, 1.39625,109.864471435547
0.141999725, 229.540715721567, -0.000881486101576568, 1.40375,109.864471435547
0.142666493333333, 229.543697334614, -0.000463433099950595, 1.40875,107.870216369629
0.143333091666667, 229.54614500321, -0.000755058951871189, 1.41625,104.163223266602
0.143999876666667, 229.549084604233, -0.00109344195522733, 1.42,101.56852722168
0.144666395, 229.549700985116, -0.00101474990783846, 1.42875,104.834114074707
0.14533307, 229.551861867668, -0.00122726073364596, 1.43625,104.834114074707
0.145999761666667, 229.554231230718, -0.00167685265109778, 1.44375,105.684608459473
0.146666461666667, 229.556501625486, -0.00175918051585651, 1.45,109.860931396484
0.14733307, 229.559065530786, -0.00168143642088179, 1.45625,128.641265869141
0.147999916666667, 229.562370103565, -0.00200806151488542, 1.4625,103.452461242676
0.14866643, 229.566251310414, -0.0019356271531909, 1.47,103.452461242676
0.14933328, 229.568324318388, -0.00165050797443685, 1.47625,104.485481262207
0.150001556666667, 229.571847863176, -0.00126403138676806, 1.4825,108.489334106445
0.150667875, 229.574734121941, -0.00122866316326056, 1.48875,103.736824035645
0.151333143333333, 229.578869419339, -0.00126549231337062, 1.49625,108.812271118164
0.151999888333333, 229.581076849177, -0.000895744385440667, 1.5025,108.812271118164
0.152666455, 229.585145848561, -0.000916072864363692, 1.50875,106.948951721191
0.153333085, 229.588090217566, -0.0010924700040865, 1.51625,106.794075012207
0.153999766666667, 229.591286044576, -0.00107378394266134, 1.5225,108.907508850098
0.154666475, 229.594632265326, -0.000652260115392372, 1.52875,107.915573120117
0.155333911666667, 229.597979451776, -0.00106272649806891, 1.535,107.915573120117
0.15600063, 229.600919095955, -0.000967889261640342, 1.5425,108.63875579834
0.156667201666667, 229.603683378441, -0.00119717974461639, 1.54875,102.759178161621
0.157333068333333, 229.607503152314, -0.00106691578767111, 1.555,102.592430114746
0.157999766666667, 229.609366542149, -0.0012047093664385, 1.5625,109.530906677246
0.158666423333333, 229.612699833801, -0.000897311806654612, 1.56875,109.530906677246
0.15933327, 229.615218251975, -0.000649350261497445, 1.575,110.097053527832
