Time (min), Depth (µm), Load (N), Position (µm), Acoustic (aJ)
7.5E-06, 228.835059903067, -8.27140106693025E-05, 0,111.377349853516
0.000666921666666667, 228.834831206124, -0.000113022988271933, 0,103.260864257813
0.00133352, 228.833449712186, -0.000271650520571263, 0.00375,112.999740600586
0.00199998, 228.830553407653, -0.000250240595983456, 0.01375,108.205215454102
0.00266671833333333, 228.828471179124, -0.000591858936872543, 0.02125,108.205215454102
0.003333295, 228.827965268409, -0.000658977565589246, 0.02875,105.347709655762
0.00399994, 228.827066022314, -0.000519856553491178, 0.03625,110.049995422363
0.00466676, 228.828526252356, -9.01131390895816E-05, 0.04375,105.599838256836
0.00533327666666667, 228.831697616016, -6.19160554080574E-05, 0.05,130.904632568359
0.00600001666666667, 228.835429710449, 0.000207354919401899, 0.0575,112.20149230957
0.00666689666666667, 228.838294313672, 0.000222184674548655, 0.06375,112.20149230957
0.00733339833333333, 228.842426820074, 0.000270231761162295, 0.07,104.022193908691
0.007999985, 228.845695981386, 0.00015805389575334, 0.07875,105.986724853516
0.00866682833333333, 228.849593146064, 1.71359739226119E-05, 0.085,111.97339630127
0.00933347, 228.852287116178, 0.000377935351311183, 0.09,111.97339630127
0.00999991666666667, 228.855990788119, 0.000555106452217358, 0.0975,113.619895935059
0.0106666, 228.858978507152, 0.000375608968179157, 0.105,102.200340270996
0.0113334966666667, 228.863045631131, 0.000394547016946567, 0.11125,111.82048034668
0.0119998983333333, 228.867280803652, 0.000323887066139912, 0.1175,106.864196777344
0.0126667533333333, 228.872568965314, -0.000153753442456252, 0.12375,106.864196777344
0.0133336416666667, 228.876705060858, -0.000219141158156546, 0.13,105.715766906738
0.0140013566666667, 228.88223577486, -6.41524430758886E-05, 0.1375,110.125350952148
0.0146681016666667, 228.886897318349, -0.000584315815815822, 0.14375,108.410369873047
0.01533366, 228.891628153077, -0.000373997879889716, 0.15,110.227523803711
0.015999915, 228.895939801056, -0.000362997432445863, 0.1575,110.138092041016
0.0166672816666667, 228.90106471771, -0.000217929219068681, 0.16375,110.138092041016
0.01733325, 228.905880238781, -0.000168932680095238, 0.17,107.801208496094
0.017999965, 228.90992493917, 9.35451358808801E-05, 0.1775,110.464714050293
0.0186666683333333, 228.914722971598, -7.21815398305524E-05, 0.1825,99.8634796142578
0.0193334583333333, 228.92001098538, -0.000168347709471697, 0.19,108.489334106445
0.0199999333333333, 228.925116479205, -0.000407069718731993, 0.1975,108.489334106445
0.0206666616666667, 228.929815871496, -0.000297009746920504, 0.20375,107.40015411377
0.0213332416666667, 228.935613431951, -0.000153438458331568, 0.21,109.12287902832
0.0219999583333333, 228.940774411696, -0.000357473209890976, 0.21625,128.454132080078
0.0226667833333333, 228.945755718542, -0.000186408302335677, 0.2225,104.835678100586
0.0233333883333333, 228.950283661378, 3.22612141343014E-05, 0.23,104.835678100586
0.0239999383333333, 228.955158900616, -0.000171080572265785, 0.23625,107.352844238281
0.0246681116666667, 228.960642761246, -0.000179297159570856, 0.24375,106.896209716797
0.0253332816666667, 228.965915702004, -4.95101786495727E-05, 0.25,107.87483215332
0.0260000416666667, 228.97164831919, -0.000248146701325221, 0.25625,106.142547607422
0.0266679566666667, 228.976814882023, -0.000319012141838885, 0.2625,106.142547607422
0.027333315, 228.982465925262, -0.000350113079675214, 0.27,103.016403198242
0.0279999283333333, 228.987080968636, -0.000391269512432566, 0.27625,115.045356750488
0.0286681033333333, 228.992666548449, -0.000332049487004936, 0.2825,110.180709838867
0.0293336483333333, 228.99769546615, -0.000258698671329992, 0.28875,109.838073730469
0.0300000016666667, 229.00342816602, 7.15397519107849E-06, 0.29625,109.838073730469
0.0306665966666667, 229.008874896831, 0.000109526833118117, 0.3025,106.997650146484
0.0313334466666667, 229.014927772692, -0.000320093587482412, 0.3075,113.443977355957
0.03200001, 229.019917939285, -0.000515559269459475, 0.31625,110.777297973633
0.0326669783333333, 229.025384354887, -0.000231214051825032, 0.3225,105.205863952637
0.0333332783333333, 229.03010208614, -0.000607618645404369, 0.3275,105.205863952637
0.0339999466666667, 229.035095385464, -0.000851017419740424, 0.335,109.370597839355
0.0346668116666667, 229.039974365473, -0.000253283943299051, 0.34125,106.621490478516
0.03533348, 229.045681364674, -0.000258212695738321, 0.34875,108.363510131836
0.0360013883333333, 229.050514254299, -0.000373637898054189, 0.355,110.894378662109
0.0366680616666667, 229.057034759072, -0.000305233833911353, 0.3625,110.894378662109
0.0373337916666667, 229.062994354876, -0.000246912263328799, 0.3675,107.476905822754
0.0379999233333333, 229.068810405682, -0.000520050043930485, 0.375,118.522750854492
0.03866689, 229.074201091897, -0.00036333941533733, 0.38125,130.762191772461
0.0393334016666667, 229.080520426817, -0.000642092913797486, 0.3875,110.699851989746
0.0399999566666667, 229.085470309959, -0.000307095240393354, 0.39375,110.699851989746
0.0406669666666667, 229.090585673327, -0.000318118186703256, 0.4,108.704742431641
0.0413332566666667, 229.096328964634, -0.000202307503730734, 0.40875,100.904479980469
0.0420000216666667, 229.101722412337, -0.00025001860725679, 0.415,105.539024353027
0.0426668783333333, 229.107348757276, -2.32374982537315E-05, 0.42,109.667686462402
0.043333405, 229.1133479736, -0.00065005901366345, 0.4275,109.667686462402
0.0440000983333333, 229.119409638055, -0.000752956845216645, 0.435,105.970565795898
0.0446666983333333, 229.125020669421, -0.000675683726547051, 0.44,107.222640991211
0.0453338133333333, 229.130776607831, -0.000551342972047924, 0.44625,104.890533447266
0.045999975, 229.135639928398, -0.000307725208727738, 0.45375,113.020935058594
0.0466670183333333, 229.140952160453, 5.06847886826156E-05, 0.46125,113.020935058594
0.047333625, 229.146391749649, 5.41961123270111E-05, 0.46625,113.404365539551
0.0480013533333333, 229.151760335903, -0.000545152783036736, 0.4725,108.940940856934
0.0486666033333333, 229.156921041023, -0.000816208668141618, 0.48,113.117897033691
0.04933332, 229.162728990194, -0.00116645757553484, 0.48625,104.325904846191
0.049999935, 229.168089592473, -0.00131677252532478, 0.49375,104.325904846191
0.0506666216666667, 229.173495338135, -0.00121045936535276, 0.5,108.923233032227
0.051333225, 229.178970997062, -0.000802971833008679, 0.50625,107.057807922363
0.0519999333333333, 229.1843091603, -0.000932724315689942, 0.5125,112.595390319824
0.0526682333333333, 229.189763664502, -0.000902002858791398, 0.52,110.955047607422
0.0533342383333333, 229.195700221282, -0.000728236586918242, 0.52625,110.955047607422
0.05400017, 229.200996386088, -0.000621824431871845, 0.5325,104.207366943359
0.05466657, 229.206181472328, -0.000272296988265371, 0.53875,136.802490234375
0.055333425, 229.211706690635, 0.000111647726564389, 0.545,113.883811950684
0.055999955, 229.217017130653, -0.000112202529644606, 0.5525,114.109230041504
0.056667475, 229.222398798886, -0.000173808935201647, 0.55875,114.109230041504
0.0573349016666667, 229.227928411847, -6.60198493405184E-05, 0.565,112.895492553711
0.0580001616666667, 229.23312205315, -0.000339262624629178, 0.5725,110.563827514648
0.0586668733333333, 229.23861085356, -0.000499964552739533, 0.57875,115.070648193359
0.059333665, 229.243673086046, -0.000306108289965977, 0.58375,109.978866577148
0.0599999466666667, 229.248609815168, -2.69558115082848E-05, 0.59125,109.978866577148
0.06066823, 229.253048932434, -0.000237462737972963, 0.59875,106.497634887695
0.0613334116666667, 229.258051778177, 3.09967882768734E-06, 0.605,106.601997375488
0.061999935, 229.263296098035, 0.000140095297706274, 0.61125,102.193984985352
0.0626665833333333, 229.268810231984, 0.000106475986329284, 0.61875,114.364410400391
0.0633336516666667, 229.273726444745, -0.000204689384171952, 0.625,114.364410400391
0.0640000216666667, 229.279446042815, -0.000414981821404456, 0.63125,106.709686279297
0.0646666433333333, 229.285191572925, -0.00053246042056845, 0.6375,108.441535949707
0.0653334633333333, 229.29037342854, -0.000610287011449117, 0.64375,105.241889953613
0.0660001516666667, 229.29539028199, -0.0003070667418722, 0.65125,107.541664123535
0.0666682883333333, 229.300720342454, -0.000170263113359739, 0.6575,107.541664123535
0.0673333683333333, 229.306275681423, -0.000137504758781506, 0.66375,109.264053344727
0.0680001233333333, 229.311307344192, -0.000212148509504599, 0.67125,109.426246643066
0.0686667233333333, 229.316988953154, -0.000167579748155975, 0.6775,111.257949829102
0.0693334266666667, 229.322653214275, -0.000412457448166183, 0.68375,105.85521697998
0.07000077, 229.328408558632, -0.000438583135906743, 0.69,105.85521697998
0.070666885, 229.334042695829, -0.00023887716691903, 0.6975,108.118911743164
0.07133446, 229.340112598844, -0.000227813722628986, 0.70375,126.026512145996
0.0720000533333333, 229.345694648762, -0.000501359482710866, 0.71,112.259101867676
0.0726667883333333, 229.351327261945, -0.000382044975758473, 0.7175,110.648551940918
0.073333615, 229.357124035418, -0.00026357042659943, 0.72375,110.648551940918
0.0740013716666667, 229.362143331724, -0.000362992932736416, 0.73,104.24104309082
0.0746669116666667, 229.367100362488, -0.000360773044215766, 0.7375,107.969604492188
0.0753332866666667, 229.372321178619, -0.000164878383795609, 0.74375,104.702285766602
0.0760000583333333, 229.377569571256, -0.000280041099298399, 0.75,108.95783996582
0.0766666516666667, 229.382017124251, -0.000259075152397718, 0.7575,108.95783996582
0.07733341, 229.387788565368, -0.000241286045935745, 0.76375,114.336532592773
0.0780001316666667, 229.393045499876, -0.00010759926088586, 0.77,104.857460021973
0.0786666966666667, 229.398311731632, -3.84317351367498E-05, 0.77625,111.288665771484
0.0793340233333333, 229.403114461067, -4.81752457181323E-05, 0.78375,111.116340637207
0.0799998966666667, 229.409094045293, -0.000188968673844644, 0.79,111.116340637207
0.080666715, 229.414019929598, -0.000142944985569811, 0.79625,109.608863830566
0.0813347083333333, 229.418806303371, -0.000182166515464387, 0.8025,105.778221130371
0.0820001883333333, 229.423480458258, -0.000268214193359572, 0.81,110.339614868164
0.0826666, 229.428738976652, -3.19550495549065E-06, 0.8175,106.837089538574
0.0833333466666667, 229.432905344992, 0.000175532517736315, 0.82375,106.837089538574
0.08399997, 229.437609688179, 3.12262661047666E-05, 0.82875,104.699813842773
0.084667065, 229.442562703564, -9.2070540839661E-05, 0.83625,108.887832641602
0.085333415, 229.447039943064, 2.42426168504605E-05, 0.8425,110.510467529297
0.0859999633333333, 229.451959458469, -0.000131079081490228, 0.85,108.374176025391
0.086666745, 229.456533238694, -0.00021327045308576, 0.8575,108.374176025391
0.0873334733333333, 229.462226825667, 0.000128449882684003, 0.8625,105.097190856934
0.0880009016666667, 229.466668688144, 0.000249490802922103, 0.86875,126.684265136719
0.08866703, 229.471894682384, 0.000318745324350364, 0.875,109.365547180176
0.0893332383333333, 229.476824766379, 0.000140266289173261, 0.8825,112.580581665039
0.0900009383333333, 229.481994414603, 0.000352825112582916, 0.89,112.580581665039
0.09066661, 229.485810195574, 0.000338965808716355, 0.89625,109.42455291748
0.0913332533333333, 229.490944816921, 0.00025920431501542, 0.9025,106.89623260498
0.0919999083333333, 229.49603247072, -0.000151790041178593, 0.90875,109.537269592285
0.0926667366666667, 229.500429874834, -9.9952644917789E-05, 0.91625,107.994483947754
0.0933334416666667, 229.505764104835, -0.000381163020039325, 0.92125,107.994483947754
0.093999945, 229.510779010655, -0.000590225519048617, 0.92875,111.179237365723
0.09466678, 229.516114104026, -0.000564297821371796, 0.93625,108.45133972168
0.0953332583333333, 229.520305168244, -0.000583790842253428, 0.9425,103.160224914551
0.09600005, 229.525919532001, -0.00037842115776258, 0.94875,110.2294921875
0.096666755, 229.529958533568, -0.000434654833214479, 0.95625,110.2294921875
0.0973332566666667, 229.534351318568, -0.000520522520160019, 0.9625,105.276412963867
0.0979999166666667, 229.538343104851, -0.000307395225316513, 0.9675,103.670166015625
0.0986680016666667, 229.542810873488, 0.000187417920748124, 0.975,103.533042907715
0.0993336, 229.546794936494, 0.000212235674175247, 0.9825,108.339630126953
0.100000088333333, 229.551383912692, 0.000440474709953322, 0.9875,108.339630126953
0.10066802, 229.556275700766, 0.000665604401933344, 0.99375,111.307098388672
0.101333401666667, 229.560902384388, 0.000308853321168043, 1.0025,109.814262390137
0.101999898333333, 229.565993330098, 0.000119676823319053, 1.0075,110.687286376953
0.10266757, 229.570464214298, 1.54110604762915E-05, 1.01375,110.763046264648
0.103333266666667, 229.57538496719, -5.89852026990097E-05, 1.02125,110.763046264648
0.104001468333333, 229.579808351513, -0.000213799926506381, 1.02875,113.522811889648
0.10466812, 229.585086288967, 0.000194775051136333, 1.035,124.505142211914
0.105333428333333, 229.590099503642, 0.000180177784335844, 1.04,108.651054382324
0.106000248333333, 229.59511670929, 0.000105652527704371, 1.0475,107.531127929688
0.106666763333333, 229.600341108287, 6.69334725486486E-05, 1.055,107.531127929688
0.107333555, 229.606023409199, -9.79757442354838E-05, 1.06125,110.178703308105
0.108000091666667, 229.611289163066, -0.00038238395867361, 1.0675,109.923774719238
0.108668026666667, 229.61620125366, -0.000277833210151721, 1.075,107.952919006348
0.109334391666667, 229.621725772785, -0.000130782096394621, 1.08,104.6123046875
0.110000025, 229.62675933295, -2.08211195937471E-05, 1.0875,104.6123046875
0.11066699, 229.631444301216, -6.25985100019062E-06, 1.095,107.747047424316
0.111333571666667, 229.636692654634, -0.000104120935557082, 1.10125,106.835601806641
0.111999896666667, 229.642297223005, -0.00033394839155451, 1.1075,107.21898651123
0.112666825, 229.646829929125, -0.000889787472325857, 1.11375,113.685241699219
0.113333685, 229.652303272766, -0.00131894591614642, 1.12,113.685241699219
0.114001415, 229.657069079846, -0.0010987794748882, 1.1275,107.717895507813
0.114666725, 229.662159497218, -0.000818784038745839, 1.13375,105.644195556641
0.11533331, 229.66656850274, -0.000819358509856049, 1.14,108.090866088867
0.116001328333333, 229.672248350927, -0.000666168204432456, 1.14625,108.090866088867
0.116666726666667, 229.677350717643, -0.000365827790198638, 1.15375,107.688262939453
0.117333308333333, 229.683449385062, -0.000513874853972043, 1.16,110.434280395508
0.11799991, 229.688101503135, -0.000605676242919576, 1.1675,106.958801269531
0.118666545, 229.694006783829, -0.000790690449890648, 1.1725,105.020301818848
0.119334738333333, 229.698167945891, -0.000456475737173796, 1.18,107.712272644043
0.12000024, 229.703168757278, -0.000584035329973667, 1.18625,107.712272644043
0.12066661, 229.707124835115, -0.000716886656960904, 1.1925,104.181396484375
0.121334748333333, 229.712361870426, -0.000695065753001588, 1.2,131.34504699707
0.121999958333333, 229.716829240878, -0.000427456694685491, 1.20625,114.078102111816
0.122666556666667, 229.722319519596, -0.000622631391243306, 1.2125,110.505676269531
0.12333375, 229.72666814537, -0.000569202574914342, 1.21875,110.505676269531
0.123999918333333, 229.73166506401, -0.000533256880447834, 1.225,107.29239654541
0.124667558333333, 229.735626956262, -0.000595079275182707, 1.2325,106.186538696289
0.125333518333333, 229.740634371237, -0.000632010420173442, 1.23875,109.54460144043
0.12600002, 229.745250604946, -0.000608875582203077, 1.245,110.235397338867
0.126667526666667, 229.749994608384, -0.000739364527893864, 1.25125,110.235397338867
0.12733327, 229.755251071968, -0.000693201346607019, 1.25875,114.291091918945
0.12800004, 229.760090132178, -0.00079125742131508, 1.265,105.573516845703
0.128666633333333, 229.764164570638, -0.000746753156715795, 1.27125,110.281044006348
0.129334715, 229.768211671075, -0.000585454258629182, 1.27875,110.069221496582
0.130000138333333, 229.772398535887, -0.000505565271396478, 1.285,110.069221496582
0.130666865, 229.776343302178, -0.000666465189549317, 1.29125,111.934722900391
0.131333281666667, 229.780462803506, -0.000551590459616969, 1.2975,108.088455200195
0.132000835, 229.784454951392, -0.00081236286127028, 1.305,108.00170135498
0.132668031666667, 229.788891761467, -0.000932533825184457, 1.31125,105.176460266113
0.133333761666667, 229.79300493527, -0.000774473264394575, 1.31875,105.176460266113
0.134000111666667, 229.797078411035, -0.00031500734287453, 1.32375,108.197280883789
0.134668108333333, 229.801303214972, -0.000597764140268366, 1.33125,108.488693237305
0.135334655, 229.805254910417, -0.000212430495164887, 1.3375,106.271354675293
0.13600138, 229.809097209526, -9.84782188680668E-05, 1.34375,110.072708129883
0.136668056666667, 229.813267308172, -5.40579500566191E-05, 1.35125,110.072708129883
0.137333476666667, 229.817653833834, -0.000119664654698534, 1.3575,134.252838134766
0.137999973333333, 229.822315709539, 0.000135072050072107, 1.36375,103.133850097656
0.138668061666667, 229.826630223433, 6.2525205184501E-06, 1.37,105.032699584961
0.139333366666667, 229.831547978477, -0.0001337909452364, 1.37625,108.875053405762
0.140000101666667, 229.836172923764, -0.000568905589861243, 1.38375,108.875053405762
0.140668366666667, 229.840819432322, -0.000460036558238482, 1.39,107.862648010254
0.141333365, 229.845171391713, -0.000306178786349168, 1.39625,107.306175231934
0.141999955, 229.850008954822, -0.000482893910109228, 1.4025,105.806457519531
0.14266662, 229.853880699082, -9.03636264861797E-05, 1.41,108.874282836914
0.143334728333333, 229.85852831859, 0.000199444316738855, 1.41625,108.874282836914
0.144000785, 229.862802978736, 9.73684556609513E-06, 1.42,107.268966674805
0.144666565, 229.866459504979, -4.21875463100974E-05, 1.42875,107.85888671875
0.145334768333333, 229.870247102482, 0.000136441481328585, 1.435,110.447402954102
0.145999896666667, 229.874856724496, -8.79367483766266E-05, 1.44375,105.92219543457
0.146666741666667, 229.878533937254, 8.13642477828841E-05, 1.45,105.92219543457
0.147333355, 229.882641303722, -0.000279249139000938, 1.45625,105.28694152832
0.148000953333333, 229.887715113161, -0.000591500454961419, 1.4625,111.751922607422
0.148667485, 229.892539733042, -0.000848353553511394, 1.47,107.095405578613
0.149334721666667, 229.897033082738, -0.000963487770450522, 1.47625,106.389167785645
0.149999995, 229.901652250877, -0.00128662553951519, 1.4825,106.389167785645
0.150668046666667, 229.906313326598, -0.00108535364917418, 1.48875,102.556701660156
0.151333435, 229.910202945357, -0.000819550500179667, 1.49625,111.297866821289
0.152000065, 229.915084779986, -0.000771125432510135, 1.5025,106.957313537598
0.152668046666667, 229.919752052272, -0.00078572719906258, 1.50875,109.027481079102
0.153334671666667, 229.924351268224, -0.000721857407198448, 1.51625,109.027481079102
0.154000143333333, 229.928117041675, -0.000584446309217651, 1.5225,122.924682617188
0.154666955, 229.933425693615, -0.000579609052188235, 1.52875,108.33024597168
0.155333486666667, 229.937732671741, -0.000578232121352249, 1.535,102.96117401123
0.155999955, 229.941949843146, -0.000609807035342517, 1.5425,108.543800354004
0.156666741666667, 229.946934583369, -0.000589226569055982, 1.54875,108.543800354004
0.157333343333333, 229.952364545647, -0.00086414176039434, 1.555,107.539085388184
0.15800005, 229.956896939788, -0.000717962102843057, 1.5625,107.841621398926
0.158666705, 229.960806033059, -0.000521678961959947, 1.56875,105.851013183594
0.159334761666667, 229.965550492342, -0.000317849700086294, 1.575,107.629722595215
0.15999993, 229.969409307801, -7.48259069360696E-05, 1.58125,107.629722595215
