Time (min), Depth (µm), Load (N), Position (µm), Acoustic (aJ)
7.69666666666667E-06, 228.678408389459, 0.000420085362911607, 0,107.122817993164
0.000666443333333333, 228.678889568936, 0.000347492009209087, 0,109.59513092041
0.00133295666666667, 228.67875133669, 0.000502602218187663, 0.00375,109.432373046875
0.00199993, 228.677060141068, 0.000209059462518385, 0.01375,108.348358154297
0.00266657833333333, 228.675100324561, 0.000165797135516285, 0.02125,106.787574768066
0.003333185, 228.673330832298, 0.000541445767068855, 0.03,106.787574768066
0.00399992333333333, 228.672658293803, 0.000699240841175598, 0.03625,107.165504455566
0.00466645666666667, 228.6729316658, 0.000449996860462358, 0.04375,108.056648254395
0.00533299666666667, 228.675484948632, 0.000545048586101849, 0.05,113.077842712402
0.00599962666666667, 228.678678230826, 0.000441604781980852, 0.0575,108.297973632813
0.00666641, 228.682133943444, 3.17758672607116E-05, 0.06375,108.297973632813
0.00733286833333333, 228.685332793995, 3.79060593595313E-05, 0.07,111.392333984375
0.007999845, 228.688270708231, -0.000123749820883837, 0.07875,105.568649291992
0.00866794333333333, 228.691059143516, -1.2555906032198E-05, 0.08375,128.443069458008
0.00933287, 228.694319659673, -0.000118881065441952, 0.09,110.362579345703
0.00999999666666667, 228.697576224062, -6.38743283432038E-05, 0.0975,105.868759155273
0.0106662633333333, 228.700610822206, -0.000115933713436944, 0.105,105.868759155273
0.0113330766666667, 228.703882611106, 0.000164009225351299, 0.11,106.438110351563
0.01199969, 228.707617883645, 0.000105689154693147, 0.1175,107.080062866211
0.0126664783333333, 228.711717950347, 0.000190886375345415, 0.12375,111.087173461914
0.0133330866666667, 228.715453954406, 0.000371709792789892, 0.13,111.087173461914
0.0139995533333333, 228.720386573435, 0.000184450198625822, 0.13625,113.120124816895
0.01466711, 228.725158546966, 0.000333452714371627, 0.14375,115.539291381836
0.0153329383333333, 228.730370794139, 0.000371499803330927, 0.15125,108.23119354248
0.0159996166666667, 228.735610782805, 0.000207879021842988, 0.1575,107.523376464844
0.016666695, 228.741330994309, 3.21280198228437E-06, 0.1625,107.523376464844
0.017332985, 228.746423371444, 3.39597575956829E-05, 0.17,106.945831298828
0.0179995433333333, 228.751537426725, -0.000205083235508164, 0.1775,107.303077697754
0.01866637, 228.756566713872, -0.000127253644821199, 0.1825,107.212348937988
0.0193329716666667, 228.761604254439, 9.96459582097168E-05, 0.18875,87.1177444458008
0.0199997883333333, 228.766485986305, 0.000463778168238696, 0.1975,87.1177444458008
0.0206662333333333, 228.77198566447, 0.000578669397360734, 0.20375,106.429641723633
0.021333065, 228.777428877373, 0.000861139709172294, 0.20875,105.737350463867
0.02200057, 228.782492929113, 0.00059756394832045, 0.21625,107.603813171387
0.0226665966666667, 228.787852836889, 0.000533584661974881, 0.22375,111.305320739746
0.02333297, 228.793537844433, 0.000454700624262393, 0.23,111.305320739746
0.0239995466666667, 228.798407682253, 0.000893335592056797, 0.23625,102.939674377441
0.0246663033333333, 228.804235798271, 0.000754601560539785, 0.2425,107.492736816406
0.0253330683333333, 228.809756428762, 0.00123331601522122, 0.24875,133.970596313477
0.0260003883333333, 228.815163993159, 0.00131866322829256, 0.25625,107.567909240723
0.0266662516666667, 228.820071264811, 0.00131753078515556, 0.2625,107.421005249023
0.02733292, 228.825131828806, 0.000913200594254199, 0.26875,107.421005249023
0.0279998116666667, 228.830310430291, 0.000817038924343756, 0.275,112.507469177246
0.0286664116666667, 228.835204601644, 0.00033317972810898, 0.2825,108.796775817871
0.0293331416666667, 228.843263388133, 0.000391180314805475, 0.29125,108.547721862793
0.03016643, 228.849071071382, 0.00026703305061813, 0.29625,114.779983520508
0.0308329616666667, 228.854166934035, 0.000613413652273962, 0.30375,114.779983520508
0.0314996316666667, 228.85941890966, 0.000526542515711356, 0.31,108.348083496094
0.0321662816666667, 228.864696037623, 0.000717302934027743, 0.3175,115.203056335449
0.0328329333333333, 228.869279818198, 0.000578637898990774, 0.325,103.492500305176
0.03366632, 228.874319248331, 0.000440346345236486, 0.3325,113.634254455566
0.0343329216666667, 228.879641275848, 0.000197957020193856, 0.33875,113.637626647949
0.0349999216666667, 228.885005802582, 0.000424238654264359, 0.345,113.637626647949
0.03566621, 228.890465134956, 0.000485329085720409, 0.35125,108.906105041504
0.0363335766666667, 228.896158232929, 0.0006043031097695, 0.35875,107.801513671875
0.0369996533333333, 228.902073342892, 0.000797536903830688, 0.365,109.558868408203
0.037666345, 228.907498244673, 0.000705947004287777, 0.3725,110.265678405762
0.038333025, 228.912525783851, 0.000668996360301053, 0.37875,110.265678405762
0.038999765, 228.918073605105, 0.000600958277818883, 0.38375,113.832313537598
0.0396663966666667, 228.923064123059, 0.000846531942922236, 0.39125,110.384246826172
0.040333075, 228.927597760818, 0.000771246224448278, 0.39875,107.392532348633
0.04099986, 228.933460433879, 0.00100464950083944, 0.40375,100.534965515137
0.0416677816666667, 228.93848117187, 0.0012345789517388, 0.41,100.534965515137
0.0423343816666667, 228.94348618501, 0.00128095062253895, 0.4175,131.249160766602
0.042999585, 228.948459728609, 0.00106716786062495, 0.425,106.204521179199
0.0436671066666667, 228.954018517326, 0.00105178763313718, 0.43,105.131568908691
0.0443330066666667, 228.958642795284, 0.000844532543352628, 0.43625,111.603530883789
0.0449996033333333, 228.964092621707, 0.000668118904418877, 0.44375,111.603530883789
0.0456666416666667, 228.969001983053, 0.000540787300170809, 0.45125,103.926597595215
0.046333085, 228.975043782016, 0.000758436867855284, 0.4575,107.166763305664
0.0469997266666667, 228.979837179941, 0.000783991084291932, 0.4625,107.708648681641
0.0476663366666667, 228.985295439044, 0.000950671712072615, 0.47,108.664482116699
0.0483328983333333, 228.990246705378, 0.00073246567232826, 0.4775,108.664482116699
0.0489995933333333, 228.995996042499, 0.000646268001950241, 0.48375,103.594772338867
0.0496676983333333, 229.000521678089, 0.000514285131320015, 0.49,102.152160644531
0.0503330183333333, 229.006150471113, 0.000501168290139337, 0.49625,115.184967041016
0.05099959, 229.011106473516, 0.000417383998529987, 0.5025,102.721725463867
0.0516677083333333, 229.016201342016, 0.00063415011061342, 0.51,102.721725463867
0.05233297, 229.021174405428, 0.000530251829313219, 0.51625,105.409210205078
0.052999575, 229.027016156137, 0.000149525952784203, 0.5225,114.239356994629
0.05366784, 229.031972214299, 9.52076811565834E-05, 0.52875,108.968597412109
0.0543329666666667, 229.037491019088, -3.06359978284038E-05, 0.53625,110.248344421387
0.054999675, 229.043503174488, -0.000223860792364426, 0.5425,110.248344421387
0.0556678633333333, 229.04857390288, -0.000375018699860286, 0.54875,107.570159912109
0.0563329783333333, 229.054190914995, -0.000253140821656389, 0.555,115.893859863281
0.0569996233333333, 229.059658420213, -0.000148626071362687, 0.5625,113.081809997559
0.0576666183333333, 229.065302542474, 3.64421328231401E-05, 0.56875,113.719146728516
0.0583329866666667, 229.070357515308, 9.35499341256773E-06, 0.575,113.719146728516
0.0589998066666667, 229.075355783177, 0.000288780458154161, 0.58125,130.625701904297
0.0596666183333333, 229.080263939033, 0.000178008022166109, 0.5875,113.776229858398
0.060334475, 229.084903471472, -5.881241226217E-06, 0.59375,108.795631408691
0.060999645, 229.089390824212, -1.70545094365375E-06, 0.60125,104.789451599121
0.0616662616666667, 229.094557618392, 0.000217030062200068, 0.60875,104.789451599121
0.0623329566666667, 229.099737045223, 0.000408972421137509, 0.615,111.267120361328
0.0629996883333333, 229.10470764822, 0.000623367152314309, 0.62125,104.281951904297
0.0636678283333333, 229.110964373849, 0.000613995623027443, 0.6275,109.162078857422
0.0643329766666667, 229.116525261009, 0.000668528383887237, 0.635,104.616523742676
0.0649996183333333, 229.122318540211, 0.000821463702119768, 0.64125,104.616523742676
0.065666235, 229.128060881964, 0.000778835843246517, 0.6475,112.733238220215
0.0663330716666667, 229.134434172362, 0.000864043563369607, 0.65375,105.643531799316
0.0669996766666667, 229.139711076349, 0.00101511897500203, 0.66125,109.795852661133
0.0676663366666667, 229.146042356031, 0.00080014077314735, 0.6675,101.583213806152
0.06833452, 229.152057669939, 0.000714753062074615, 0.67375,101.583213806152
0.0689995883333333, 229.158294147553, 0.00048358767329694, 0.68,115.361595153809
0.06966789, 229.16384066142, 0.000548562909637559, 0.68625,106.94896697998
0.07033294, 229.16949867459, 0.000652806173635526, 0.69375,114.533752441406
0.0709997466666667, 229.174737828688, 0.000761316723219638, 0.70125,112.217269897461
0.071666285, 229.179909580769, 0.000342254272300239, 0.7075,112.217269897461
0.07233299, 229.185033234515, 0.000621973722267379, 0.71375,106.911148071289
0.0729999666666667, 229.190013705396, 0.00049991885294139, 0.72,104.933975219727
0.0736677933333333, 229.195978840537, 0.000522921697543014, 0.72625,111.846397399902
0.0743329716666667, 229.201245816046, 0.000456625027548076, 0.73375,126.261825561523
0.0749997683333333, 229.207588209257, 0.000835387502714416, 0.74,126.261825561523
0.0756662816666667, 229.213542582043, 0.000853919071883527, 0.7475,110.895668029785
0.0763329733333333, 229.219718704123, 0.000842036668741779, 0.75375,108.693992614746
0.0769995816666667, 229.225811474634, 0.000822791135429193, 0.76,111.401702880859
0.0776663683333333, 229.23230325195, 0.000758687355294391, 0.76625,102.460159301758
0.0783331083333333, 229.23745148888, 0.000735069541623669, 0.77375,102.460159301758
0.07899972, 229.242897906947, 0.000820436253733504, 0.78,107.581581115723
0.0796664316666667, 229.248214205862, 0.000686621975066834, 0.78625,113.308334350586
0.080334405, 229.253182015643, 0.00071106624723253, 0.7925,112.769233703613
0.0809996883333333, 229.25775856752, 0.00107869028186741, 0.8,106.219863891602
0.0816664866666667, 229.263587349693, 0.000743596613301468, 0.80625,106.219863891602
0.0823345333333333, 229.26957131421, 0.000475114598876404, 0.8125,111.054077148438
0.0829997466666667, 229.275277260755, 0.000525822551870268, 0.82,103.255416870117
0.083666255, 229.280975493776, 0.000447253498324972, 0.82625,105.212768554688
0.0843328983333333, 229.287036868352, 0.000324943641807921, 0.8325,114.40518951416
0.084999795, 229.291936538303, 0.000688532879075396, 0.84,114.40518951416
0.0856664633333333, 229.297659223748, 0.000785708498052474, 0.84625,108.56307220459
0.0863329333333333, 229.302979569048, 0.000942005147467821, 0.8525,105.119361877441
0.0869996283333333, 229.308552207419, 0.000927383881855626, 0.86,107.236328125
0.08766665, 229.314401909974, 0.000303227732599341, 0.86625,107.660858154297
0.0883331216666667, 229.32052021464, 0.00021215980683378, 0.8725,107.660858154297
0.0889996083333333, 229.325698015484, 0.000346115078394356, 0.88,112.855697631836
0.0896666933333333, 229.331869695418, 0.000123965736713705, 0.885,106.223449707031
0.0903331783333333, 229.338044357745, 5.90879954592974E-05, 0.8925,116.17350769043
0.0909996583333333, 229.343611381786, 0.000204732179892347, 0.89875,129.580993652344
0.0916666266666667, 229.34880320081, 0.000393893678518558, 0.90625,106.682266235352
0.0923329283333333, 229.354796678514, 0.00020131835141918, 0.9125,106.682266235352
0.092999715, 229.360002594976, 0.000320419869085056, 0.91875,108.397262573242
0.0936662816666667, 229.36480722504, 0.00027837548095345, 0.925,105.34455871582
0.0943328733333333, 229.370687155703, 0.000522627712423738, 0.9325,110.669532775879
0.0950003483333333, 229.376741980288, 0.000381792286413935, 0.93875,110.669532775879
0.0956666383333333, 229.382314840466, 0.000414754630711011, 0.945,105.919166564941
0.096333, 229.38751699819, 0.000478087449532505, 0.9525,109.672843933105
0.0969996166666667, 229.393021404381, 0.000653956615801603, 0.95875,107.078414916992
0.0976676866666667, 229.398254983834, 0.000810130271373375, 0.965,108.969436645508
0.0983331566666667, 229.403281130351, 0.000769731300588447, 0.97125,108.969436645508
0.0989996933333333, 229.408421859143, 0.000509506371427342, 0.9775,115.881317138672
0.0996665933333333, 229.414065323247, 0.000451972261305277, 0.98625,113.987449645996
0.100333106666667, 229.419327178615, 0.000299843902571731, 0.9925,110.948852539063
0.100999581666667, 229.424765990719, 0.000149519953192861, 0.9975,109.828300476074
0.101666693333333, 229.430246190867, -3.09299830114423E-05, 1.00375,109.828300476074
0.102332966666667, 229.435161345086, 0.00025706005156054, 1.0125,109.101249694824
0.102999811666667, 229.440917745386, 5.00404499710593E-05, 1.01875,104.988922119141
0.10366786, 229.446153269231, 0.000193299754199101, 1.025,115.21997833252
0.104332966666667, 229.451325817908, 0.000261820812445391, 1.03125,111.567039489746
0.104999655, 229.456182441342, 0.000357016530870103, 1.03875,111.567039489746
0.105667235, 229.461544756415, 0.000611682739257554, 1.045,104.90966796875
0.10633294, 229.466532546063, 0.000711247738191595, 1.05125,103.229385375977
0.106999621666667, 229.471774918138, 0.000579227369472541, 1.05875,110.153381347656
0.107667841666667, 229.477127066217, 0.000364960131891272, 1.06375,131.703704833984
0.108334488333333, 229.483253717256, 0.00020796601752214, 1.07,112.228462219238
0.108999773333333, 229.488233370817, -0.000102201903038389, 1.07875,112.228462219238
0.109666298333333, 229.493852106942, -0.000132768867702142, 1.08375,110.730194091797
0.110332986666667, 229.499337833511, -0.000358615523695701, 1.09,115.579803466797
0.110999908333333, 229.504593681005, -0.00043296378924759, 1.0975,111.643493652344
0.11166626, 229.509314845495, -0.000488846482304111, 1.105,111.643493652344
0.112333088333333, 229.514966416956, -0.000643578710269302, 1.11125,107.281707763672
0.112999671666667, 229.520092054236, -0.000711045321490069, 1.1175,111.107048034668
0.113667835, 229.525502418798, -0.00056438268819592, 1.12375,105.148292541504
0.114332973333333, 229.530145033712, -0.000502393801831032, 1.13,106.952255249023
0.11499964, 229.535781124722, -0.000232752345650963, 1.1375,106.952255249023
0.115666423333333, 229.540793465847, -0.000112446388519238, 1.14375,106.536849975586
0.116334508333333, 229.545713795811, -6.56532388767544E-05, 1.15,106.501312255859
0.116999845, 229.550593967219, 2.93399897110095E-05, 1.15625,111.111137390137
0.11766632, 229.55598477882, 0.000272411780463392, 1.16375,110.939125061035
0.118332903333333, 229.560735654686, 5.55751719330069E-05, 1.17,110.939125061035
0.118999831666667, 229.565901030034, -0.000142845361607318, 1.17625,101.496398925781
0.119666245, 229.57067330541, -3.18869349720077E-05, 1.1825,108.070190429688
0.120332945, 229.57584431657, 3.29617372794489E-08, 1.19,110.930488586426
0.120999721666667, 229.580919608157, -0.000268618544209115, 1.1975,109.868896484375
0.121666291666667, 229.586394027054, 6.74875735415657E-05, 1.2025,109.868896484375
0.122332966666667, 229.591116973936, -0.00015039298254352, 1.20875,114.431549072266
0.122999751666667, 229.596045589266, -0.000131085952287892, 1.21625,107.288696289063
0.123667813333333, 229.600500488102, -1.69045169962117E-06, 1.22375,109.593902587891
0.124332943333333, 229.605522388884, 0.000111153380314413, 1.22875,129.805480957031
0.124999663333333, 229.609674571278, 0.000164387206449698, 1.235,105.215614318848
0.125666253333333, 229.614530802786, 0.000679023356807192, 1.2425,105.215614318848
0.126332961666667, 229.619131514884, 0.000641595736753962, 1.24875,108.167030334473
0.126999663333333, 229.624338212199, 0.000596503501703584, 1.255,106.491111755371
0.127666665, 229.628757991098, 0.000570463309675265, 1.2625,111.696563720703
0.128332966666667, 229.633911617253, 0.000193568240731047, 1.26875,111.696563720703
0.12899965, 229.63909466126, 9.03449255185823E-05, 1.275,110.160827636719
0.12966648, 229.643850916203, 0.00016346475281417, 1.28125,105.383079528809
0.130333418333333, 229.648696839896, 0.000228411490591127, 1.2875,105.98999786377
0.130999603333333, 229.653521914593, 0.000188685985969532, 1.295,112.422752380371
0.131666565, 229.658204874488, 0.000470404835485027, 1.30125,112.422752380371
0.132334421666667, 229.662843604222, 0.000313617710747306, 1.3075,116.087982177734
0.1330003, 229.66824477279, 1.10934061997715E-05, 1.315,111.926467895508
0.133666305, 229.673275740036, -0.000101165455169467, 1.32125,104.131904602051
0.134332986666667, 229.678242428198, -0.000101007963085871, 1.3275,112.859420776367
0.135, 229.683242149796, -0.000444789195325776, 1.33375,112.859420776367
0.135666306666667, 229.688541034857, -0.000605497123133744, 1.34125,107.533737182617
0.13633296, 229.693439785748, -0.000592542273831126, 1.3475,106.927032470703
0.136999736666667, 229.698230959165, -0.0005197659293089, 1.35375,107.568878173828
0.137666845, 229.703367822974, -0.000496986573464615, 1.36125,110.197174072266
0.138332955, 229.707575690383, -9.76346325078292E-05, 1.3675,110.197174072266
0.138999613333333, 229.712277439195, 0.000132510807505597, 1.37375,111.128982543945
0.13966645, 229.716876004225, 0.000135731145751998, 1.38,112.954345703125
0.140333021666667, 229.721747735392, 0.00018257229299664, 1.38625,110.708137512207
0.140999608333333, 229.725687963093, 0.000404120164885314, 1.39375,127.796546936035
0.141667711666667, 229.730309485351, 0.000401129315093866, 1.4,104.418319702148
0.142332906666667, 229.734974443894, 0.000393466200021122, 1.40625,104.418319702148
0.14299964, 229.739391248149, 0.000767713901968508, 1.4125,108.374382019043
0.143666513333333, 229.743336769645, 0.000742756655508119, 1.4175,110.08374786377
0.144332991666667, 229.747399202169, 0.000131850840683148, 1.42375,109.85375213623
0.144999963333333, 229.751463665369, -0.000311165407079574, 1.4325,109.85375213623
0.145666311666667, 229.754823521699, -4.38023364718813E-05, 1.44,104.81941986084
0.146333006666667, 229.75910770851, -0.000293058316601601, 1.44625,105.662391662598
0.147000186666667, 229.763192439126, -0.000794718618693577, 1.4525,110.239303588867
0.14766628, 229.768270254579, -0.000900760292348607, 1.46,111.565216064453
0.14833294, 229.772755580411, -0.000775504583793459, 1.46625,111.565216064453
0.149001285, 229.778151018043, -0.00102371211659527, 1.4725,113.339202880859
0.149666668333333, 229.782441348688, -0.00106730742683615, 1.47875,103.808769226074
0.15033306, 229.787009042434, -0.000906747991586609, 1.48625,108.30345916748
0.150999701666667, 229.791312843137, -0.000391408376577717, 1.4925,110.295043945313
0.151666653333333, 229.795871289373, -0.000286646138672461, 1.49875,110.295043945313
0.152332978333333, 229.79959263767, -0.000452597803108144, 1.50625,107.584281921387
0.152999586666667, 229.804471193359, -0.000392054844123045, 1.5125,113.212463378906
0.153667751666667, 229.808853196978, -0.00033436324189613, 1.51875,109.071792602539
0.15433299, 229.813428581133, -0.000605564619710636, 1.52625,112.629676818848
0.154999693333333, 229.817744469714, -0.000536655080937632, 1.5325,112.629676818848
0.155666443333333, 229.822479231336, -0.000382393829298826, 1.53875,113.745658874512
0.156332975, 229.826954711398, -7.08294788638152E-05, 1.545,115.680114746094
0.156999921666667, 229.831125835257, 2.87081923959576E-06, 1.5525,128.194885253906
0.157666346666667, 229.835923061434, 0.000225105656611232, 1.56,110.458572387695
0.15833312, 229.84039442624, 0.000225453639136551, 1.565,107.074913024902
0.158999911666667, 229.844926958583, 6.95694690171155E-05, 1.5725,107.074913024902
0.159666271666667, 229.849462841222, -0.000342572329536676, 1.57875,108.219696044922
0.160332895, 229.853976861214, -0.000498619991394812, 1.585,108.418304443359
0.160999691666667, 229.858173279026, -0.000786016055796834, 1.59125,115.18962097168
