Time (min), Depth (µm), Load (N), Position (µm), Acoustic (aJ)
7.66666666666667E-06, 228.641269744488, 0.00056091187560295, 0,109.49015045166
0.000664235, 228.641158882791, 0.000538168517944343, 0,107.267044067383
0.00133112166666667, 228.640315952757, 0.000276194676631483, 0.005,107.267044067383
0.00199847833333333, 228.638928795085, -1.50591939945958E-05, 0.01375,104.156608581543
0.00266404333333333, 228.637132321115, 7.38248414997564E-05, 0.0225,113.937980651855
0.00333061166666667, 228.635378882959, -0.000139857425457971, 0.02875,107.177001953125
0.00399717, 228.634665884258, 7.70586791082951E-05, 0.0375,104.549415588379
0.00466388666666667, 228.635393103445, 0.000214471276992241, 0.04375,104.549415588379
0.00533054166666667, 228.637845373416, 0.000232510870850813, 0.05,108.781776428223
0.00599847833333333, 228.640729092096, 0.000398021557405668, 0.05625,113.599502563477
0.00666504166666667, 228.6441432056, 0.000556152614642503, 0.06375,112.56379699707
0.00733054666666667, 228.647264962547, 0.000633332737956587, 0.07,109.002464294434
0.00799747166666667, 228.65023478696, 0.000796722531086424, 0.07875,109.002464294434
0.00866469, 228.653882236312, 0.000920392819271025, 0.08375,110.603981018066
0.00933054166666667, 228.658319749551, 0.000743577200575947, 0.09,105.702575683594
0.00999737833333333, 228.662441680744, 0.000637811513053625, 0.0975,105.667938232422
0.0106638383333333, 228.666941629, 0.000469755454318851, 0.105,108.990791320801
0.0113316733333333, 228.671989074065, 0.000220271485616073, 0.11125,108.990791320801
0.0119971716666667, 228.676591032232, 3.10154917099486E-05, 0.1175,109.167701721191
0.0126638383333333, 228.681377646451, 0.000450301431386687, 0.12375,102.598793029785
0.0133306883333333, 228.686039367172, 0.000798337949881274, 0.13,110.729934692383
0.0139971683333333, 228.690947374144, 0.00042541318151261, 0.1375,105.820625305176
0.0146638383333333, 228.695481987116, 0.000364274752454402, 0.14375,105.820625305176
0.0153315283333333, 228.700146298395, 0.000486556110407791, 0.15,108.829360961914
0.0159971616666667, 228.705114053016, 9.18299370757994E-05, 0.1575,132.391159057617
0.0166649566666667, 228.71068196641, -0.000456310030437125, 0.16375,106.963218688965
0.01733055, 228.715799670355, -0.000376959516128954, 0.17,104.817428588867
0.0179974166666667, 228.721318172995, -0.000406697022491435, 0.1775,104.817428588867
0.01866538, 228.726861251048, -0.000658472876022456, 0.18375,111.03825378418
0.0193305183333333, 228.732205919332, -0.000671694711890108, 0.19,110.191177368164
0.0199972, 228.7368719916, -0.000422680219653075, 0.1975,103.529136657715
0.020663855, 228.742453862856, -0.000158592984515958, 0.20375,108.11897277832
0.021330535, 228.747556593177, -0.000209683418275161, 0.20875,108.11897277832
0.0219973066666667, 228.752786132913, 9.43633097754756E-05, 0.21625,110.970626831055
0.022664895, 228.757766459359, 8.6101724759561E-05, 0.22375,106.18383026123
0.0233305483333333, 228.763594622115, 5.73451691906053E-05, 0.23,101.500289916992
0.0239971533333333, 228.768675967602, -0.000186937060746494, 0.23625,108.669509887695
0.0246639333333333, 228.774829427252, -0.000199915908839564, 0.2425,108.669509887695
0.0253308666666667, 228.779925957978, -0.000207240040997172, 0.24875,101.907684326172
0.02599719, 228.785879965506, -0.00022579410907484, 0.25625,108.414825439453
0.02666387, 228.791109143434, -0.000337012022695677, 0.2625,83.2193069458008
0.0273314716666667, 228.796653725351, -0.00027919292687323, 0.26875,115.024604797363
0.0279973866666667, 228.801547619017, -0.000313616197836636, 0.27625,115.024604797363
0.02866499, 228.807350076872, -0.000241799805102529, 0.2825,114.161849975586
0.0293313433333333, 228.812878965895, -0.000317802487547514, 0.28875,106.796081542969
0.0299979566666667, 228.817833554104, -0.00026871145335792, 0.295,111.942794799805
0.0306649966666667, 228.82289996226, -0.000273182728769179, 0.3025,105.841644287109
0.03133227, 228.828426407915, -2.29922955661969E-05, 0.30875,105.841644287109
0.0319971733333333, 228.833920268858, -5.91944771481704E-05, 0.315,106.769134521484
0.03266508, 228.838546099922, 9.58302360969109E-05, 0.3225,125.138542175293
0.033332095, 228.844804046037, 0.000111208963639022, 0.32875,109.435417175293
0.033999235, 228.850708371242, 4.1576461197377E-05, 0.335,106.977508544922
0.0346643816666667, 228.857136093874, -0.000322764238302401, 0.34125,106.977508544922
0.0353309666666667, 228.862127544787, -0.000324481652062943, 0.34875,106.978591918945
0.0359982416666667, 228.868791764134, -0.000378811923107043, 0.355,105.778175354004
0.03666391, 228.874560533676, -0.000605944014484226, 0.3625,109.707389831543
0.0373314033333333, 228.880388700138, -0.000476460018334909, 0.36875,110.896621704102
0.0379987966666667, 228.885209668026, -0.000429438880204384, 0.37375,110.896621704102
0.038664855, 228.89155253074, -0.000677488920901344, 0.38125,105.38599395752
0.039330635, 228.896552001951, -0.000417349487452479, 0.38875,109.801765441895
0.0399971733333333, 228.902352083219, -0.000442492724538872, 0.39375,109.067306518555
0.0406650933333333, 228.907653143529, -0.00031853595075074, 0.4,108.480422973633
0.0413305933333333, 228.913217914198, -0.00019585561288483, 0.40875,108.480422973633
0.0419972683333333, 228.918821445442, -3.99924417495491E-05, 0.415,103.569610595703
0.04266503, 228.924750749096, -0.000462146237374161, 0.42,106.070068359375
0.043330525, 228.92958225345, 1.62952310233762E-05, 0.4275,103.448181152344
0.04399717, 228.934564037868, -6.01079313435496E-05, 0.435,99.3761215209961
0.0446641366666667, 228.94017489808, -3.44487201774196E-05, 0.44125,99.3761215209961
0.0453312716666667, 228.945733148091, -0.00014069588349695, 0.44625,111.745132446289
0.0459994316666667, 228.950461791796, -8.17548440508337E-05, 0.45375,106.29362487793
0.0466655516666667, 228.956423774396, -0.000585662033323972, 0.46125,104.925727844238
0.0473319466666667, 228.962511382368, -0.000789012819249224, 0.46625,108.100402832031
0.0479978283333333, 228.968182780161, -0.00119105112525858, 0.47375,108.100402832031
0.0486638816666667, 228.973042685345, -0.000803541089463401, 0.48,111.180305480957
0.0493314716666667, 228.978840996163, -0.000532572199952653, 0.48625,126.456939697266
0.0499972283333333, 228.983936543926, -0.000123898227214308, 0.4925,106.249443054199
0.0506657816666667, 228.989355016682, -0.000269327922436438, 0.5,107.920707702637
0.051332435, 228.994509444735, 5.99674826400958E-06, 0.5075,107.920707702637
0.05199875, 229.000829846973, -0.00029076784551231, 0.5125,108.006294250488
0.05266565, 229.005881696689, -0.000509009883442343, 0.51875,113.15845489502
0.05333071, 229.010949053253, -0.000762162667830604, 0.52625,111.002326965332
0.05399897, 229.016029753728, -0.000539927830437713, 0.5325,104.573783874512
0.0546654233333333, 229.020793367007, -0.000712377168493523, 0.53875,104.573783874512
0.0553314033333333, 229.025266546096, -0.00057720845787817, 0.545,107.82275390625
0.0559972966666667, 229.030185641036, -0.000669093842571031, 0.5525,108.047721862793
0.0566647766666667, 229.03525057529, -0.000543947628539829, 0.55875,115.416862487793
0.0573313916666667, 229.039990721149, -0.000472056239543051, 0.565,110.023948669434
0.0579981683333333, 229.045015105493, -0.000395377091064671, 0.5725,110.023948669434
0.058664805, 229.049887006879, -0.000626950459386303, 0.57875,109.459114074707
0.05933186, 229.05542919742, -0.000646230490981418, 0.58375,105.580360412598
0.0599985383333333, 229.059684686984, -0.000392047258379341, 0.59125,110.360382080078
0.0606648933333333, 229.064990175955, -0.000467604463212796, 0.59875,102.943496704102
0.0613320866666667, 229.069184564498, -2.08489032963842E-05, 0.605,102.943496704102
0.0619991066666667, 229.074213598299, -0.00016649608757824, 0.61125,107.65885925293
0.0626640066666667, 229.078727550913, 0.000152552886925527, 0.61875,116.38117980957
0.0633305216666667, 229.084417233397, -0.000152926269206524, 0.625,103.577056884766
0.0639982, 229.088987427816, -0.000205951605764741, 0.63125,108.732978820801
0.0646657566666667, 229.09491940337, -0.000446082044230982, 0.6375,108.732978820801
0.0653323683333333, 229.099718460177, -1.65831175071173E-05, 0.645,133.535705566406
0.0659972716666667, 229.104960400969, -0.000231454824729169, 0.65125,108.07266998291
0.0666639916666667, 229.110001416589, -0.000273517211953614, 0.6575,110.717216491699
0.0673305483333333, 229.116057377733, -1.48282056364941E-05, 0.66375,99.7261352539063
0.0679971933333333, 229.121591356793, -0.000151732329105228, 0.67,99.7261352539063
0.0686638566666667, 229.127206674854, -0.000385851069606778, 0.6775,111.089645385742
0.0693313816666667, 229.132900900412, -0.000384217651655327, 0.68375,106.130294799805
0.0699972433333333, 229.138531566735, -0.000431630270182626, 0.69125,107.450996398926
0.0706639383333333, 229.143868721987, -0.000626284492908748, 0.6975,106.593849182129
0.071332265, 229.149334276771, -0.000596381994861908, 0.70375,106.593849182129
0.0719991316666667, 229.154934726981, -0.000753260615009482, 0.70875,107.865966796875
0.0726640966666667, 229.160062963623, -0.000830616229521255, 0.7175,112.72257232666
0.0733305816666667, 229.1657840673, -0.000790134762851639, 0.72375,110.819023132324
0.07399717, 229.170977001138, -0.000740530754409861, 0.73,108.646553039551
0.074663865, 229.176219465068, -0.0006126576773672, 0.7375,108.646553039551
0.0753320316666667, 229.181049656677, -0.000396934012914064, 0.74375,102.265266418457
0.0759980233333333, 229.186724645527, -3.6206631854341E-05, 0.75,106.548347473145
0.0766642816666667, 229.191880454691, 0.000150706479687559, 0.7575,105.995315551758
0.0773312716666667, 229.197169307235, -1.22388898224893E-06, 0.76375,105.695594787598
0.0779980616666667, 229.202342835072, -0.000104474202812718, 0.77,105.695594787598
0.0786652616666667, 229.208147888035, -0.000245854101444666, 0.77625,107.604591369629
0.0793319583333333, 229.213139606106, -0.000590127308952602, 0.78375,114.087860107422
0.0799981, 229.217627601653, -0.000732846640331708, 0.79,101.503318786621
0.0806639533333333, 229.222731870356, -0.000743932583509056, 0.79625,121.765480041504
0.0813320033333333, 229.228026532906, -0.000593797624647505, 0.8025,121.765480041504
0.0819985616666667, 229.232684301836, -0.000227724512143153, 0.81,130.812896728516
0.0826639883333333, 229.237612103157, -0.000226019097799091, 0.81625,107.210433959961
0.0833323033333333, 229.243334156671, -0.000365008116507164, 0.8225,103.001396179199
0.0839973533333333, 229.247911338506, -0.000479123884563939, 0.83,105.514953613281
0.0846649916666667, 229.252893603737, -0.000739083327084413, 0.83625,105.514953613281
0.08533152, 229.257760161471, -0.000768792334819471, 0.84375,109.567199707031
0.0859980383333333, 229.262813358574, -0.00100555244264149, 0.84875,113.42505645752
0.0866640916666667, 229.267471030005, -0.000631013755317368, 0.85625,105.931190490723
0.0873308216666667, 229.272980566232, -0.000542444704032716, 0.8625,106.796363830566
0.0879972866666667, 229.278213502559, -0.000424975104393887, 0.87,106.796363830566
0.0886648816666667, 229.283759098686, -0.000673694111502225, 0.87625,111.889862060547
0.08933214, 229.288734972826, -0.00031701802697834, 0.8825,107.877815246582
0.0899984866666667, 229.294441237801, -0.000591991715347171, 0.88875,108.405708312988
0.0906661683333333, 229.299216885449, -0.000404846115501512, 0.89625,107.222023010254
0.0913321833333333, 229.304088681751, -0.000487886444479321, 0.9025,107.222023010254
0.0919988733333333, 229.308408790726, -0.000233644714783008, 0.90875,104.453079223633
0.0926655933333333, 229.313388776299, -0.000511393263744202, 0.915,112.029495239258
0.0933322533333333, 229.317581399019, -0.000507280470329084, 0.9225,114.887512207031
0.0939991216666667, 229.322263016501, -0.00050013932903369, 0.93,104.971664428711
0.0946657983333333, 229.326947413632, -0.000420382335105964, 0.935,104.971664428711
0.0953322283333333, 229.331981794009, -0.000461109789420223, 0.9425,106.863182067871
0.0959991083333333, 229.336296938721, -0.000197325539033818, 0.95,107.024085998535
0.0966656016666667, 229.341475732748, -3.69126507194414E-06, 0.95625,116.869873046875
0.0973322483333333, 229.3462463622, -0.000112947277254508, 0.96125,116.869873046875
0.0979992383333333, 229.35100486201, -0.000181741321805953, 0.9675,112.295082092285
0.0986639833333333, 229.355857209115, -0.000421397784118257, 0.975,131.118423461914
0.099332685, 229.361256480125, -0.000516158524402262, 0.9825,107.395599365234
0.0999979016666667, 229.365654328869, -0.000560281808139356, 0.9875,111.807373046875
0.100663973333333, 229.370471342065, -0.000504792095318997, 0.995,111.807373046875
0.101332866666667, 229.37440458507, -0.000311405308947423, 1.00125,109.096183776855
0.101998335, 229.37889999534, -2.78505516010212E-05, 1.00875,106.43238067627
0.102664685, 229.3835985974, 0.000238803054678914, 1.015,114.183792114258
0.103332608333333, 229.38845714437, 0.000371646882086643, 1.02125,106.651100158691
0.103997288333333, 229.392969275463, 0.000633998704391633, 1.0275,105.712211608887
0.10466401, 229.397312081819, 0.000639302437995479, 1.035,105.712211608887
0.105332275, 229.402293511569, 0.000684766654361627, 1.04125,106.375663757324
0.10599804, 229.406475005838, 0.000481297374408518, 1.04875,108.106224060059
0.106664228333333, 229.410821403361, 0.0002466446607769, 1.055,108.823753356934
0.107331248333333, 229.415276045473, 0.000171714424429023, 1.06,110.316307067871
0.107998953333333, 229.420597588526, 0.000185735720131136, 1.06875,110.316307067871
0.108665116666667, 229.424427971271, -1.69400996638714E-05, 1.075,109.726547241211
0.109331488333333, 229.429232369158, 2.33883746528496E-05, 1.08125,108.98072052002
0.1099973, 229.433980119149, 1.34768725170481E-05, 1.0875,110.830001831055
0.110663955, 229.438675322465, -6.53336689209343E-05, 1.09375,111.653450012207
0.11133065, 229.442867580132, -0.000196847063127925, 1.1,111.653450012207
0.111998138333333, 229.448061859095, -0.000149128459979852, 1.1075,109.434135437012
0.112664103333333, 229.452872374631, -5.86950023006315E-05, 1.115,107.592544555664
0.11333213, 229.457707172295, 0.00016024300063753, 1.12,110.823913574219
0.113998201666667, 229.462856113517, 8.08339892563768E-05, 1.12625,106.63582611084
0.114665181666667, 229.468358631507, -3.50426903686343E-05, 1.13375,106.63582611084
0.115331391666667, 229.473841257538, -0.000128120515174627, 1.14125,133.952758789063
0.115998106666667, 229.478864763836, -0.000274604657422279, 1.1475,108.26823425293
0.116664703333333, 229.484239307187, -0.000286113579323853, 1.15375,109.326416015625
0.11733261, 229.489365707497, 9.84255513534793E-06, 1.15875,111.172027587891
0.11799733, 229.494284779532, 0.000147165157576353, 1.16625,111.172027587891
0.118664895, 229.499120535383, 0.000219383530156804, 1.17375,102.042678833008
0.119331826666667, 229.504371652394, 0.000395126702776028, 1.18,109.073104858398
0.119997426666667, 229.508906303755, 0.000483109283470227, 1.18625,105.319488525391
0.120664563333333, 229.51349727859, 0.000433400280298966, 1.19375,108.268295288086
0.121330775, 229.51901618816, 0.000438558521193188, 1.2,108.268295288086
0.121997461666667, 229.523911819486, 0.000436050647123351, 1.205,109.205345153809
0.122664003333333, 229.528281756174, 0.000518509005326425, 1.2125,112.744682312012
0.123330785, 229.533312563563, 0.000489573958732227, 1.22,115.299217224121
0.123998055, 229.538652311105, 0.00029020697270216, 1.225,113.357070922852
0.124664191666667, 229.542997608383, 0.000376575634504658, 1.2325,113.357070922852
0.125332668333333, 229.547558802857, 0.000255917195053151, 1.23875,111.49048614502
0.125997373333333, 229.55245532951, 9.83381100392235E-05, 1.245,106.787635803223
0.126663963333333, 229.556905454481, -0.000349489896038059, 1.25125,112.443367004395
0.127332141666667, 229.561002590436, -0.000407782968035697, 1.25875,115.103790283203
0.127997318333333, 229.565471576848, -0.000237094541548124, 1.265,115.103790283203
0.128664996666667, 229.569759138092, 9.19589304894631E-05, 1.27125,116.724060058594
0.129331913333333, 229.573757515184, 4.53922694743796E-05, 1.27875,110.119400024414
0.129998143333333, 229.578328287028, 0.000278984536361608, 1.285,105.120536804199
0.130665045, 229.583302353119, 0.000191639423602555, 1.29125,106.877067565918
0.131330725, 229.588017442933, -7.59711345954372E-05, 1.2975,106.877067565918
0.131998113333333, 229.592440277124, -5.70015874155584E-05, 1.305,130.403564453125
0.132664425, 229.597641938251, -0.000242324778813702, 1.3125,109.883270263672
0.1333307, 229.602308970595, -0.00040930389163565, 1.3175,104.383071899414
0.133997928333333, 229.60662486255, -0.00037836194580732, 1.32375,108.906730651855
0.134664925, 229.611120580207, -3.63761233969256E-05, 1.33125,108.906730651855
0.135332253333333, 229.615915732759, -0.000302450758772187, 1.3375,105.684928894043
0.135999163333333, 229.620324541746, -0.000299759893925152, 1.34375,107.251655578613
0.136665621666667, 229.625127913226, -0.00024803349207019, 1.35,105.431259155273
0.13733066, 229.629936263773, -4.96009591133843E-05, 1.3575,106.767288208008
0.137997303333333, 229.634708134903, -0.000583403146768838, 1.36375,106.767288208008
0.13866589, 229.639259191644, -0.000308319963918569, 1.37,110.55248260498
0.139332135, 229.643780840975, -0.000236659563364909, 1.3775,109.413131713867
0.139999811666667, 229.647785879284, 6.70061838022839E-05, 1.38375,111.37060546875
0.14066521, 229.651689023758, -5.53426707279979E-05, 1.39,113.303108215332
0.141330596666667, 229.656098478111, 0.000172569381508912, 1.39625,113.303108215332
0.141997498333333, 229.659997014618, 0.000237642112956997, 1.4025,104.287887573242
0.142663988333333, 229.663969439431, 0.000297595601545345, 1.41,111.596870422363
0.143331686666667, 229.667951860807, 0.000429491476538929, 1.41625,110.209358215332
0.143997325, 229.671817387292, 0.000526034127290307, 1.42125,104.412445068359
0.144664968333333, 229.674688881698, 0.000522794290026664, 1.42875,104.412445068359
0.145331381666667, 229.678309871257, 0.000263037337364392, 1.43625,106.386322021484
0.145997286666667, 229.681865607819, 0.000495560158003318, 1.44375,108.160285949707
0.146665785, 229.685706442831, 0.000241313928533795, 1.45,105.055473327637
0.147330723333333, 229.689398629451, 0.000387973561957883, 1.45625,127.119163513184
0.147997311666667, 229.694057473207, 0.000507708047828205, 1.4625,127.119163513184
0.148664753333333, 229.698176843259, 0.000567795029730951, 1.46875,104.59056854248
0.149332128333333, 229.702503153286, 0.000684859649717137, 1.47625,115.043632507324
0.149998778333333, 229.70623151766, 0.000991805732128115, 1.4825,106.375961303711
0.150664561666667, 229.710584808524, 0.00136473050051803, 1.48875,105.865829467773
0.151330638333333, 229.714206525099, 0.00143430900565991, 1.49625,105.865829467773
0.151997296666667, 229.718533008429, 0.00146047819120816, 1.5025,105.985191345215
0.152664793333333, 229.722138700697, 0.00138955575354592, 1.50875,107.742164611816
0.153331308333333, 229.726325103321, 0.00120361009337164, 1.51625,106.028495788574
0.153998286666667, 229.72990251797, 0.000634643671927542, 1.5225,105.120422363281
0.154665583333333, 229.73412886968, 0.000335311207084001, 1.52875,105.120422363281
0.155332685, 229.737766800779, 0.00027524972389611, 1.535,108.718292236328
0.155997296666667, 229.741488735182, 0.000125956222709803, 1.5425,104.502326965332
0.156666106666667, 229.744761837025, 4.36568565572365E-05, 1.54875,107.972190856934
0.157331858333333, 229.748365903278, 7.59217359430353E-05, 1.555,109.9208984375
0.157997335, 229.751709077198, -9.630111346412E-05, 1.5625,109.9208984375
0.158664856666667, 229.75506490867, -0.000282873742123972, 1.56875,107.309265136719
0.159331336666667, 229.75867518867, -0.000528618398566789, 1.575,110.475090026855
