Time (min), Depth (µm), Load (N), Position (µm), Acoustic (aJ)
7.33333333333333E-06, 228.74631664346, 5.48258720522217E-05, 0,108.923065185547
0.000664835, 228.746726929941, 2.24919961438731E-05, 0,109.72924041748
0.00132999666666667, 228.745348840901, 0.000268811123760662, 0.00375,109.72924041748
0.00199716333333333, 228.742655661045, 0.000143687408595509, 0.01375,111.56787109375
0.00266340666666667, 228.741257218804, 0.000187003732876126, 0.0225,106.052085876465
0.00332996833333333, 228.739757552075, 9.64967789436535E-05, 0.03,109.704345703125
0.00399713, 228.73964976013, 0.000416087226242013, 0.0375,109.704345703125
0.00466402166666667, 228.741719746142, 0.000181682000158187, 0.04375,108.835296630859
0.00533003, 228.74568282785, 0.000513688823813378, 0.05,89.3488235473633
0.00599669, 228.748563888151, 0.000576417173015344, 0.0575,112.516212463379
0.00666330833333333, 228.752891393205, 0.000316694718635601, 0.065,107.789619445801
0.00733022, 228.756583565811, 6.5657960670487E-06, 0.0725,107.789619445801
0.00799721833333333, 228.760159419816, 2.83971995396959E-05, 0.07875,104.408348083496
0.00866487833333333, 228.763583240761, -0.000359174333134764, 0.08375,91.8585433959961
0.00932997833333333, 228.767278866738, -0.000411991180222182, 0.09,132.234817504883
0.00999701333333333, 228.770428422968, -0.000391797694559212, 0.09875,102.896697998047
0.01066413, 228.773865183571, -0.000503378589949399, 0.105,106.807472229004
0.011330435, 228.777899515582, -0.000815956889493553, 0.11,106.807472229004
0.0119966516666667, 228.78176031032, -0.000907743279175799, 0.11875,110.545074462891
0.0126635166666667, 228.786295036575, -0.00119218449199331, 0.12375,107.526329040527
0.0133300666666667, 228.790438555954, -0.00114056908458669, 0.13,111.641075134277
0.0139969066666667, 228.795447342389, -0.00106733526305771, 0.1375,111.641075134277
0.014663505, 228.799350227712, -0.000877405803030761, 0.14375,107.264930725098
0.0153299916666667, 228.804353446408, -0.000902973518744529, 0.15,105.370170593262
0.0159971616666667, 228.809939558496, -0.00107374444107428, 0.15625,107.87663269043
0.016663645, 228.815151995739, -0.00109538535404144, 0.16375,110.704643249512
0.0173300116666667, 228.820071075404, -0.00121106254372082, 0.17125,105.304183959961
0.0179970866666667, 228.825731844931, -0.00116185151553646, 0.1775,105.304183959961
0.0186637966666667, 228.830724084932, -0.0010112335809533, 0.18375,102.960594177246
0.0193300716666667, 228.83519757126, -0.000765443926735875, 0.19,103.266693115234
0.0199968666666667, 228.839901512905, -0.000412379660833913, 0.1975,112.91268157959
0.0206632966666667, 228.844935177964, -0.000187881437133932, 0.205,113.194702148438
0.0213304933333333, 228.850036492368, 1.97831320764746E-05, 0.21,113.194702148438
0.021996955, 228.855219087465, -5.00612278698716E-06, 0.2175,107.193382263184
0.0226633266666667, 228.860825190069, -3.82369536160085E-05, 0.2225,109.006301879883
0.02333015, 228.866721512479, -0.000308025402408851, 0.22875,107.664352416992
0.0239970166666667, 228.871761244452, -0.000372415668147183, 0.2375,113.23804473877
0.0246636316666667, 228.877621592663, -0.000745764915164477, 0.24375,113.23804473877
0.0253301633333333, 228.883115811459, -0.000800809150352052, 0.25,107.294021606445
0.0259968566666667, 228.888876991987, -0.000709475737967114, 0.25625,130.157501220703
0.0266639633333333, 228.894338703917, -0.000653836032706429, 0.2625,109.181938171387
0.0273300716666667, 228.900654890417, -0.000819447214217557, 0.27,106.813003540039
0.02799733, 228.906150892684, -0.00065828480925164, 0.27625,106.813003540039
0.0286639866666667, 228.911828622348, -0.000641622146186545, 0.2825,106.834533691406
0.0293300566666667, 228.917375360471, -0.000900924621669614, 0.28875,102.612106323242
0.0299970433333333, 228.923224401322, -0.000929616680510483, 0.295,104.597793579102
0.030663345, 228.9283991068, -0.000612060131043007, 0.3025,111.337104797363
0.0313301783333333, 228.934008443116, -0.000506177449395977, 0.31,111.337104797363
0.032163975, 228.939570727424, -0.000228605891535621, 0.31625,104.891807556152
0.0328300016666667, 228.94417805533, 0.000142400473223718, 0.32375,106.92684173584
0.03349704, 228.949895058193, 0.000114957851644557, 0.33125,109.656227111816
0.0341637416666667, 228.955425646565, 1.86941868746931E-05, 0.3375,105.531311035156
0.0348299683333333, 228.961097413197, -0.000261293749666901, 0.3425,110.984527587891
0.03549688, 228.966297653028, -0.000581652158408507, 0.35,110.984527587891
0.0361638783333333, 228.972775938382, -0.000490119256014174, 0.3575,104.213195800781
0.036830065, 228.978729230918, -0.000579448769077548, 0.3625,103.811096191406
0.037496665, 228.984517944306, -0.000737075851651126, 0.37,103.27515411377
0.0381632983333333, 228.990103033422, -0.000458689834691022, 0.3775,108.215263366699
0.0388306583333333, 228.996876038864, -0.000516261442923169, 0.38375,108.215263366699
0.0394973883333333, 229.002931740754, -0.000785295429634902, 0.39,113.840347290039
0.0401634616666667, 229.008473646866, -0.00080225207790429, 0.39625,112.359733581543
0.0408301633333333, 229.0137477929, -0.000654170515848356, 0.40375,106.451377868652
0.041496645, 229.01920754212, -0.000733257043397792, 0.41,107.118507385254
0.0421640283333333, 229.024550991615, -0.000577671358319621, 0.41625,107.118507385254
0.0428306266666667, 229.029613921477, -0.000575406472088128, 0.4225,131.958999633789
0.0434966816666667, 229.035467828824, -0.000719390239972976, 0.42875,106.947944641113
0.04416363, 229.040887786257, -0.0009277417746876, 0.435,108.537910461426
0.04483011, 229.04666463635, -0.000945535380944037, 0.4425,105.346641540527
0.0454966783333333, 229.052299696163, -0.00131770568723159, 0.44875,105.346641540527
0.046163975, 229.058018675851, -0.00127673074532703, 0.455,105.089256286621
0.0468300466666667, 229.063261693683, -0.00121606479249836, 0.4625,116.229347229004
0.0474969016666667, 229.069703914802, -0.00118110154866476, 0.46875,111.926658630371
0.0481636916666667, 229.075272149057, -0.00106029761652489, 0.475,108.552391052246
0.0488300233333333, 229.081080926596, -0.000792549065260541, 0.48125,108.552391052246
0.049497645, 229.086415305069, -0.000909340698920318, 0.48875,111.84294128418
0.05016393, 229.091926679357, -0.000802228079092583, 0.495,109.239074707031
0.0508305683333333, 229.097019450136, -0.00071462197946611, 0.5025,109.245979309082
0.05149721, 229.102541054377, -0.00109047760062884, 0.5075,109.793312072754
0.0521640033333333, 229.10779233234, -0.000863531499877658, 0.515,109.793312072754
0.0528301666666667, 229.113124662492, -0.000626961882539865, 0.52125,110.127807617188
0.0534967766666667, 229.118581387528, -0.000452379651621304, 0.5275,109.804557800293
0.0541649116666667, 229.124562878486, -0.000693348547977745, 0.53375,106.642593383789
0.0548307, 229.130231476619, -0.000775782907390368, 0.54125,106.284523010254
0.0554967583333333, 229.135268707748, -0.00100382395312596, 0.5475,106.284523010254
0.05616382, 229.141119455614, -0.00127105503036491, 0.55375,109.62671661377
0.0568304466666667, 229.146692603682, -0.00147577674740728, 0.56125,108.629013061523
0.0574968983333333, 229.151807752684, -0.00114747173783821, 0.5675,105.875389099121
0.0581633783333333, 229.156657306134, -0.000454038568245102, 0.57375,131.823379516602
0.0588300266666667, 229.162026243833, -0.000106719013764051, 0.58,131.823379516602
0.05949701, 229.16775146806, 2.37800638925938E-06, 0.585,116.013008117676
0.060163905, 229.172476019052, 0.000390092031903283, 0.59375,113.918243408203
0.0608316666666667, 229.178124338891, 0.000522098901345216, 0.6,106.509620666504
0.06149729, 229.184014467719, 0.000469988518800511, 0.60625,102.450286865234
0.0621642666666667, 229.189983450052, 0.00037811513352413, 0.61375,102.450286865234
0.0628299883333333, 229.195330486804, 0.000722830818794789, 0.62,113.701705932617
0.0634982716666667, 229.201415867033, 0.000493135356144848, 0.62625,105.958808898926
0.0641648366666667, 229.207160381894, 0.000219529599065583, 0.63375,106.335609436035
0.0648305133333333, 229.212841913445, 4.62883007760748E-05, 0.64,109.205421447754
0.065496905, 229.218845565765, -6.15922804523984E-05, 0.64625,109.205421447754
0.0661649016666667, 229.224552500455, -0.000724912962539698, 0.6525,103.148551940918
0.0668301033333333, 229.229674920398, -0.000307069950330181, 0.66,105.986831665039
0.0674969333333333, 229.234659841423, -0.000167585956441508, 0.66625,108.120880126953
0.0681648233333333, 229.239845630784, -0.000105321083943911, 0.67125,114.201126098633
0.06883055, 229.244272081975, 0.000120872054608054, 0.67875,114.201126098633
0.06949719, 229.249753570743, 0.000720568932475865, 0.68625,116.366073608398
0.0701640466666667, 229.255998233605, 0.000255115311717818, 0.6925,107.495193481445
0.07083004, 229.261599285661, 0.000394173326969695, 0.69875,120.323768615723
0.0714973483333333, 229.266962548233, 0.000527056152411909, 0.70625,108.182220458984
0.0721635683333333, 229.273100392062, 0.00035409234022202, 0.7125,108.182220458984
0.0728303, 229.27886932243, 0.000176781746346342, 0.71875,112.147094726563
0.07349738, 229.284247345218, 0.000263604885328044, 0.725,109.343460083008
0.0741649016666667, 229.290233214333, -0.000145906045376098, 0.7325,110.780364990234
0.0748300116666667, 229.296476191362, -0.000329465325378453, 0.73875,129.809265136719
0.0754972666666667, 229.301804742754, -0.000458496344336732, 0.745,129.809265136719
0.0761633533333333, 229.307131355784, -0.000361143734280069, 0.7525,115.640693664551
0.076830195, 229.313228070087, -0.000373461115583778, 0.75875,107.572563171387
0.0774968933333333, 229.318808165021, 0.000115527823024066, 0.765,110.052558898926
0.0781648466666667, 229.324015120091, 0.000271321997636797, 0.77125,110.615509033203
0.0788315683333333, 229.329679097892, 0.000555086744463417, 0.77875,110.615509033203
0.0794970283333333, 229.335167171805, 0.00068239284999663, 0.785,109.980445861816
0.0801635066666667, 229.33986996695, 0.00112754799031972, 0.79125,110.38069152832
0.0808303733333333, 229.344965876324, 0.00118487661077728, 0.79875,106.831924438477
0.0814971183333333, 229.350582368341, 0.00127893538629178, 0.805,110.00203704834
0.082163345, 229.355924234272, 0.00122436962709512, 0.8125,110.00203704834
0.0828300216666667, 229.361819803676, 0.00135982482333525, 0.81875,106.458686828613
0.0834974133333333, 229.367993650599, 0.00129448660520403, 0.825,111.523513793945
0.0841637933333333, 229.373891583324, 0.00148226667322105, 0.83125,115.823806762695
0.0848300083333333, 229.379268278967, 0.00134243319690391, 0.83875,106.558975219727
0.085497105, 229.385327513278, 0.00140869386869191, 0.845,106.558975219727
0.08616482, 229.390694800854, 0.00108493213086295, 0.8525,106.145477294922
0.0868314516666667, 229.395623129385, 0.000888268009075139, 0.85875,105.784927368164
0.0874968833333333, 229.400680328203, 0.000564686262259579, 0.86375,108.947937011719
0.0881635883333333, 229.406508720423, 0.000788887500885206, 0.87125,110.327156066895
0.08883002, 229.411462016448, 0.000716894117029006, 0.8775,110.327156066895
0.0894973433333333, 229.417035689098, 0.000673213311097143, 0.885,108.573081970215
0.0901634833333333, 229.422814398752, 0.000757681568340648, 0.8925,106.249481201172
0.0908316383333333, 229.428369917356, 0.000984266187183118, 0.8975,113.09171295166
0.0914971933333333, 229.433735414037, 0.000672098867031727, 0.90375,127.281921386719
0.09216335, 229.439654052195, 0.000626252169857732, 0.91125,127.281921386719
0.092830595, 229.444552318723, 0.000872886281684221, 0.91875,110.294891357422
0.0934970883333333, 229.450292062182, 0.000591089436078503, 0.925,105.115791320801
0.0941633633333333, 229.455867411499, 0.000214375858029588, 0.93,108.331344604492
0.0948315, 229.461861735148, 0.000364182333383063, 0.93625,108.11840057373
0.0954970133333333, 229.467133247514, 0.000190419061316204, 0.945,108.11840057373
0.0961648033333333, 229.47280302055, -0.000215247562441002, 0.95125,103.200080871582
0.09683003, 229.478015530937, -3.03383502419199E-05, 0.95625,108.764305114746
0.0974973216666667, 229.482601313455, 3.8161709062724E-05, 0.96375,110.901977539063
0.0981642266666667, 229.487221661511, -5.40326600997166E-05, 0.97,103.038681030273
0.0988300133333333, 229.491922785179, 0.000481126959395735, 0.9775,103.038681030273
0.09949738, 229.496873988097, 0.000869101971777179, 0.98375,111.272689819336
0.100163965, 229.501132881284, 0.001234570614662, 0.99,110.188972473145
0.100830085, 229.506947934154, 0.00134576002971918, 0.9975,106.641235351563
0.101496808333333, 229.511773294013, 0.0015986233286551, 1.00375,109.013397216797
0.102163381666667, 229.517705418301, 0.00146004678922169, 1.00875,109.013397216797
0.102830101666667, 229.522376274409, 0.00140381461371544, 1.01625,104.006317138672
0.10349728, 229.528765749947, 0.00115195476437533, 1.02375,109.087440490723
0.104165073333333, 229.533812336982, 0.00129939885843236, 1.03,101.879402160645
0.104830031666667, 229.539365197425, 0.00149063775267589, 1.0375,108.907501220703
0.105497823333333, 229.54424770599, 0.00140422259321689, 1.0425,108.907501220703
0.106163955, 229.549795349176, 0.00171813582569249, 1.05,108.217529296875
0.106831423333333, 229.554080722041, 0.0020690881976946, 1.0575,102.35474395752
0.10749809, 229.559401514776, 0.00233011858643028, 1.06375,110.933029174805
0.10816459, 229.564281605846, 0.0020973842764505, 1.06875,125.477272033691
0.108830093333333, 229.569336099063, 0.00224357143358129, 1.07625,125.477272033691
0.109497438333333, 229.573979783545, 0.00234522882744045, 1.08375,105.282035827637
0.11016496, 229.579634697807, 0.00182528294380275, 1.09,107.441215515137
0.11083002, 229.584521392466, 0.00162865182035181, 1.09625,110.026504516602
0.1114972, 229.589614957606, 0.00155169668571947, 1.10125,106.732887268066
0.112163873333333, 229.594952871365, 0.001535152516746, 1.11,106.732887268066
0.112831618333333, 229.601124296604, 0.00114476112570457, 1.11625,118.168464660645
0.113496701666667, 229.606232378585, 0.000874555697821351, 1.1225,102.935424804688
0.114164076666667, 229.611650104089, 0.00061504623270687, 1.12875,104.235801696777
0.114831533333333, 229.616907251525, 0.000426085724014458, 1.135,113.109809875488
0.115497925, 229.622134417299, 0.00025639324750068, 1.1425,113.109809875488
0.116163906666667, 229.62674146971, 0.000249133612134921, 1.14875,110.751777648926
0.1168306, 229.631943814386, 0.000605692702534097, 1.155,105.858421325684
0.117498398333333, 229.636946326544, 0.000904894673933301, 1.1625,107.730255126953
0.118163518333333, 229.642195483948, 0.000838122527817513, 1.16875,109.565773010254
0.118831591666667, 229.647405026436, 0.00111577958136885, 1.17375,109.565773010254
0.119498216666667, 229.652732460751, 0.000846676598134571, 1.18125,103.451141357422
0.120163348333333, 229.657381940114, 0.000974656169852371, 1.18875,109.052215576172
0.120831635, 229.662527548375, 0.000931023361480159, 1.19375,108.155220031738
0.121497035, 229.667838609341, 0.000657209114866333, 1.20125,106.28572845459
0.122163365, 229.67258299242, 0.00034439832701842, 1.2075,106.28572845459
0.122831478333333, 229.677511810985, 0.000589961492672204, 1.215,105.46809387207
0.123496888333333, 229.682449814927, 0.000657252612695281, 1.22125,108.334281921387
0.124164783333333, 229.687528315845, 0.000655407705381717, 1.2275,130.935409545898
0.124830648333333, 229.692315256296, 0.00102572110493923, 1.23375,107.039909362793
0.125497985, 229.697476546889, 0.00107322821872519, 1.24,107.039909362793
0.126163365, 229.703054689446, 0.00111757649116528, 1.2475,108.051651000977
0.126830076666667, 229.708140852927, 0.00120770546408437, 1.25375,109.736930847168
0.127497191666667, 229.713553427754, 0.000911758329192838, 1.26,109.465255737305
0.128163855, 229.718745446614, 0.000919796425408905, 1.26625,107.960136413574
0.128830121666667, 229.723497952185, 0.000649456004329393, 1.27375,107.960136413574
0.12949829, 229.727876672587, 0.000791002394612611, 1.28,106.05891418457
0.130163418333333, 229.732741999848, 0.000573411323979862, 1.28625,111.302795410156
0.130830138333333, 229.737298138535, 0.000463267356401791, 1.29375,109.154510498047
0.131497075, 229.74164014259, 0.000410537504951016, 1.3,107.336059570313
0.132163388333333, 229.746347904095, 0.000501494436246974, 1.30625,107.336059570313
0.132830091666667, 229.751487110548, 0.00020245595662898, 1.31375,114.703971862793
0.133498175, 229.756280808779, 7.97996175322677E-05, 1.32125,101.623260498047
0.13416432, 229.760408641913, 0.000302413935841691, 1.32625,106.514640808105
0.134830528333333, 229.765448285013, 0.000251590488668777, 1.33125,107.156608581543
0.135498285, 229.76979351192, 0.000401119477986395, 1.34,107.156608581543
0.136163998333333, 229.774010040167, 0.000539303037162394, 1.34625,111.046188354492
0.13683003, 229.778490473956, 0.000565574217612578, 1.3525,99.8105850219727
0.137496695, 229.783547193023, 0.000558644565658043, 1.35875,106.618362426758
0.138163491666667, 229.787800131582, 0.000953070754024367, 1.365,114.102096557617
0.138830151666667, 229.792417113642, 0.000685842676634221, 1.3725,114.102096557617
0.139496828333333, 229.797140158057, 0.000679505494946498, 1.37875,104.527534484863
0.140163863333333, 229.801691254738, 0.000798908497417429, 1.385,108.355766296387
0.140830661666667, 229.805476305181, 0.000990729362435699, 1.3925,124.348197937012
0.141496888333333, 229.810375111037, 0.000739718470499118, 1.39875,106.677238464355
0.142163748333333, 229.815124712072, 0.00107492163361026, 1.405,106.677238464355
0.142830053333333, 229.819218561048, 0.00105614557672091, 1.41125,109.033027648926
0.143497205, 229.823692605548, 0.00104333172033345, 1.41625,108.696647644043
0.144163708333333, 229.828131761407, 0.00109474613787003, 1.4225,107.14045715332
0.144830016666667, 229.831471374046, 0.00117422414577373, 1.43,110.885871887207
0.145498048333333, 229.835920091584, 0.00106994338364443, 1.43875,110.885871887207
0.14616344, 229.8408228069, 0.00101332572750279, 1.445,107.728622436523
0.146830085, 229.845853782731, 0.000897023069304741, 1.45125,113.222961425781
0.14749733, 229.850668868151, 0.000250749030972278, 1.45875,112.42350769043
0.148163401666667, 229.856479957524, 0.000148751154209817, 1.465,112.216590881348
0.148831606666667, 229.861436126877, 0.000194551353727311, 1.47125,112.216590881348
0.149497015, 229.865563655082, 0.000411479457646295, 1.4775,106.394958496094
0.150164145, 229.86926842084, 0.000381032486934802, 1.485,106.952018737793
0.15083069, 229.873781689449, 0.000529975005683222, 1.49125,103.10245513916
0.151496705, 229.877398028847, 0.000382902892941968, 1.4975,111.073303222656
0.152163955, 229.881280946438, 0.000729674974952067, 1.50375,111.073303222656
0.152830123333333, 229.885430952922, 0.000472536890701711, 1.51125,102.684181213379
0.15349676, 229.890048945632, 0.000442992874693521, 1.5175,107.102928161621
0.154164006666667, 229.894261527657, 0.000796037641620749, 1.52375,111.318557739258
0.154831511666667, 229.89843030593, 0.00104642306505992, 1.53125,107.306945800781
0.155496901666667, 229.902948682288, 0.000856364611470525, 1.5375,107.306945800781
0.15616391, 229.907171233294, 0.000852464807405686, 1.54375,101.706214904785
0.156830078333333, 229.911238031596, 0.00107641705851661, 1.55125,104.902473449707
0.157497695, 229.916018774292, 0.00102486614783808, 1.5575,128.986434936523
0.158163348333333, 229.920778122327, 0.000627041130136354, 1.56375,109.044281005859
0.158831536666667, 229.924877898618, 0.000268977615305661, 1.57,109.044281005859
0.159496888333333, 229.929586036687, 0.000175857792616377, 1.5775,110.946472167969
0.160164366666667, 229.933521179196, 0.000131986496200284, 1.58375,109.096809387207
0.160830045, 229.937635350145, -0.000219316858197205, 1.59,111.791549682617
0.161497345, 229.941403968374, 3.16415364702785E-05, 1.5975,104.871932983398
