Time (min), Depth (µm), Load (N), Position (µm), Acoustic (aJ)
7.28166666666667E-06, 228.704626005968, 0.000208705373578524, 0,105.888137817383
0.00066617, 228.704689700254, 2.97253635657173E-05, 0,105.216804504395
0.00133287333333333, 228.703711064778, -1.00059310603567E-06, 0.005,102.418823242188
0.00199906833333333, 228.703051139178, -0.000288536150498815, 0.01375,105.155143737793
0.00266623666666667, 228.701669508882, -2.97856472811615E-05, 0.0225,107.505569458008
0.00333309, 228.70117197327, -0.000288474653598281, 0.03,107.505569458008
0.00399962333333333, 228.701107162187, -0.000123295450379054, 0.03625,106.738868713379
0.00466713666666667, 228.702873030268, -0.000322159961649014, 0.04375,108.147888183594
0.005333005, 228.705307514057, 0.000143232162165991, 0.05125,129.595886230469
0.00599911833333333, 228.708479355729, 0.000225782015757664, 0.0575,106.970344543457
0.00666607833333333, 228.711941853381, 0.000567973327853812, 0.06375,109.261337280273
0.00733384666666667, 228.715128572823, 0.000496158435065362, 0.0725,109.261337280273
0.00799908166666667, 228.71823825068, 0.000412476138379197, 0.0775,104.324928283691
0.00866715333333333, 228.721610578067, 6.51445845029197E-05, 0.08375,109.113151550293
0.0093326, 228.72486325564, 5.13347781204118E-05, 0.09125,109.558410644531
0.00999958666666667, 228.727398478577, 0.000133953628298397, 0.09875,109.558410644531
0.0106659383333333, 228.730809948225, 0.000479356279073273, 0.105,107.684730529785
0.011332975, 228.734344662807, 0.000813254507719784, 0.11,111.947021484375
0.0119997866666667, 228.738179764167, 0.00066107815138408, 0.11875,101.53288269043
0.0126660566666667, 228.742883890829, 0.000782449055075913, 0.125,106.58797454834
0.01333259, 228.747241517779, 0.000693451025348167, 0.13,106.58797454834
0.01400053, 228.75164864795, 0.000526081932096356, 0.1375,113.08757019043
0.0146671366666667, 228.756045133277, 0.000314475560831548, 0.14375,110.395843505859
0.0153330366666667, 228.760886456209, 0.000546156923710214, 0.15125,105.443305969238
0.0160005533333333, 228.765346839685, 0.000180287800924705, 0.1575,103.67790222168
0.0166660616666667, 228.77040955573, -3.86544920510237E-06, 0.1625,103.67790222168
0.01733392, 228.775705564397, -6.217202052237E-05, 0.17,105.160339355469
0.01799912, 228.781259102789, -0.00023611828338768, 0.1775,111.681701660156
0.0186663516666667, 228.786290845966, -7.18540341819648E-05, 0.18375,108.273574829102
0.019332695, 228.791682276195, 2.16317701254758E-05, 0.19,109.535659790039
0.0199992116666667, 228.797124294505, 0.000160028318587992, 0.1975,109.535659790039
0.0206659716666667, 228.801886438774, 0.000260335780250424, 0.20375,108.754257202148
0.0213325516666667, 228.806684701991, 0.000417797871097136, 0.21,104.910682678223
0.02199964, 228.811697417335, 0.000435843464674575, 0.2175,139.715270996094
0.0226662766666667, 228.816516002013, 0.000539458260198798, 0.22375,108.326461791992
0.02333285, 228.821149989572, 0.000430964209761867, 0.23,111.101234436035
0.0240005916666667, 228.826894191638, -0.000135135855595003, 0.2375,111.101234436035
0.0246659666666667, 228.832497000592, -0.000380099051359959, 0.24375,103.820541381836
0.02533334, 228.83801464261, -0.000678375569211066, 0.25,106.039710998535
0.026000495, 228.843008990398, -0.000680385468272751, 0.25625,110.272018432617
0.0266660633333333, 228.848697606415, -0.000441879448211541, 0.2625,110.272018432617
0.027332845, 228.853193200329, 0.000347020926144519, 0.27,107.706085205078
0.028000605, 228.859210402141, 0.000509627758544568, 0.27625,106.088516235352
0.028666145, 228.864162810352, 0.000537115377855827, 0.2825,106.158302307129
0.0293327033333333, 228.87002377381, 0.000438643823981793, 0.28875,105.09627532959
0.0299992066666667, 228.875789724898, 0.000134748588338394, 0.29625,105.09627532959
0.0306671533333333, 228.881905799357, -0.000281488004558931, 0.3025,107.17561340332
0.0313330133333333, 228.886973387361, -0.000105642837037777, 0.30875,105.962303161621
0.0319992783333333, 228.892120894806, 0.000274678059838597, 0.315,110.340713500977
0.032667145, 228.897536904128, 0.00034056825025649, 0.3225,107.838043212891
0.0333331383333333, 228.903335538466, 0.000495477469343775, 0.32875,107.838043212891
0.0339990866666667, 228.908420237308, 0.000851234100059684, 0.335,106.275764465332
0.0346662666666667, 228.914033721831, 0.000628516286923928, 0.34125,108.607780456543
0.035332685, 228.920083511143, 0.000399078811335109, 0.34875,101.207397460938
0.035999695, 228.925791667107, 0.000503646059046688, 0.35625,111.669799804688
0.036667265, 228.93127003758, 0.000717122836318661, 0.3625,111.669799804688
0.0373327066666667, 228.937266993301, 0.000404567035725572, 0.36875,103.77961730957
0.0379990833333333, 228.943078420338, 0.000541418661797683, 0.375,112.67472076416
0.0386672933333333, 228.948408999127, 0.000631222151036249, 0.3825,131.641296386719
0.0393326383333333, 228.954277033787, 0.000692864554821477, 0.38875,108.929496765137
0.0399996683333333, 228.960200156754, 0.000425618478317238, 0.39375,110.639923095703
0.0406673066666667, 228.965716220215, 0.00041346908852544, 0.40125,110.639923095703
0.0413326583333333, 228.971419203325, 0.000480746709228888, 0.40875,109.08203125
0.0419995566666667, 228.977506249939, 0.000362527147260906, 0.41375,108.819702148438
0.0426666016666667, 228.982608253436, 0.000436527430308731, 0.42,106.497436523438
0.0433329866666667, 228.987333796724, 0.000241198241494872, 0.4275,106.497436523438
0.0439991066666667, 228.992998002174, 8.30926829941471E-05, 0.435,108.820373535156
0.044665895, 228.997805098337, 0.000134720089774732, 0.44,116.499298095703
0.0453330066666667, 229.003012633407, 0.000215336540513049, 0.4475,102.19701385498
0.0459994133333333, 229.007981114341, -1.85632109618635E-05, 0.45375,108.308906555176
0.0466676666666667, 229.013698190954, 0.000383628087379134, 0.46125,108.308906555176
0.0473327333333333, 229.019330010545, 0.000574456002314922, 0.46625,99.8605499267578
0.0479994266666667, 229.024998201751, 0.000266048993301376, 0.47375,105.184532165527
0.04866749, 229.03130059497, 0.000105179073615348, 0.48,109.700714111328
0.04933269, 229.037332863103, -0.000130268600077521, 0.48625,110.500015258789
0.0500004683333333, 229.042960527501, -1.15030655417371E-05, 0.49375,110.500015258789
0.0506663533333333, 229.048486187937, 7.59247530926943E-06, 0.5,104.984405517578
0.0513324383333333, 229.053610366072, 0.000196582982468493, 0.50625,109.188957214355
0.05199967, 229.059195920917, 0.000355338008405862, 0.51375,106.283729553223
0.052665935, 229.064097996269, 0.000617821824100847, 0.52,102.758949279785
0.05333313, 229.069757470586, 0.000332342663426254, 0.52625,102.758949279785
0.0539991766666667, 229.074210785065, 0.000539099778223911, 0.5325,112.041076660156
0.0546659833333333, 229.079555658002, 0.00088986765952442, 0.54,127.76473236084
0.055332965, 229.084366221065, 0.000988052727794923, 0.54625,111.344764709473
0.05599908, 229.090109686259, 0.00109130904132301, 0.5525,105.501014709473
0.0566664066666667, 229.094993580211, 0.000971165076048086, 0.55875,101.3427734375
0.0573331483333333, 229.101009113246, 0.000798705238521454, 0.565,101.3427734375
0.0579998666666667, 229.106792852738, 0.000757992783472482, 0.5725,102.993911743164
0.0586662933333333, 229.112474390898, 0.00055714087202814, 0.57875,108.095306396484
0.0593325716666667, 229.11849670272, 0.000574007524833332, 0.58375,102.451797485352
0.060000525, 229.124332736588, 0.000682149092992988, 0.59125,102.451797485352
0.060666475, 229.129702239736, 0.00103385742704312, 0.59875,105.558662414551
0.0613332933333333, 229.134872525402, 0.00100391743090745, 0.605,107.300399780273
0.0619995616666667, 229.14008195667, 0.000919948648596502, 0.61125,108.992805480957
0.0626672066666667, 229.145404997373, 0.000990143622774385, 0.61875,107.544578552246
0.0633340033333333, 229.150644751121, 0.000722642559079084, 0.625,107.544578552246
0.0640004416666667, 229.157143086114, 0.000451055700607924, 0.63125,110.726989746094
0.06466641, 229.162661870744, 7.7319683000265E-06, 0.6375,102.811241149902
0.065332645, 229.168471940699, 5.62710302242054E-05, 0.645,107.622993469238
0.0659996583333333, 229.174445915923, -0.000224294377297659, 0.65125,106.387596130371
0.06666636, 229.180583219957, -0.000229889096299499, 0.6575,106.387596130371
0.067333905, 229.185869771271, -0.000322612938861306, 0.66375,103.277061462402
0.0680006616666667, 229.191716189946, -5.62848162618946E-05, 0.67125,103.043251037598
0.0686678033333333, 229.197828051786, -6.89441804358169E-05, 0.6775,101.393417358398
0.0693329533333333, 229.203385279742, 0.000203517134153729, 0.685,110.939895629883
0.0700006883333333, 229.208725324008, 0.00032152370681394, 0.69125,110.939895629883
0.0706658483333333, 229.214448992808, -9.73857518163262E-05, 0.6975,110.134391784668
0.0713325866666667, 229.220958444554, -0.000120481591709698, 0.70375,134.389511108398
0.0719998366666667, 229.225652528881, -0.000142938463701012, 0.71,110.487937927246
0.0726660516666667, 229.231844218545, -0.000228993641239468, 0.7175,105.794380187988
0.07333407, 229.23734624011, 1.38666601508018E-05, 0.7225,107.814506530762
0.0739992666666667, 229.24338285418, 0.000537368865186248, 0.73,107.814506530762
0.0746671533333333, 229.248505640418, 0.000677151344031169, 0.7375,100.796203613281
0.07533291, 229.255246641948, 0.000796072870704892, 0.74375,106.896095275879
0.0759994666666667, 229.260170833668, 0.00117387239421305, 0.75,108.830825805664
0.0766665083333333, 229.26613657055, 0.0014132528704139, 0.7575,108.830825805664
0.0773329916666667, 229.271876394023, 0.00152497625866491, 0.76375,108.673881530762
0.07799968, 229.277855768354, 0.00140752015836696, 0.77,106.380500793457
0.078666395, 229.283216644548, 0.00146742414947126, 0.7775,112.092918395996
0.0793325666666667, 229.289281955453, 0.001175517811666, 0.78375,109.584106445313
0.0800005, 229.295500503009, 0.00105067608228866, 0.79,109.584106445313
0.0806659383333333, 229.301091002297, 0.000912146040533001, 0.79625,103.416236877441
0.0813328566666667, 229.307174849537, 0.000719216731168182, 0.80375,105.63109588623
0.0820005316666667, 229.313132745105, 0.000584995972924467, 0.81,103.031967163086
0.0826657283333333, 229.319479451655, 0.000661961606985123, 0.81625,102.239700317383
0.0833325483333333, 229.324934309081, 0.000618862771806741, 0.8225,102.239700317383
0.0840005366666667, 229.330424944245, 0.000619824223498008, 0.83,107.133682250977
0.0846659616666667, 229.335835887942, 0.00083024715417485, 0.83625,106.304542541504
0.0853326683333333, 229.341254872362, 0.000605622936824995, 0.84375,108.366073608398
0.0859994483333333, 229.346797633024, 0.000358592844913538, 0.85,104.312980651855
0.0866659116666667, 229.352922287621, 0.000372236159602268, 0.85625,104.312980651855
0.0873327316666667, 229.35827143359, 0.00034306262496419, 0.8625,100.751243591309
0.0880004633333333, 229.363615523739, 0.000180631283719322, 0.86875,126.621704101563
0.0886669933333333, 229.369391824827, 0.000755814892856378, 0.8775,109.525825500488
0.089332985, 229.374278092565, 0.000841225102795162, 0.8825,110.290405273438
0.0899996483333333, 229.379283462491, 0.000784394457367004, 0.88875,104.96263885498
0.0906665583333333, 229.384408911554, 0.000830644634290492, 0.89625,104.96263885498
0.0913328516666667, 229.390071663786, 0.000858802719958785, 0.90375,110.861106872559
0.0919990866666667, 229.39542360525, 0.000348166868622403, 0.90875,109.289039611816
0.0926658616666667, 229.400627412239, 0.000225606524687499, 0.915,98.2448577880859
0.093332695, 229.406059058427, 6.74019711123965E-05, 0.92375,98.2448577880859
0.0939995966666667, 229.411606090767, -3.72597718153329E-05, 0.92875,108.983512878418
0.0946662016666667, 229.416490452383, 3.94388756802887E-05, 0.935,109.820579528809
0.0953343583333333, 229.421718436433, 0.000456393932515553, 0.9425,113.009117126465
0.095999135, 229.427058320742, 0.000835823874147613, 0.95,117.485794067383
0.0966660966666667, 229.432664413201, 0.000901067597020178, 0.955,117.485794067383
0.097333175, 229.437582001173, 0.00109182051567204, 0.96125,107.307342529297
0.097999595, 229.44338781764, 0.00106077657498429, 0.96875,107.806053161621
0.0986663466666667, 229.448671382756, 0.00103474388255673, 0.97625,109.257034301758
0.0993325416666667, 229.45406821737, 0.000734629956950314, 0.9825,110.184799194336
0.099999135, 229.459223271167, 0.000735022937228984, 0.9875,110.184799194336
0.100667516666667, 229.465290741147, 0.000973705948433541, 0.995,107.087112426758
0.101333161666667, 229.470213596934, 0.00115988109706277, 1.0025,108.21541595459
0.10199963, 229.475796734994, 0.00131959157499379, 1.00875,101.382598876953
0.102666525, 229.481437938633, 0.00137697269278422, 1.015,104.764953613281
0.103332725, 229.486933877327, 0.00136658721443071, 1.02125,104.764953613281
0.103999676666667, 229.492381440799, 0.000717733305678311, 1.02875,107.201644897461
0.104666361666667, 229.498398926475, 0.000659735718809369, 1.035,126.837112426758
0.105332536666667, 229.503400909815, 0.000509174781332276, 1.04125,108.711196899414
0.10599913, 229.508425605379, 0.000458909306101136, 1.0475,105.387619018555
0.106666366666667, 229.513777330525, 0.00027512053760132, 1.055,105.387619018555
0.10733295, 229.518943506684, 0.000577500849363634, 1.06125,100.729217529297
0.107999668333333, 229.523819487127, 0.000226527478419878, 1.06875,106.948112487793
0.108666098333333, 229.529524902233, 0.000162753681696301, 1.07375,107.962554931641
0.109333081666667, 229.535479877875, 0.000257145440534597, 1.08,111.398567199707
0.109999643333333, 229.540425201236, 0.000587208361823101, 1.08875,111.398567199707
0.110666421666667, 229.546296741695, 0.000837505289616206, 1.095,102.119270324707
0.111333828333333, 229.552169739545, 0.000899821159543513, 1.10125,108.768287658691
0.111999025, 229.558280648446, 0.000620977665576654, 1.1075,108.627914428711
0.112665873333333, 229.563473892781, 0.000525199976313445, 1.115,108.868576049805
0.113334138333333, 229.569407629009, 0.000194837070101781, 1.12125,108.868576049805
0.114000535, 229.574621919333, -8.7835731504218E-05, 1.1275,107.352935791016
0.114666436666667, 229.579882375917, 5.22182337427093E-05, 1.13375,105.051628112793
0.115333816666667, 229.584831846379, 0.00026222718522049, 1.14,113.682830810547
0.115999121666667, 229.590321562427, 0.000447691369576302, 1.1475,101.821830749512
0.116666073333333, 229.595905620046, 0.000388406847356823, 1.15375,101.821830749512
0.117333118333333, 229.601375892766, 0.000673752514717018, 1.16,104.13304901123
0.117999671666667, 229.607272987613, 0.000540470709298521, 1.16625,103.556427001953
0.118665975, 229.612490747011, 0.00032540551178594, 1.1725,104.727005004883
0.119333846666667, 229.618045116475, 0.000433649074783764, 1.18,112.18586730957
0.119999771666667, 229.6232347006, 0.000386485443813676, 1.1875,112.18586730957
0.120666141666667, 229.629156675429, -6.57343416389845E-05, 1.1925,107.130752563477
0.121332356666667, 229.634034253429, -0.000177745715417923, 1.2,127.745864868164
0.121999763333333, 229.639400568797, -2.55573597082466E-05, 1.20625,109.201316833496
0.122666248333333, 229.644851577921, -0.000411099494303779, 1.2125,112.876350402832
0.123333865, 229.650046354145, -0.000218332176795767, 1.21875,112.876350402832
0.123999626666667, 229.654653380926, -1.37649520094401E-05, 1.225,115.519111633301
0.124666271666667, 229.660284333358, 1.23579451928728E-06, 1.23375,106.150482177734
0.125332538333333, 229.664874889062, 7.84339169687184E-05, 1.23875,108.452445983887
0.1259991, 229.669412775743, 0.000460533724506168, 1.245,107.698799133301
0.126665873333333, 229.674232106537, 0.000321768194555434, 1.2525,107.698799133301
0.127332928333333, 229.679026265834, 0.000573620544273529, 1.25875,113.746253967285
0.128000616666667, 229.683533125214, 0.000715222431759667, 1.265,108.854591369629
0.128666481666667, 229.688437978557, 0.000849987662625527, 1.2725,107.134063720703
0.129332351666667, 229.693686789117, 0.000830511140891077, 1.27875,108.72339630127
0.129999096666667, 229.698970372904, 0.00094807223589725, 1.285,108.72339630127
0.130666583333333, 229.704357133676, 0.000466219938832844, 1.2925,106.722053527832
0.131333866666667, 229.710280762098, 0.000454540025464282, 1.29875,109.376899719238
0.13199969, 229.71594468209, 0.000187356945827489, 1.305,102.547630310059
0.132665883333333, 229.721166689355, -9.33567452398046E-06, 1.31125,111.197143554688
0.133333143333333, 229.726038739144, 2.10138010375384E-05, 1.3175,111.197143554688
0.133999545, 229.730405353076, 0.000368369353725522, 1.325,109.539039611816
0.134666121666667, 229.734598971592, 0.000402797124504646, 1.33125,107.930862426758
0.135333141666667, 229.739187270829, 5.76944586529298E-05, 1.3375,107.011924743652
0.136000546666667, 229.743872742029, -0.000141782021858576, 1.34375,110.291893005371
0.13666643, 229.748532172792, -4.4948385687949E-05, 1.35125,110.291893005371
0.137333121666667, 229.753243333576, -9.61468140254401E-05, 1.3575,127.482978820801
0.137999656666667, 229.758305538825, -0.000181780512742818, 1.36375,111.732177734375
0.138667608333333, 229.762878423129, 0.000242200191166281, 1.37,108.350685119629
0.139332883333333, 229.767403042392, 0.000356591945398272, 1.3775,113.394775390625
0.140000453333333, 229.772428360109, 0.000657659823052686, 1.38375,113.394775390625
0.140666431666667, 229.777262522324, 0.000696329380703101, 1.38875,109.772560119629
0.141332856666667, 229.781786658211, 0.000597554842035847, 1.3975,113.041137695313
0.141999165, 229.786765208264, 0.000345228516100052, 1.40375,107.194755554199
0.142667493333333, 229.792042548882, 0.000343281613842049, 1.41,105.436332702637
0.143332491666667, 229.796605181386, -0.000393271389828574, 1.41625,105.436332702637
0.144000743333333, 229.801227868203, -0.000762291854295427, 1.42,106.76318359375
0.14466638, 229.804981381457, -0.000843689765754111, 1.42875,107.856323242188
0.145333015, 229.809422796646, -0.000615153744880429, 1.4375,115.497184753418
0.145999095, 229.812988514898, -0.000853877254001366, 1.44375,107.688514709473
0.146665868333333, 229.817604465867, -0.000616521676148741, 1.45,107.688514709473
0.14733252, 229.821556699395, -0.000400067548404949, 1.45625,108.19457244873
0.147999735, 229.8266811165, -0.000502581399225893, 1.46375,111.520935058594
0.148666305, 229.830845832762, -0.000892575310257951, 1.47,114.290115356445
0.149332733333333, 229.835538668188, -0.000656040191181433, 1.47625,111.258529663086
0.149999065, 229.839230888501, -0.000792045859762582, 1.4825,111.258529663086
0.150666375, 229.844010957103, -0.000862594816163396, 1.49,110.881866455078
0.151332586666667, 229.84840278886, -0.000807244596355047, 1.49625,110.075988769531
0.151999508333333, 229.853441762821, -0.000314172862798896, 1.5025,106.036994934082
0.152667135, 229.857906854051, -0.000497397659595562, 1.50875,112.213249206543
0.153333185, 229.862763049853, -0.000688669552197223, 1.51625,112.213249206543
0.15400055, 229.86725657166, -0.000842441828395551, 1.5225,128.157302856445
0.154666593333333, 229.871471813155, -0.000697928587175099, 1.52875,115.275093078613
0.155333101666667, 229.875331810079, -0.00104939243352624, 1.535,110.006866455078
0.15599913, 229.879469729019, -0.00108078435671806, 1.5425,111.437393188477
0.15666597, 229.883551643622, -0.000882683307118137, 1.54875,111.437393188477
0.157332663333333, 229.88787055324, -0.00111113983197719, 1.555,106.223472595215
0.157999793333333, 229.892056315356, -0.00112486414262621, 1.5625,106.883666992188
0.15866598, 229.8963919589, -0.00108420418493135, 1.56875,104.704193115234
0.159332666666667, 229.900795881732, -0.00107986190306128, 1.575,112.252182006836
0.160000705, 229.905476868172, -0.00129005384535876, 1.5825,112.252182006836
0.160667158333333, 229.910366321293, -0.00106948092452349, 1.58875,108.889251708984
