Time (min), Depth (µm), Load (N), Position (µm), Acoustic (aJ)
7.59666666666667E-06, 228.65732084833, -0.000759672055569486, 0,109.195419311523
0.000665865, 228.657878378064, -0.00119943196690013, 0,104.760612487793
0.00133387833333333, 228.657446698361, -0.0010871071088784, 0.00375,104.760612487793
0.00199908333333333, 228.655401308124, -0.000791143474818437, 0.01375,109.699935913086
0.00266576166666667, 228.653504399996, -0.000602857932235015, 0.02125,107.236183166504
0.00333255333333333, 228.652793435325, -0.000591839485655814, 0.03,108.611099243164
0.00399917833333333, 228.651670622204, -0.000456391789058947, 0.03625,104.406623840332
0.00466576, 228.652527048618, -0.000602325458944334, 0.04375,104.406623840332
0.00533253166666667, 228.654896490961, -0.000666702225363036, 0.05125,111.506935119629
0.00599939333333333, 228.65801468398, -0.000465256343748733, 0.0575,110.747505187988
0.00666576833333333, 228.660531884994, -0.000533789401411503, 0.06375,108.00951385498
0.00733380166666667, 228.663287331055, -0.000198470744121312, 0.07125,112.264450073242
0.00799918166666667, 228.665462024879, -0.00029879020517897, 0.07875,112.264450073242
0.00866563666666667, 228.668699526917, -0.000530066588426248, 0.08375,108.016128540039
0.00933243166666667, 228.6711026839, -0.000386577795722, 0.09,108.653045654297
0.00999915, 228.674736174436, -0.000527462719237111, 0.09875,109.808029174805
0.0106657133333333, 228.678380446246, -0.000769388567554118, 0.10375,103.999542236328
0.01133388, 228.682528774083, -0.000539010639215678, 0.11,103.999542236328
0.0119991666666667, 228.68623121636, -0.000655335796301026, 0.11875,108.189193725586
0.0126657483333333, 228.690697731447, -0.000732379426515667, 0.12375,110.173309326172
0.0133324166666667, 228.695216570709, -0.000678694123071239, 0.13,130.633422851563
0.01399908, 228.699923041146, -0.000639445594473642, 0.1375,100.902244567871
0.014665705, 228.704395870965, -0.000784293318921037, 0.14375,100.902244567871
0.0153338266666667, 228.709320202842, -0.000605365806262344, 0.15125,104.315383911133
0.0159994433333333, 228.714236185899, -0.00103088093309102, 0.15625,111.971160888672
0.0166657133333333, 228.718940127204, -0.000789580553335193, 0.16375,112.983787536621
0.0173323416666667, 228.723473916725, -0.00102836105964722, 0.17125,107.333961486816
0.01799948, 228.728784672735, -0.00113510769783554, 0.1775,107.333961486816
0.0186657483333333, 228.733731414352, -0.00117890699783777, 0.1825,110.975456237793
0.0193341283333333, 228.738521757107, -0.000942694362529204, 0.19,106.668762207031
0.01999907, 228.744153677556, -0.00112109240178853, 0.1975,110.937606811523
0.0206672066666667, 228.749768822773, -0.000848148111477373, 0.20375,111.670127868652
0.0213324033333333, 228.754969391089, -0.000445197851282057, 0.21,111.670127868652
0.02199928, 228.760364000084, -0.00023380896909823, 0.2175,104.081703186035
0.02266569, 228.7660168805, -0.000223222500853438, 0.2225,109.256492614746
0.0233325933333333, 228.770894189257, -0.000130542156099325, 0.23,107.776123046875
0.0239992133333333, 228.77560434101, -3.95762252356939E-05, 0.2375,110.150520324707
0.02466571, 228.781025280004, -0.00041131455318884, 0.24375,110.150520324707
0.0253338283333333, 228.78664424808, -0.000372142520757063, 0.25,108.571243286133
0.0259995683333333, 228.792112276904, -0.000287497272391465, 0.25625,104.684188842773
0.0266657933333333, 228.797847731183, -0.000346339316826966, 0.2625,108.227981567383
0.0273323966666667, 228.803664345095, -0.00066113900475241, 0.26875,103.659858703613
0.0279993733333333, 228.808819872571, -0.000563094929439576, 0.27625,103.659858703613
0.028667105, 228.81453038598, -0.000788149625178182, 0.2825,104.343627929688
0.0293327316666667, 228.820024038266, -0.000756310724407924, 0.28875,107.983665466309
0.0299992583333333, 228.826278684752, -0.000886303194993708, 0.295,131.057830810547
0.030667255, 228.83184233712, -0.00071631673323313, 0.3025,108.260612487793
0.0313324033333333, 228.838000549245, -0.000677831666263062, 0.30875,108.260612487793
0.03199916, 228.843556727783, -0.000882688376544234, 0.315,105.365455627441
0.0326658333333333, 228.848468724074, -0.000940720461674451, 0.3225,107.948860168457
0.033332575, 228.853148852981, -0.000985853194726225, 0.32875,105.522422790527
0.0339993166666667, 228.858696946195, -0.0010848632215673, 0.33625,107.870391845703
0.0346657933333333, 228.863310485649, -0.000832925376158218, 0.3425,107.870391845703
0.0353324766666667, 228.868603308475, -0.00101843305830047, 0.3475,110.479072570801
0.0359991666666667, 228.874261269538, -0.00128382372802032, 0.35625,113.900337219238
0.03666586, 228.879495994067, -0.000909216044152391, 0.3625,104.344551086426
0.03733269, 228.884634480415, -0.000582479955764173, 0.36875,104.99146270752
0.037999275, 228.890552312965, -0.00103926401200486, 0.375,104.99146270752
0.0386658066666667, 228.896165282794, -0.000578530654172773, 0.38,101.774955749512
0.0393323816666667, 228.90167535619, -0.000430129608197691, 0.3875,102.99925994873
0.03999909, 228.906646415098, -0.000421866523257373, 0.395,105.423110961914
0.0406657783333333, 228.912794773228, -0.000441230550619071, 0.40125,113.117149353027
0.0413338666666667, 228.918160453579, -0.000147702794193826, 0.4075,113.117149353027
0.041999125, 228.923617709417, -0.000218257750270999, 0.41375,110.470108032227
0.0426657533333333, 228.929096241235, -0.00018732180418279, 0.42125,109.559028625488
0.0433331633333333, 228.935858455096, -0.000515742307973423, 0.4275,108.278793334961
0.0439992116666667, 228.941573896904, -0.000697170195058683, 0.43375,111.819755554199
0.044665725, 228.947464513212, -0.000645878771344428, 0.44,111.819755554199
0.0453338266666667, 228.953009230871, -0.000590633546286816, 0.44875,107.003898620605
0.0459992433333333, 228.95896853876, -0.000402214510367742, 0.455,130.859359741211
0.0466658483333333, 228.963810159005, -0.000303655960835811, 0.46,104.294342041016
0.0473338483333333, 228.968684037124, -9.71583329599176E-05, 0.4675,106.813682556152
0.04799918, 228.973695148917, 6.53060066218226E-05, 0.47375,106.813682556152
0.0486671366666667, 228.978768733562, 0.000176531419864676, 0.48,106.76131439209
0.0493326083333333, 228.983694482792, 0.000291364151956241, 0.4875,108.656661987305
0.0499995433333333, 228.989017753966, 0.000584069949638467, 0.4925,102.083198547363
0.050665675, 228.994086590562, 0.000668035732121865, 0.5,110.349174499512
0.051332425, 228.999099671989, 0.000310665182493002, 0.50625,110.349174499512
0.051999265, 229.004507440038, 0.000477294812843974, 0.51375,100.235198974609
0.0526672183333333, 229.010359031741, 0.000262601596689672, 0.52,107.514114379883
0.0533324716666667, 229.015709056457, 5.5734987389323E-05, 0.52625,108.314819335938
0.0539993366666667, 229.021252918348, -0.00013406247929014, 0.5325,103.475784301758
0.0546672016666667, 229.026977205421, -6.3041046638538E-05, 0.54,103.475784301758
0.0553324783333333, 229.032327779421, -0.000529615111095851, 0.54625,104.144775390625
0.0559993083333333, 229.037489503218, -0.000746231230738958, 0.5525,109.787605285645
0.05666574, 229.04246286405, -0.000614668338984152, 0.55875,114.517845153809
0.0573326416666667, 229.047819073548, -0.000797659147552656, 0.56625,106.328231811523
0.057999195, 229.052978489277, -0.000709241588653987, 0.5725,106.328231811523
0.05866573, 229.05816509328, -0.000717044196738743, 0.57875,105.830352783203
0.0593327333333333, 229.063571898346, -0.000671855966484048, 0.58375,107.294723510742
0.0599992133333333, 229.068089340024, -0.000823609344095526, 0.59125,107.2626953125
0.060665825, 229.073017898361, -0.000566288269046718, 0.59875,112.71947479248
0.0613324183333333, 229.078431028466, -0.000441382042920038, 0.605,112.71947479248
0.061999095, 229.083344843063, 3.08767360245655E-05, 0.6125,104.722999572754
0.062665765, 229.087861760948, 0.000402352577207141, 0.61875,132.120162963867
0.063332535, 229.093838320552, 0.000371670118364337, 0.625,107.654205322266
0.0639994066666667, 229.098909246303, 0.000566634825505695, 0.63125,110.799003601074
0.0646672033333333, 229.103980392686, 0.000343212047794137, 0.6375,110.799003601074
0.0653326966666667, 229.109105823117, 0.000164302534270792, 0.645,107.933204650879
0.0659991733333333, 229.114389301969, 0.000158181341739646, 0.65125,110.014129638672
0.06666574, 229.11938142876, 0.000180311230168541, 0.6575,109.026985168457
0.0673329866666667, 229.124677828671, 9.85848352017812E-05, 0.66375,107.03369140625
0.06799914, 229.130485138566, -6.80297959476669E-05, 0.67125,107.03369140625
0.06866574, 229.135585841745, -0.000100692155385345, 0.6775,110.85823059082
0.06933252, 229.140980860772, -0.000395010372098632, 0.68375,114.660987854004
0.0699992983333333, 229.146503274424, -0.0003826824913241, 0.69,103.843460083008
0.0706671733333333, 229.152577758365, -0.00100365280063777, 0.6975,109.009696960449
0.0713325783333333, 229.157797062212, -0.000714839307462126, 0.70375,109.009696960449
0.0719993466666667, 229.163810170114, -0.000841410449910218, 0.71,106.442718505859
0.0726657166666667, 229.169505726248, -0.000682964408463682, 0.7175,106.932830810547
0.073332525, 229.175502342286, -0.000700611022107347, 0.72375,103.320709228516
0.073999335, 229.180737047252, -0.000277087795226257, 0.73,113.09659576416
0.0746657583333333, 229.186568277106, -0.000421946019144475, 0.7375,113.09659576416
0.0753337983333333, 229.192346060341, -0.000372528001371208, 0.74375,107.321327209473
0.0759991983333333, 229.198115650828, -0.000297173286395955, 0.75,108.24739074707
0.0766657116666667, 229.20427844673, -0.000301146586820316, 0.7575,107.769882202148
0.0773327066666667, 229.210285701808, -0.000359796640889692, 0.76375,107.593200683594
0.0779992983333333, 229.215646647725, -8.33365272034377E-05, 0.77,107.593200683594
0.0786672166666667, 229.221309234277, 0.000159081296424108, 0.7775,101.68872833252
0.0793323933333333, 229.226888645678, 0.00035563892355803, 0.78375,132.523193359375
0.0799991983333333, 229.231673545364, 0.000397398326053017, 0.79,108.097900390625
0.08066574, 229.237181320374, 0.000156216440388804, 0.79625,101.704299926758
0.08133249, 229.243105365752, -0.000166025873722105, 0.80375,101.704299926758
0.0819990316666667, 229.248691837193, -0.000231458587090735, 0.81,105.412178039551
0.08266714, 229.254352107049, -0.000620840528859992, 0.81625,110.500015258789
0.083332965, 229.260899974119, -0.000798799090184148, 0.8225,110.426200866699
0.083999175, 229.266777661058, -0.000364984880229471, 0.83,109.877136230469
0.0846658366666667, 229.27195369527, -0.000294954897757201, 0.83625,109.877136230469
0.0853325216666667, 229.277910757854, -0.000382730488862496, 0.8425,111.964462280273
0.0859989983333333, 229.283744347764, -0.000337473262085252, 0.85,110.639785766602
0.0866657716666667, 229.289278685588, -0.000113961988855156, 0.85625,109.896766662598
0.0873324133333333, 229.294946941904, -0.000577810690182906, 0.8625,107.417572021484
0.087999425, 229.300709690387, -0.000377143269503926, 0.87,107.417572021484
0.0886657466666667, 229.306259416204, -0.000544695353554189, 0.8775,114.991180419922
0.08933246, 229.311886682118, -0.000977225628007137, 0.88375,110.793067932129
0.0900008033333333, 229.316669494017, -0.0014616652951135, 0.88875,106.389518737793
0.090667315, 229.322471902986, -0.00128397522030003, 0.89625,108.51774597168
0.091334095, 229.328310266474, -0.00167799942886252, 0.9025,108.51774597168
0.0919990516666667, 229.334082597523, -0.00153692251502379, 0.90875,108.034660339355
0.0926658383333333, 229.339304747277, -0.00083165643979425, 0.91625,108.51887512207
0.0933339166666667, 229.345489648768, -0.00053561780949287, 0.9225,109.566947937012
0.0939993616666667, 229.350343601478, -0.000435367344979015, 0.92875,109.924911499023
0.09466571, 229.355465795562, -0.000297956246998218, 0.93625,109.924911499023
0.09533254, 229.360901212981, -0.000643892870988178, 0.94375,114.008766174316
0.095999175, 229.366632246314, -0.00102406077555417, 0.94875,134.725524902344
0.0966657683333333, 229.37198315578, -0.00117052841865464, 0.955,109.442588806152
0.0973338966666667, 229.377815149323, -0.00135762302107058, 0.9625,112.788223266602
0.0979991833333333, 229.38349744071, -0.00131967942695887, 0.96875,112.788223266602
0.0986657966666667, 229.388336242542, -0.00110345178784248, 0.975,111.29662322998
0.0993338383333333, 229.394323321039, -0.00109827704773731, 0.9825,105.985740661621
0.0999993816666667, 229.39975602625, -0.000933807308888352, 0.9875,111.775207519531
0.100667123333333, 229.405491983776, -0.000923616820749782, 0.995,115.310302734375
0.101333906666667, 229.411156959052, -0.00110982346772772, 1.0025,115.310302734375
0.101999353333333, 229.417332169495, -0.00094114644022623, 1.0075,112.400611877441
0.102665675, 229.422255010314, -0.000894245296026712, 1.015,106.729675292969
0.103332341666667, 229.427892351561, -0.00108599116482482, 1.02125,108.377746582031
0.103999278333333, 229.433575041793, -0.00108850353864661, 1.02875,111.019920349121
0.104667168333333, 229.438778138205, -0.00098500873707465, 1.035,111.019920349121
0.105332451666667, 229.443745559559, -0.00100039196436872, 1.04125,100.518684387207
0.105999523333333, 229.449073918504, -0.000921797412129819, 1.0475,101.395385742188
0.10666716, 229.454109878481, -0.00061614426476699, 1.055,108.264144897461
0.107333878333333, 229.458735383258, -0.000296796805264467, 1.06125,110.158302307129
0.107999203333333, 229.464135094635, -0.00018225205872209, 1.06875,110.158302307129
0.108665813333333, 229.469592302464, -0.000489498126077481, 1.07375,107.931098937988
0.10933239, 229.475093807143, -0.000633210407539069, 1.08125,108.376487731934
0.109999195, 229.480445431223, -0.000517627713139605, 1.08875,107.393600463867
0.110665711666667, 229.486252986893, -0.000527219731356258, 1.095,102.572784423828
0.11133234, 229.491223320714, -0.000710345533163564, 1.10125,102.572784423828
0.111999073333333, 229.496161997487, -0.000703004901880028, 1.1075,110.623260498047
0.112665861666667, 229.501123961268, -0.000734866301516334, 1.11375,125.845436096191
0.113332865, 229.506432558394, -0.0012786954855504, 1.12125,106.265853881836
0.113999586666667, 229.511452145319, -0.00185849736269024, 1.1275,108.64860534668
0.114665655, 229.516801716223, -0.00240220205295633, 1.13375,108.64860534668
0.115333893333333, 229.52201354785, -0.00282346189350907, 1.14,112.310325622559
0.115999055, 229.527121875855, -0.00287646173139494, 1.14625,106.986526489258
0.116665746666667, 229.531603221012, -0.00294665070585396, 1.15375,105.823570251465
0.117332411666667, 229.536759696296, -0.00312881805579755, 1.16125,111.083015441895
0.11799926, 229.541589728015, -0.00284133349583448, 1.16625,111.083015441895
0.118665818333333, 229.546166405384, -0.00266147153014503, 1.17375,107.256507873535
0.119332428333333, 229.5508594253, -0.00248071710926561, 1.18,111.216094970703
0.119999373333333, 229.55565968274, -0.00211298508009496, 1.18625,106.926162719727
0.120665708333333, 229.559572033362, -0.00140838497138547, 1.19375,113.912155151367
0.121332783333333, 229.564497318177, -0.00104095742691118, 1.2,113.912155151367
0.12199935, 229.569952516501, -0.00064087802247004, 1.20625,111.669860839844
0.122665796666667, 229.574969493677, -0.000829919527101483, 1.2125,117.029586791992
0.123333861666667, 229.579622905792, -0.000723448875003359, 1.22,112.653144836426
0.123999191666667, 229.584539717024, -0.000703604871768856, 1.225,107.211700439453
0.12466569, 229.589098448609, -0.000805271265195689, 1.2325,107.211700439453
0.125333781666667, 229.59297447491, -0.000810461004523633, 1.23875,106.6611328125
0.125999391666667, 229.597675741519, -0.000761771950116621, 1.245,108.852821350098
0.126667215, 229.60288641699, -0.000987417616155126, 1.2525,105.578887939453
0.127332875, 229.607439844881, -0.00112541968445708, 1.25875,110.929634094238
0.127999246666667, 229.612184247701, -0.00112680261499068, 1.265,110.929634094238
0.128667195, 229.617504980116, -0.00104772058717194, 1.2725,128.038726806641
0.129332478333333, 229.622498301676, -0.000820330508733635, 1.27875,104.280982971191
0.129999066666667, 229.626678389366, -0.000545116832481537, 1.285,112.203010559082
0.130665683333333, 229.631244466595, -0.0004451258549107, 1.2925,104.961540222168
0.131332406666667, 229.636076135603, -0.000699105097815189, 1.29875,104.961540222168
0.131999155, 229.640765109959, -0.00122964794921101, 1.305,111.510520935059
0.132665716666667, 229.644006612424, -0.00122523067109952, 1.31125,111.474151611328
0.133332448333333, 229.648732625481, -0.00123447770659716, 1.3175,105.077629089355
0.133999221666667, 229.653005442649, -0.00141021937929198, 1.325,113.07691192627
0.134665718333333, 229.656999169679, -0.00123607062654721, 1.33125,113.07691192627
0.135332493333333, 229.660730292327, -0.000645478291401233, 1.3375,110.303833007813
0.135999023333333, 229.665409291867, -0.000703091897537925, 1.345,118.090019226074
0.136665835, 229.669533272912, -0.00103516021809365, 1.35125,106.91731262207
0.13733245, 229.673746994974, -0.000964285778076076, 1.3575,104.59196472168
0.137999306666667, 229.67826859647, -0.000658475138629651, 1.36375,104.59196472168
0.13866574, 229.682729942513, -0.000683139899725134, 1.37,98.2450103759766
0.139332378333333, 229.687938018681, -0.00098674564993745, 1.3775,113.674880981445
0.139999263333333, 229.692765685164, -0.00071342337861291, 1.3825,110.40299987793
0.14066566, 229.697984078314, -0.000582305964512141, 1.39,108.096504211426
0.141333843333333, 229.702468217725, -0.000575034329793664, 1.3975,108.096504211426
0.141999195, 229.707784270285, -0.000634923321653926, 1.40375,110.122261047363
0.142667176666667, 229.711864039191, -8.95357159310778E-05, 1.40875,110.81282043457
0.143332555, 229.716203038732, -0.000128161775795052, 1.41625,109.851135253906
0.143999053333333, 229.719724972973, -0.000142195070913645, 1.42125,105.641960144043
0.144665658333333, 229.72329563582, -0.000211211104298026, 1.42875,105.641960144043
0.14533249, 229.726506390952, 6.80613681756892E-05, 1.4375,128.886276245117
0.145999123333333, 229.730176678435, -0.000319601659866115, 1.44375,105.736320495605
0.146665935, 229.734161591543, 6.3229692924152E-06, 1.45,103.089530944824
0.147332335, 229.738703712282, 0.000209490764419215, 1.45625,107.853034973145
0.14799919, 229.743501450605, 7.96572858414313E-05, 1.4625,107.853034973145
0.148665816666667, 229.747775163395, -8.67743544883111E-05, 1.47,111.616844177246
0.14933378, 229.752104930568, 0.000138445332913399, 1.47625,106.19408416748
0.149999218333333, 229.755949514954, -0.000246652824016261, 1.4825,104.969146728516
0.150665801666667, 229.760087366461, -0.000519934597339406, 1.49,108.68408203125
0.151332775, 229.764060397181, -0.000495742312494711, 1.49625,108.68408203125
0.15199902, 229.768164731579, -0.000746660209160798, 1.5025,112.548683166504
0.152667213333333, 229.77217081657, -0.000833240360346664, 1.50875,105.677169799805
0.153332481666667, 229.776398448884, -0.000667623179137924, 1.51625,104.978210449219
0.153999083333333, 229.780965148329, -0.000781354966504956, 1.5225,107.85848236084
0.154665755, 229.784795840789, -0.000992448363517579, 1.52875,107.85848236084
0.155332545, 229.788660648315, -0.000635032816092856, 1.53625,108.225395202637
0.15599919, 229.792630251214, -0.000701164494339673, 1.5425,110.20743560791
0.15666711, 229.796605875079, -0.000982257875293993, 1.54875,105.728141784668
0.157332868333333, 229.800203758235, -0.00100370829790445, 1.555,110.946411132813
0.15799901, 229.804054778088, -0.00101363179945673, 1.5625,110.946411132813
0.15866568, 229.807992370265, -0.00124274679125634, 1.56875,109.573104858398
0.159332711666667, 229.811563445923, -0.00122689108769023, 1.575,107.24299621582
0.159999285, 229.815062994202, -0.000910106999460467, 1.5825,107.241561889648
