Time (min), Depth (µm), Load (N), Position (µm), Acoustic (aJ)
8.13333333333333E-06, 228.894628716914, -0.0010654412027681, 0,113.726341247559
0.000664523333333333, 228.893891001205, -0.000911299945145317, 0,113.726341247559
0.001331915, 228.892167667481, -0.00097110494115398, 0.005,107.313415527344
0.00199772166666667, 228.890419054531, -0.00124163735262087, 0.0125,106.338371276855
0.0026644, 228.888361367233, -0.000677971664953063, 0.0225,106.780220031738
0.00333176166666667, 228.886895126908, -0.000542772955849645, 0.02875,104.861282348633
0.00399775333333333, 228.887004698253, -0.00059093403676044, 0.03625,104.861282348633
0.00466427666666667, 228.889387434698, -0.000669467092141312, 0.04375,109.550262451172
0.00533119833333333, 228.892737010556, -0.000554506866496724, 0.05125,101.91609954834
0.00599766166666667, 228.896477418124, -0.000801191975752924, 0.0575,110.846313476563
0.00666438166666667, 228.901839804203, -0.000622565947963048, 0.06625,103.322311401367
0.00749765833333333, 228.905352428929, -0.000355718851413839, 0.07375,127.035308837891
0.00816445833333333, 228.908461916036, -0.000465241850161436, 0.08,127.035308837891
0.00883116, 228.912197054359, -0.000146879841140632, 0.085,104.848777770996
0.00949760666666667, 228.9163720115, -0.000573969888847783, 0.0925,112.480606079102
0.0101644766666667, 228.920878880103, -0.000627341708049423, 0.09875,107.118301391602
0.0108313133333333, 228.925901554332, -0.000879855524535625, 0.10625,111.997062683105
0.0114977316666667, 228.930633339302, -0.000650908524332942, 0.11375,111.997062683105
0.0121644333333333, 228.935146298306, -0.000740170540776916, 0.11875,112.40746307373
0.0128309583333333, 228.93995311201, -0.000967599617249706, 0.125,106.38646697998
0.0134982116666667, 228.944273197609, -0.000783059386517588, 0.1325,101.991050720215
0.014164945, 228.948647396731, -0.00050655427512049, 0.14,106.694320678711
0.0148310016666667, 228.953365134961, -0.000823428358878213, 0.14625,106.694320678711
0.015497675, 228.958789216222, -0.00101555670846291, 0.15125,108.397796630859
0.0161646833333333, 228.963384049178, -0.000555742804460058, 0.16,109.534606933594
0.01683132, 228.96849459375, -0.000609798589295854, 0.16625,106.072570800781
0.0174982416666667, 228.973982494401, -0.000681608982332348, 0.1725,105.848426818848
0.0181646816666667, 228.9796450116, -0.000410343107725993, 0.17875,105.848426818848
0.018831145, 228.98439869967, -0.000348325722818697, 0.185,110.911865234375
0.0194976166666667, 228.990304814068, -0.00066074353038794, 0.1925,107.753173828125
0.0201642883333333, 228.995668706163, -0.000774869797936792, 0.19875,107.480743408203
0.020831705, 229.001180819959, -0.000790368519452417, 0.205,119.063774108887
0.0214976283333333, 229.005873929166, -0.000901811421776251, 0.2125,119.063774108887
0.0221643, 229.011517455936, -0.000647872676894413, 0.2175,103.938537597656
0.022831555, 229.01683985726, -0.000528127691574522, 0.225,104.503524780273
0.023497685, 229.022094488769, -0.000589551106333112, 0.2325,104.101600646973
0.0241645983333333, 229.027169855631, -0.000484379389044513, 0.23875,129.962799072266
0.0248316166666667, 229.032950161714, -0.00066795816806411, 0.24375,129.962799072266
0.02549771, 229.037539471003, -0.000519329133558479, 0.25125,105.465827941895
0.0261647133333333, 229.042918590773, -0.000313684962838072, 0.25875,106.784538269043
0.0268309616666667, 229.048568607048, -0.000574350869880006, 0.265,107.095512390137
0.02749772, 229.053905784368, -0.000653740382201408, 0.2725,107.095512390137
0.0283316966666667, 229.059294431566, -0.000503221442607607, 0.28,114.560012817383
0.02899773, 229.06537256653, -0.00072887460822562, 0.285,114.560012817383
0.0296644416666667, 229.071143686472, -0.000889630533614492, 0.2925,110.79167175293
0.0303309516666667, 229.076563056234, -0.000271346589353396, 0.3,112.034675598145
0.0309977933333333, 229.082485001413, -5.02666939635545E-05, 0.30625,110.03515625
0.031664615, 229.088544329274, -0.000111499618322931, 0.3125,104.386276245117
0.03233108, 229.094226095518, -7.60368996417961E-05, 0.31875,104.386276245117
0.0329977433333333, 229.100047172966, -7.60443992638124E-05, 0.32625,98.2296371459961
0.03366466, 229.105931257898, -0.000503278439713676, 0.3325,104.550872802734
0.0343309583333333, 229.111752437238, -0.000864371802349049, 0.33875,106.600898742676
0.0349978033333333, 229.11705860518, -0.000672112959298757, 0.345,106.600898742676
0.0356646916666667, 229.122313312554, -0.000818894086620763, 0.3525,103.862335205078
0.0363316933333333, 229.128029033407, -0.000516810759996565, 0.35875,86.3385543823242
0.0369977516666667, 229.133102577178, -0.000219014218018263, 0.365,110.18904876709
0.03766447, 229.138360951566, 2.68804309286412E-05, 0.37125,106.859268188477
0.03833163, 229.144194738829, 2.54975004162966E-05, 0.37875,106.859268188477
0.0389982383333333, 229.150062413648, 0.000206910388215016, 0.385,115.59300994873
0.0396645166666667, 229.155700683643, 0.00020628641955699, 0.39,89.1224746704102
0.0403309516666667, 229.161354464813, 8.8372842209781E-05, 0.3975,133.783981323242
0.0409977316666667, 229.167123406326, -0.000202414551841868, 0.405,108.964080810547
0.0416650066666667, 229.173022368621, -0.000503458430769592, 0.41125,106.763816833496
0.0423309883333333, 229.178477951807, -0.000527298233294505, 0.4175,106.763816833496
0.0429976083333333, 229.184329037155, -0.000736525723988155, 0.42375,108.11686706543
0.043664365, 229.190174977268, -0.000929089051734816, 0.43,106.962310791016
0.0443313066666667, 229.195805031787, -0.000757170687002776, 0.43875,106.9150390625
0.0449978483333333, 229.201640558642, -0.000792795397583225, 0.44375,109.301643371582
0.0456650116666667, 229.207572971825, -0.000854505297945345, 0.45,109.301643371582
0.0463315283333333, 229.212526054292, -0.000701469484777795, 0.4575,111.158813476563
0.046997805, 229.218440832029, -0.000228355748774556, 0.46375,109.101264953613
0.0476642883333333, 229.223792106695, -0.000232519539661893, 0.47,107.039260864258
0.048331085, 229.228907970821, -0.000143764497772492, 0.4775,107.039260864258
0.048998345, 229.234115646804, -9.25735690570169E-05, 0.48375,109.845100402832
0.0496643733333333, 229.239978276425, -0.000237716778654362, 0.49,106.731025695801
0.050331595, 229.244885274103, -0.000353981938784833, 0.49625,105.320983886719
0.0509991883333333, 229.249987887338, -0.000299909654759348, 0.50375,103.426956176758
0.05166487, 229.255441692528, -5.98467128912525E-05, 0.51125,108.542259216309
0.0523311616666667, 229.261189327998, 0.000111861662381823, 0.51625,108.542259216309
0.0529979, 229.265987917366, 0.000172142134532589, 0.5225,104.044563293457
0.0536658166666667, 229.271667968052, -0.000186269362823422, 0.53,105.791061401367
0.0543311283333333, 229.277352914363, -0.000206810831032964, 0.53625,106.158782958984
0.0549976566666667, 229.282704032296, -0.000225801377154488, 0.5425,104.275421142578
0.0556644266666667, 229.287478897034, -0.000314394427229592, 0.54875,104.275421142578
0.0563315133333333, 229.292852051362, -0.000276263342524964, 0.55625,103.544906616211
0.0569981833333333, 229.297915666648, -2.93682437885453E-05, 0.5625,121.973098754883
0.05766505, 229.302839328339, -0.000110343176501748, 0.56875,111.285919189453
0.0583316333333333, 229.307252459951, -0.000247878768250524, 0.575,107.939765930176
0.0589977583333333, 229.312922997244, -0.000454341897822634, 0.5825,107.939765930176
0.0596645366666667, 229.316928974422, -0.000573822896426297, 0.5875,104.937545776367
0.06033134, 229.32232713771, -0.000534695861769126, 0.595,107.437889099121
0.0609982, 229.328177857595, -0.00040936515701507, 0.6025,106.65404510498
0.0616643333333333, 229.334304023561, -0.000198166765272965, 0.60875,113.859832763672
0.0623316333333333, 229.339805288274, -1.51084600638059E-05, 0.615,113.859832763672
0.0629983083333333, 229.346539121246, 7.65774346409138E-05, 0.62125,111.713623046875
0.0636644683333333, 229.352941699241, -0.000189717689600372, 0.62875,107.677169799805
0.0643310583333333, 229.358943401586, -0.000374382414079215, 0.635,108.649726867676
0.064997725, 229.364132964341, -0.000679038111501336, 0.64125,109.265556335449
0.0656646483333333, 229.370182568429, -0.000732162443155184, 0.6475,109.265556335449
0.066332945, 229.376018263244, -0.000938858061031054, 0.655,108.516967773438
0.0669991516666667, 229.381205388631, -0.000759807554592547, 0.66125,115.857788085938
0.0676660683333333, 229.386448267211, -0.000598696147056341, 0.6675,106.744003295898
0.0683310816666667, 229.391705748809, -0.000395933331667199, 0.675,108.574989318848
0.0689977066666667, 229.396567239043, -0.000468301696645468, 0.68125,108.574989318848
0.0696649516666667, 229.401699251595, -0.000551054040116597, 0.68625,105.058944702148
0.070331015, 229.406878829262, -0.000574712351767461, 0.69375,105.380668640137
0.070998195, 229.411846184839, -0.000716572226293469, 0.70125,106.561538696289
0.0716644816666667, 229.416947652714, -0.000899602032896457, 0.7075,105.421691894531
0.0723315733333333, 229.421998517102, -0.000827982130322939, 0.71375,105.421691894531
0.072997895, 229.42689115717, -0.000478861166272255, 0.72,116.684257507324
0.073664365, 229.431553252717, -0.00041820871276321, 0.7275,125.759765625
0.0743323316666667, 229.436721827193, -0.00029281351123856, 0.73375,108.400047302246
0.074999265, 229.442110415573, -4.75893286274361E-05, 0.74,105.713386535645
0.07566445, 229.446907642404, 7.63509459922596E-05, 0.7475,105.713386535645
0.0763325866666667, 229.452123872518, 4.90553170258721E-05, 0.75375,108.513519287109
0.0769976983333333, 229.457255569158, -9.96967113020802E-05, 0.76,105.087608337402
0.077664525, 229.462146117227, 8.97437733268996E-05, 0.7675,105.660018920898
0.0783313233333333, 229.46663450113, -0.000137116831690786, 0.77375,113.086990356445
0.07899781, 229.472229660777, -0.000270185647759004, 0.78,113.086990356445
0.0796659666666667, 229.477136392503, -0.000288199742966483, 0.7875,107.349060058594
0.0803310116666667, 229.481772328054, 2.56504926416665E-05, 0.79375,108.03589630127
0.0809977033333333, 229.4873419582, -0.000236845322469799, 0.8,108.068435668945
0.08166486, 229.492994621177, 6.69209196536662E-05, 0.80625,108.514060974121
0.0823310266666667, 229.497671865058, 8.57974714992889E-05, 0.81375,108.514060974121
0.08299777, 229.502916627711, -5.37394905009709E-06, 0.82,107.928153991699
0.083665645, 229.508339551393, -0.000180149670237933, 0.82625,109.383285522461
0.08433161, 229.51282502776, 2.06197453217217E-05, 0.8325,107.09740447998
0.08499821, 229.517940048189, -0.000198486249234621, 0.84125,109.805374145508
0.0856649866666667, 229.522922834601, -0.000302366531420728, 0.84625,109.805374145508
0.086331575, 229.528429578665, -0.000124445468206654, 0.8525,109.974075317383
0.0869978733333333, 229.532993627906, -8.76073185714287E-05, 0.86,108.409126281738
0.0876650083333333, 229.53851312357, -0.000281951056903568, 0.8675,107.920913696289
0.0883318066666667, 229.543840529596, -0.00012214158396193, 0.8725,107.763938903809
0.0889977416666667, 229.548939554975, -7.44934772820652E-05, 0.87875,107.763938903809
0.0896649366666667, 229.553142490003, 7.29566164300641E-05, 0.88625,106.100883483887
0.0903312233333333, 229.558015884639, -0.000158507257367621, 0.89375,129.798690795898
0.090999215, 229.562561320362, -1.83077994535779E-05, 0.89875,109.160873413086
0.0916645033333333, 229.566548817434, 0.000149029795343257, 0.905,104.791427612305
0.09233105, 229.571244370966, 0.00040040066924289, 0.9125,104.791427612305
0.0929983316666667, 229.576475751981, 0.00020066170193956, 0.92,104.113265991211
0.0936645733333333, 229.581628272728, 0.000289851722012177, 0.925,107.760314941406
0.094332315, 229.585639078693, 0.000342274088917775, 0.9325,107.379768371582
0.0949977016666667, 229.59043772792, 0.000219965732325127, 0.94,110.313606262207
0.0956644333333333, 229.594584295118, -0.000137856294634133, 0.945,110.313606262207
0.0963324816666667, 229.598473248686, -0.000204071968668787, 0.95375,113.689140319824
0.09699771, 229.602197671761, 3.38340815461034E-05, 0.96,107.488250732422
0.097664855, 229.606733222258, 0.00012251862703106, 0.965,105.267372131348
0.09833104, 229.611085166041, -0.00010188660131341, 0.9725,114.855796813965
0.0989979683333333, 229.615577932151, 2.02417643083384E-05, 0.97875,114.855796813965
0.0996649416666667, 229.619993406655, 0.000313961511099709, 0.98625,108.075622558594
0.100331146666667, 229.625261776927, 0.00013516749173416, 0.99125,106.31470489502
0.10099918, 229.629813355998, -0.000127647807296454, 0.9975,111.237327575684
0.101664408333333, 229.63531981639, 2.95187983790537E-05, 1.005,110.074996948242
0.102331233333333, 229.640654560605, -8.71138432939781E-05, 1.0125,110.074996948242
0.102998363333333, 229.645954758658, -0.000285840361518839, 1.01875,104.581901550293
0.103664451666667, 229.650925059379, -6.16421227420177E-05, 1.025,109.391174316406
0.104331581666667, 229.655867787861, -8.44919750545097E-05, 1.03125,105.65682220459
0.104998436666667, 229.660210836683, -0.000206069868313992, 1.03875,111.147338867188
0.105664881666667, 229.664977388483, -2.69658356519993E-06, 1.045,111.147338867188
0.106331556666667, 229.670273830394, -0.000336245329719482, 1.05125,107.371391296387
0.10699897, 229.675119872202, -0.000334059939502615, 1.0575,128.6455078125
0.107665843333333, 229.679858353206, -0.000263954960788928, 1.06375,117.025001525879
0.108331031666667, 229.684700536942, -0.00021980617829447, 1.0725,109.081619262695
0.108998336666667, 229.689699595721, -0.000307707763070893, 1.07875,109.081619262695
0.109664995, 229.694261083027, -0.000397001277948589, 1.085,109.369995117188
0.11033252, 229.698894228632, -0.000518495175462743, 1.09125,107.376953125
0.110998261666667, 229.704182674221, -0.0005180931956164, 1.0975,108.406921386719
0.111664588333333, 229.709387574107, -0.000575166828882903, 1.10375,112.682998657227
0.112331573333333, 229.713850096331, -0.000662216456470751, 1.11125,112.682998657227
0.112998251666667, 229.718780472767, -0.000357008786740706, 1.11875,113.790054321289
0.113664351666667, 229.724045765584, -0.000766474719670242, 1.12375,111.497138977051
0.114331618333333, 229.728936570633, -0.000892993364806728, 1.13,110.403350830078
0.114997771666667, 229.733844309042, -0.000836251214918361, 1.1375,109.665306091309
0.11566581, 229.739345874763, -0.000643026420403593, 1.14375,109.665306091309
0.11633103, 229.744091889806, -0.000617766189192492, 1.15125,111.708442687988
0.116998345, 229.748617850752, -0.000366893290301011, 1.15625,109.587799072266
0.117664785, 229.753078958647, -0.000255373891811357, 1.16375,103.389587402344
0.118332583333333, 229.757277858163, -0.000510886057668516, 1.17125,106.518013000488
0.118997668333333, 229.761312772628, -0.000466638280205952, 1.17625,106.518013000488
0.11966477, 229.765388099155, -0.000500035602686243, 1.1825,111.514266967773
0.12033156, 229.7698454325, -0.000219299203782407, 1.19,110.437507629395
0.120997861666667, 229.774340121416, 7.4036562255459E-05, 1.1975,111.267158508301
0.121664331666667, 229.778326234844, 0.000486490345127637, 1.2025,107.218200683594
0.1223317, 229.783210018054, 0.000418947237719796, 1.20875,107.218200683594
0.122998296666667, 229.787990972213, 0.000576286334722932, 1.21625,135.942199707031
0.123664333333333, 229.792065824647, 0.000391897596376797, 1.22375,107.39119720459
0.124331613333333, 229.797114133995, 0.00019912877898689, 1.22875,102.570587158203
0.12499828, 229.802186148132, -0.000132015587966396, 1.235,102.858764648438
0.125664341666667, 229.806712282248, -0.000239762675922979, 1.2425,102.858764648438
0.126333005, 229.810627695349, -0.000335445869842512, 1.24875,108.500831604004
0.12699766, 229.815652609077, -0.000565400819456725, 1.255,110.773452758789
0.12766489, 229.819662749459, -0.000539359127504002, 1.2625,103.599914550781
0.12833117, 229.823665482237, -0.000275546378532682, 1.26875,106.487503051758
0.128998233333333, 229.82789182808, -4.05381827537292E-05, 1.275,106.487503051758
0.129664378333333, 229.832857267162, 6.67139301072707E-05, 1.28125,109.17488861084
0.13033275, 229.83637419972, 0.000391245129240125, 1.28875,105.815063476563
0.130998205, 229.840906586295, 0.000162158635982923, 1.295,103.827690124512
0.13166471, 229.8457239927, 1.1767189984653E-05, 1.30125,111.836097717285
0.132331548333333, 229.849782733995, 9.93717897079771E-05, 1.30875,111.836097717285
0.132999168333333, 229.853626718667, 8.3081107979907E-05, 1.315,106.542045593262
0.133664601666667, 229.857896013596, 0.000284655983071636, 1.3225,103.220199584961
0.134331368333333, 229.861687967054, 0.000827564213352071, 1.3275,104.659545898438
0.13499773, 229.865251270503, 0.0010162577354582, 1.335,108.799705505371
0.135664573333333, 229.869818966498, 0.00080313044061469, 1.34125,108.799705505371
0.136331136666667, 229.874073733345, 0.000874325864582086, 1.3475,106.839965820313
0.136998333333333, 229.878442963069, 0.000789133143724283, 1.35375,108.372215270996
0.137664363333333, 229.882323767928, 0.000304882467156494, 1.36125,105.504936218262
0.13833199, 229.886727988573, 9.09167144227882E-05, 1.3675,102.599876403809
0.138997708333333, 229.889564936809, 0.000302815570967485, 1.37375,102.599876403809
0.139665155, 229.893396263589, 0.00039321453027916, 1.38,127.117736816406
0.140341315, 229.896975326788, 0.000311837617783376, 1.38625,114.611549377441
0.140998215, 229.900879029599, 0.000628512211531704, 1.39375,107.409309387207
0.141664876666667, 229.904425143887, 0.00074035409383182, 1.4,108.25358581543
0.142331556666667, 229.908417232108, 0.000706941772107497, 1.4075,108.25358581543
0.142998276666667, 229.912230124426, 0.00084971660066827, 1.4125,107.895355224609
0.143665303333333, 229.915642113047, 0.00109277039230656, 1.4175,104.935020446777
0.144331546666667, 229.918275603337, 0.00103102299383436, 1.425,103.38508605957
0.144999123333333, 229.921221928519, 0.00132090593332206, 1.43375,111.578002929688
0.145664448333333, 229.924541821964, 0.00106911958027771, 1.44,111.578002929688
0.146332486666667, 229.927330593409, 0.000765668322321439, 1.44625,105.065811157227
0.146998176666667, 229.930863318572, 0.00057843722676354, 1.45375,113.953956604004
0.147664915, 229.93461279835, 0.000449581699066712, 1.46,104.218444824219
0.148331215, 229.939002746665, 0.000167732356064372, 1.46625,109.44441986084
0.148997756666667, 229.942349849123, 4.2809630833018E-05, 1.4725,109.44441986084
0.149664993333333, 229.945920007322, -0.000190520149262386, 1.48,107.599411010742
0.15033154, 229.948624264163, -5.31165509036051E-05, 1.48625,107.01163482666
0.150997758333333, 229.951736626188, 0.000192677603108281, 1.4925,110.287376403809
0.151664513333333, 229.954217337777, 0.000349185741885742, 1.5,108.386833190918
0.1523311, 229.957529870908, 0.000721819524856411, 1.50625,108.386833190918
0.15299791, 229.960919447026, 0.000648158224808739, 1.5125,104.21875
0.153664766666667, 229.965002059338, 0.000356299884520623, 1.52,110.519264221191
0.15433102, 229.96886954949, 0.000281633634931481, 1.52625,110.54264831543
0.154997726666667, 229.972581008841, 9.36315780815291E-05, 1.5325,108.298400878906
0.155665313333333, 229.975880426933, -0.000161163623804602, 1.53875,108.298400878906
0.15633181, 229.979153011153, -0.000111427621994082, 1.545,130.86897277832
0.156997735, 229.982417680632, -0.000167382311464468, 1.5525,106.072380065918
0.157664351666667, 229.985217106162, -0.000284302938665434, 1.56,106.494598388672
0.158331385, 229.988772893597, -0.000477160251658895, 1.565,103.721054077148
0.158997723333333, 229.991900427929, -0.000604724344274485, 1.5725,103.721054077148
0.15966495, 229.994964169204, -0.000329453670852555, 1.57875,113.485832214355
0.16033158, 229.998076354494, -0.000342707005132675, 1.585,106.266960144043
0.160998258333333, 230.002102101754, -0.000604562352375171, 1.5925,106.793983459473
