Time (min), Depth (µm), Load (N), Position (µm), Acoustic (aJ)
7.27833333333333E-06, 228.880688269783, 0.000171577192727705, 0,113.299491882324
0.000667433333333333, 228.88084521332, 0.000479169742684012, 0,113.299491882324
0.001333605, 228.878997021768, 0.000529067736351337, 0.005,104.467094421387
0.00199992833333333, 228.877238004428, 0.000428650780164959, 0.01375,105.908790588379
0.00266679333333333, 228.874957770021, 0.000190792727509718, 0.0225,113.771514892578
0.00333377333333333, 228.874204865401, -0.000168016249855665, 0.03,113.771514892578
0.00399977333333333, 228.873599452621, -0.000383532924698643, 0.03625,106.667976379395
0.00466640333333333, 228.875461921794, -0.000628412124697017, 0.04375,111.478370666504
0.00533338166666667, 228.878621902557, -0.000352280494518838, 0.05,110.623840332031
0.00599972333333333, 228.883032818535, -0.000107101309618558, 0.0575,114.85717010498
0.00666705, 228.886736505638, 2.82998892792994E-05, 0.06375,114.85717010498
0.00733372166666667, 228.890217283959, 0.000150711740655772, 0.0725,115.302101135254
0.00799974666666667, 228.894018865917, 3.32061428525197E-05, 0.07875,110.051300048828
0.00866671166666667, 228.897002874814, 0.000172316655501019, 0.08375,110.000694274902
0.00933320666666667, 228.900258898238, 0.000100011287305179, 0.09,107.503341674805
0.00999986, 228.903839604202, 0.000243410084523978, 0.09875,107.503341674805
0.0106669616666667, 228.907938364714, 0.000306102435561519, 0.10375,106.393821716309
0.0113333266666667, 228.912131642272, 0.000544434464391951, 0.11,105.629936218262
0.0120000683333333, 228.916554160431, 0.000241736168592385, 0.11875,104.492721557617
0.0126665216666667, 228.921698688507, 0.000382129116796956, 0.125,103.538833618164
0.01333321, 228.925792312879, 0.000241971656766204, 0.13,132.856567382813
0.01399991, 228.930635734228, 8.66394589121846E-05, 0.1375,132.856567382813
0.0146670633333333, 228.934571614161, 0.000492552070377796, 0.14375,113.880088806152
0.0153332316666667, 228.939993258178, 0.000991062530755341, 0.15,107.579376220703
0.015999865, 228.943754046631, 0.000802986977609629, 0.15625,106.267364501953
0.0166667983333333, 228.949800476027, 0.000815578845121642, 0.16375,107.538452148438
0.017333555, 228.954160898964, 0.000884189898853381, 0.17125,107.538452148438
0.0179999016666667, 228.959876219819, 0.00055616087539576, 0.1775,109.015113830566
0.0186668483333333, 228.964343940856, 0.000470518177131963, 0.18375,109.009140014648
0.0193335333333333, 228.969732718241, 0.00057603637708524, 0.19,112.774963378906
0.01999986, 228.974656381845, 0.000668239745815354, 0.1975,108.739517211914
0.0206667166666667, 228.979739337606, 0.000603619991600815, 0.2025,108.739517211914
0.0213339383333333, 228.98540072036, 0.000738181232726578, 0.21,111.361305236816
0.0219998716666667, 228.990861680022, 0.000625931370903759, 0.2175,111.506416320801
0.0226668716666667, 228.996881042717, 0.000640725127843582, 0.22375,104.931953430176
0.0233334633333333, 229.002075818003, 0.00097777619809584, 0.23,107.91837310791
0.024000855, 229.008120243945, 0.000859754626170342, 0.23625,107.91837310791
0.02466649, 229.013228688254, 0.000640242152058209, 0.2425,107.866958618164
0.02533346, 229.018574985556, 0.000647221301518051, 0.25,113.799156188965
0.0260000566666667, 229.023727429958, 0.000400305203839987, 0.25625,110.791442871094
0.02666649, 229.029575398292, 7.29421469449375E-05, 0.26375,106.346946716309
0.02733425, 229.034301537045, 0.000194284552073109, 0.26875,106.346946716309
0.0279999216666667, 229.03967094537, 0.000458956757876275, 0.275,103.316017150879
0.0286665366666667, 229.045930290465, 0.000314740501708922, 0.2825,107.066253662109
0.0293334383333333, 229.051202353994, 0.000732880498971538, 0.28875,107.191383361816
0.0299999033333333, 229.056334942003, 0.000889049654748846, 0.29625,133.298446655273
0.0306668133333333, 229.062401583219, 0.000714530420633967, 0.3025,133.298446655273
0.03133338, 229.068055429768, 0.000712205537383836, 0.30875,107.233009338379
0.0320014616666667, 229.073037210476, 0.00094318943532997, 0.31625,104.947166442871
0.032666575, 229.078735544174, 0.000976072283654928, 0.3225,105.408149719238
0.033333195, 229.084512473389, 0.000890021605889682, 0.32875,109.679382324219
0.0339998516666667, 229.089996920875, 0.00103172398833209, 0.335,109.679382324219
0.0346666683333333, 229.095486849231, 0.000726952796688413, 0.3425,109.230613708496
0.0353332083333333, 229.10178393848, 0.000568976231686367, 0.34875,112.33129119873
0.0359998866666667, 229.107626032038, 0.000142096173416926, 0.355,107.830680847168
0.0366666566666667, 229.112678454057, -7.81829649358337E-06, 0.3625,113.035758972168
0.037333425, 229.118153154357, 0.000169778783028133, 0.36875,113.035758972168
0.038001505, 229.123585510375, 0.00022886081538941, 0.375,109.382629394531
0.0386671116666667, 229.128641238243, 0.000180506244166832, 0.38125,113.27709197998
0.0393334566666667, 229.133463639236, 0.000519424720683719, 0.38875,110.08186340332
0.0399998583333333, 229.140187443932, 0.000660113154038241, 0.395,108.872444152832
0.0406668916666667, 229.146747826906, 0.000387605341834702, 0.4,108.872444152832
0.0413332416666667, 229.152555401327, 0.000555341916629074, 0.4075,109.481109619141
0.0419999683333333, 229.158528684825, 0.000876901765008976, 0.415,105.963836669922
0.042667095, 229.16524506838, 0.000991326517577839, 0.42125,110.140205383301
0.0433334466666667, 229.17087255228, 0.000862679479394318, 0.4275,106.975074768066
0.044000385, 229.17686221515, 0.00105839264894043, 0.43375,106.975074768066
0.0446665283333333, 229.182791377351, 0.000815046371958486, 0.44,107.221519470215
0.04533322, 229.188491289025, 0.000648961214293421, 0.4475,111.944427490234
0.0460003933333333, 229.193845055435, 0.000218307345566506, 0.455,103.519302368164
0.0466666516666667, 229.199468911135, 0.000318262324909156, 0.46,130.156127929688
0.0473334883333333, 229.204790294918, 0.000374765986774897, 0.46625,130.156127929688
0.0480013516666667, 229.209816010653, 0.000331830643356469, 0.47375,104.982398986816
0.0486667883333333, 229.215414865522, 3.95268254568237E-05, 0.48,107.078102111816
0.0493344783333333, 229.2210163162, 0.000104953539149094, 0.48625,109.089805603027
0.0500004716666667, 229.225579709041, -0.00014033814008143, 0.49375,108.682495117188
0.0506671033333333, 229.230754271661, -0.00032164753307507, 0.5,108.682495117188
0.0513348033333333, 229.236019306883, -5.63228600714709E-05, 0.50625,112.501106262207
0.052001485, 229.24084823984, 0.000148019376033113, 0.51375,106.747131347656
0.0526681316666667, 229.246378972375, 0.000280690712070705, 0.52,104.698394775391
0.0533350416666667, 229.252380354808, 0.000416216404757796, 0.52625,108.281867980957
0.0540014983333333, 229.257887255759, 0.000526855347452704, 0.5325,108.281867980957
0.0546688166666667, 229.263867903562, 0.000682691519991235, 0.53875,112.24535369873
0.0553357633333333, 229.269081823469, 0.000943705409494724, 0.54625,104.292457580566
0.0560028916666667, 229.273851404686, 0.000951446520657692, 0.5525,104.408836364746
0.05666886, 229.278943186408, 0.000876352792507351, 0.55875,112.185035705566
0.05733537, 229.283705415552, 0.000660735622708101, 0.565,112.185035705566
0.0580020083333333, 229.288957813544, 0.000536445865702446, 0.5725,108.886711120605
0.05866868, 229.294567357028, 0.000163006623178449, 0.57875,112.054397583008
0.0593365283333333, 229.300076504859, 0.000123915586685702, 0.58375,111.032821655273
0.0600014233333333, 229.305319505355, 0.000259826760071955, 0.59125,105.215270996094
0.0606689016666667, 229.310595269365, 0.00031909328317734, 0.59875,105.215270996094
0.061335405, 229.315777952152, 0.000254340035648403, 0.605,103.228256225586
0.0620016183333333, 229.321144363077, 3.67189665488431E-05, 0.61125,111.868629455566
0.062668695, 229.32738056665, -0.000204837900322454, 0.61875,112.205375671387
0.0633353683333333, 229.333287244462, -0.000373795413793619, 0.625,129.198928833008
0.0640029333333333, 229.339730284266, -0.000300053117764409, 0.63125,129.198928833008
0.0646681483333333, 229.34616314423, -0.000513801381417134, 0.6375,107.268829345703
0.0653348783333333, 229.351938169014, 4.33846317233881E-05, 0.645,114.67163848877
0.0660017883333333, 229.357669081147, 0.000162349656247314, 0.65125,113.946823120117
0.06666874, 229.363587066975, 0.000198937318507195, 0.6575,106.206550598145
0.067335145, 229.369208789012, 0.000136088975331715, 0.66375,106.206550598145
0.06800146, 229.374754411863, 0.000228409338165283, 0.67,111.445610046387
0.068668205, 229.380676402869, 4.51050453327363E-05, 0.6775,107.520355224609
0.0693348116666667, 229.386459681409, 0.000261916155148266, 0.685,106.120246887207
0.0700029233333333, 229.392477505777, 0.000191802176909414, 0.69125,108.720100402832
0.070668945, 229.397658939363, 0.000117921887792596, 0.6975,108.720100402832
0.0713353666666667, 229.403322519939, 0.000320177728669674, 0.70375,114.355270385742
0.07200149, 229.408420018506, 0.000555739396680953, 0.71,113.335800170898
0.0726682466666667, 229.413899572639, 0.000344863488706803, 0.7175,111.062866210938
0.07333534, 229.418824173273, 0.000981364017948564, 0.72375,114.307922363281
0.0740020616666667, 229.424288529611, 0.00139950701505999, 0.73,114.307922363281
0.0746681166666667, 229.429459292051, 0.00145834755954983, 0.7375,104.894973754883
0.07533543, 229.435115845441, 0.00161190234666718, 0.74375,110.646858215332
0.0760020716666667, 229.440140990729, 0.00177614109715804, 0.75,104.729019165039
0.0766681133333333, 229.445519582173, 0.00175420169917087, 0.7575,113.592079162598
0.07733641, 229.450414978375, 0.00193887842304493, 0.76375,113.592079162598
0.0780030966666667, 229.455249842693, 0.00207393763915759, 0.77,114.229461669922
0.078668285, 229.461159575986, 0.00167244530569479, 0.7775,113.215232849121
0.0793353783333333, 229.465683962104, 0.00175053888309798, 0.78375,126.618705749512
0.080002065, 229.47081142535, 0.00168145385316979, 0.79,108.780113220215
0.0806696933333333, 229.476005149191, 0.0012363422106544, 0.79625,108.780113220215
0.081335025, 229.481644030105, 0.000740374122629223, 0.80375,115.747497558594
0.0820021283333333, 229.485945692227, 0.000837842226907444, 0.81,110.937355041504
0.082668105, 229.491436723134, 0.000771032582724083, 0.81625,111.77579498291
0.083335455, 229.496989011783, 0.000311764651246522, 0.82375,108.853523254395
0.0840015466666667, 229.502232558603, 0.000342486108145065, 0.83,108.853523254395
0.084669645, 229.507135007502, 0.000482315084667742, 0.83625,108.490837097168
0.085335545, 229.512530368425, 0.000535593908535125, 0.84375,105.681297302246
0.0860015266666667, 229.51763703948, 0.000336709898247923, 0.85,110.618591308594
0.0866681033333333, 229.523100833047, 0.000527095335378479, 0.85625,111.539482116699
0.08733539, 229.528740558636, 0.000742818999810361, 0.8625,111.539482116699
0.0880014516666667, 229.534517729007, 0.000691737565576324, 0.86875,107.880279541016
0.0886688633333333, 229.539798796747, 0.000962955442601774, 0.8775,106.533416748047
0.0893348533333333, 229.545162659015, 0.00124236440817493, 0.8825,103.332077026367
0.0900020083333333, 229.54962611681, 0.00135297185249988, 0.88875,105.49666595459
0.09066847, 229.554729810025, 0.00152566267844838, 0.89625,105.49666595459
0.0913354, 229.559098378343, 0.00158800404709054, 0.90375,110.61222076416
0.092002935, 229.564167631468, 0.00151314130738332, 0.91,108.153991699219
0.0926681566666667, 229.568790522983, 0.00131749413453221, 0.915,108.728424072266
0.0933348416666667, 229.573969496845, 0.00122233591419632, 0.9225,111.638397216797
0.094001435, 229.578485727748, 0.0012554302519259, 0.92875,111.638397216797
0.094668675, 229.583348178273, 0.00115489630165732, 0.93625,115.311042785645
0.09533549, 229.587883100249, 0.00114216944090651, 0.9425,107.654808044434
0.096001545, 229.592649336598, 0.00136518723892291, 0.94875,135.408645629883
0.09666807, 229.596629091085, 0.00155415674722551, 0.955,113.806739807129
0.0973349166666667, 229.601715438258, 0.00119567775322884, 0.9625,113.806739807129
0.098002015, 229.605975455103, 0.00140920552795178, 0.96875,109.291305541992
0.098668665, 229.610931973942, 0.00134938103288337, 0.975,111.336288452148
0.0993365616666667, 229.615750130089, 0.0012147717941767, 0.98125,109.459434509277
0.100002876666667, 229.620492447091, 0.00110159497890263, 0.98875,108.07893371582
0.100670216666667, 229.624801881087, 0.00137477625729076, 0.99625,108.07893371582
0.101336565, 229.629805217306, 0.00138036647654065, 1.00125,110.42293548584
0.102002838333333, 229.633926577174, 0.00111987006099879, 1.0075,108.86597442627
0.102668801666667, 229.638717594777, 0.000967924693063694, 1.015,105.437843322754
0.103336408333333, 229.64339540577, 0.000947369725555776, 1.0225,116.644386291504
0.104001476666667, 229.647995389175, 0.000809237163788234, 1.02875,116.644386291504
0.104669788333333, 229.652792103549, 0.000662967510751501, 1.03375,104.99910736084
0.10533576, 229.657038648861, 0.000921962501689394, 1.04125,105.330360412598
0.106002146666667, 229.661693246198, 0.000728227732813756, 1.04875,111.847366333008
0.106668103333333, 229.665725323242, 0.000468316287874186, 1.055,104.835929870605
0.107336675, 229.670532793015, 0.000401598139058169, 1.06125,104.835929870605
0.108001396666667, 229.674765991879, 0.000519960193844461, 1.0675,107.549835205078
0.108669606666667, 229.679473786369, 0.000261556173227722, 1.075,117.110626220703
0.109334925, 229.683713347047, 0.000699355683023241, 1.08125,107.463714599609
0.110001576666667, 229.689183592756, 0.00109930609394445, 1.08875,108.748847961426
0.110668696666667, 229.693763651476, 0.00102873163882878, 1.095,108.748847961426
0.111336566666667, 229.698989806713, 0.00103046705166091, 1.1,110.356155395508
0.112003785, 229.704371472044, 0.000887398237853335, 1.1075,108.94457244873
0.112671918333333, 229.709850151629, 0.000478535274618926, 1.115,128.084716796875
0.1133373, 229.714827818287, 1.16567254227344E-05, 1.12125,109.87410736084
0.114003311666667, 229.720232308542, -0.00037860117232555, 1.12625,109.87410736084
0.1146699, 229.725181510976, -0.000350069605438337, 1.13375,110.703979492188
0.115337161666667, 229.730317286852, -0.000262220518037282, 1.14125,108.688621520996
0.116003885, 229.735027612878, -0.000121767572877834, 1.1475,116.40055847168
0.116670588333333, 229.739566127909, 0.000116717448284239, 1.1525,109.001014709473
0.117336583333333, 229.743492992658, 0.000536373869394852, 1.16,109.001014709473
0.118003248333333, 229.747647121746, 0.000554731447333185, 1.1675,112.415390014648
0.11866991, 229.75186231291, 0.000768244222812091, 1.17375,106.037826538086
0.11933813, 229.756271013378, 0.000894258893264066, 1.18,106.09171295166
0.120003786666667, 229.761036405957, 0.000808971677126349, 1.18625,106.91194152832
0.120670411666667, 229.765865222485, 0.000554554456253601, 1.19375,106.91194152832
0.121338183333333, 229.770974423948, 0.000464648972113106, 1.2,105.215469360352
0.122003286666667, 229.775960712765, 0.000232754619905415, 1.20625,110.588706970215
0.12267063, 229.780841713395, -0.000257611249559669, 1.2125,109.948028564453
0.12333809, 229.785595807834, -0.000357267743924818, 1.21875,109.882041931152
0.124003396666667, 229.790376317376, -0.000297462747852392, 1.22625,109.882041931152
0.12467052, 229.794831559549, -0.000229436664701686, 1.23375,109.094398498535
0.12533723, 229.799348525571, 4.95883201392215E-05, 1.23875,107.092811584473
0.126004701666667, 229.80393684532, 0.000436258398119799, 1.245,112.904655456543
0.126670563333333, 229.80870721605, 0.000509258231399364, 1.2525,105.486137390137
0.127338228333333, 229.812943235725, 0.000703622968651895, 1.25875,105.486137390137
0.128004676666667, 229.81816038464, 0.000825407851564043, 1.265,109.052505493164
0.128669895, 229.822890313115, 0.000667240796099022, 1.2725,110.582084655762
0.129337206666667, 229.827203183115, 0.00043342204056314, 1.27875,129.887344360352
0.130005381666667, 229.831403132847, 0.000412585087182394, 1.285,105.137969970703
0.13066997, 229.836264756526, 0.000247659371208571, 1.29125,105.137969970703
0.13133722, 229.840219445679, -7.3128015976129E-05, 1.29875,109.266212463379
0.13200382, 229.844763745504, -0.000160062149363672, 1.305,107.124168395996
0.132670466666667, 229.849417738083, -2.72033227119104E-05, 1.31125,108.562858581543
0.133337228333333, 229.853732303926, -1.50164348312848E-05, 1.3175,110.945343017578
0.134003673333333, 229.85798759057, 9.9114332512031E-05, 1.325,110.945343017578
0.134670458333333, 229.862628140803, 0.000212834120462584, 1.33125,106.834762573242
0.13533693, 229.867179240476, 0.000251044701181839, 1.3375,112.516868591309
0.13600472, 229.871162957868, 0.000105860993604352, 1.34375,104.82625579834
0.136671565, 229.875480989827, 0.000228227847269981, 1.35125,110.720199584961
0.137338408333333, 229.879697356091, 0.000115991484788045, 1.3575,110.720199584961
0.138004718333333, 229.884026375024, 0.000113296120146547, 1.36375,109.591636657715
0.138671658333333, 229.887926096356, 0.000220957712412144, 1.37,105.000480651855
0.139338155, 229.892036881547, 0.000361259165206863, 1.3775,106.995315551758
0.140004861666667, 229.896004951377, 0.000703471476244657, 1.3825,109.037651062012
0.14067048, 229.900385893956, 0.000624354950185902, 1.39,109.037651062012
0.141338225, 229.903778419543, 0.000745109384841726, 1.3975,111.462303161621
0.142003308333333, 229.907730502747, 0.00104227295863684, 1.40375,110.233848571777
0.142669933333333, 229.911274339769, 0.00144483773823926, 1.40875,107.900840759277
0.143336771666667, 229.915341935866, 0.00123462329707573, 1.41625,109.898780822754
0.144004115, 229.918974231465, 0.00143863254992028, 1.42125,109.898780822754
0.144670671666667, 229.922795741837, 0.00122168644684469, 1.42875,112.494277954102
0.14533773, 229.92609019735, 0.00100546180757711, 1.43625,100.860748291016
0.146004823333333, 229.930020229002, 0.000884855865458461, 1.44375,135.833633422852
0.146669941666667, 229.933622402979, 0.00094067406180815, 1.45,103.133117675781
0.147336603333333, 229.938280788373, 0.00063332749951774, 1.45625,103.133117675781
0.148003361666667, 229.942157992841, 0.000730690609045225, 1.4625,107.538459777832
0.148669938333333, 229.946400787167, 0.000807270762534243, 1.47,106.527015686035
0.149336811666667, 229.950541177854, 0.00048635138202331, 1.47625,105.346099853516
0.150003763333333, 229.95493890506, 0.000283390576527922, 1.4825,112.049011230469
0.150669931666667, 229.958657129844, 0.000280657713776342, 1.48875,112.049011230469
0.151337111666667, 229.96282835015, 0.000138484354986292, 1.49625,107.38444519043
0.152004675, 229.966346921475, 0.00011233016868207, 1.5025,108.591003417969
0.152670136666667, 229.970020953734, 0.000661629577907492, 1.50875,103.839996337891
0.153336845, 229.973408685775, 0.000784903885943362, 1.51625,109.078567504883
0.154005556666667, 229.97668745316, 0.00113440133104052, 1.5225,109.078567504883
0.154669916666667, 229.979837631994, 0.00124175543878219, 1.52875,116.508033752441
0.155336625, 229.983587253019, 0.00101815866983986, 1.53625,108.162727355957
0.156003795, 229.987528180406, 0.000649789172670289, 1.5425,114.457916259766
0.156670156666667, 229.990916646084, 0.000662715523387992, 1.54875,111.108757019043
0.157337395, 229.994654028998, 0.000590815134866047, 1.555,111.108757019043
0.158004885, 229.998422985484, 0.000646048360549687, 1.5625,110.259910583496
0.158670625, 230.001590478248, 0.000900053102147777, 1.56875,109.202667236328
0.159337121666667, 230.00492458859, 0.000855391345486151, 1.575,111.571922302246
0.160004645, 230.008485873002, 0.000642795024008923, 1.5825,106.938751220703
0.160669985, 230.01146212904, 0.000739472667999103, 1.58875,106.938751220703
0.161336655, 230.014811424796, 0.000774377414759717, 1.59625,103.757789611816
