Time (min), Depth (µm), Load (N), Position (µm), Acoustic (aJ)
7.18333333333333E-06, 228.645840601554, 0.00043533704361976, 0,107.948287963867
0.000666398333333333, 228.645667723313, 0.0004683503853678, 0,104.421615600586
0.00133425666666667, 228.645279448367, 0.000415061062029594, 0.00375,134.296432495117
0.001999885, 228.644060313204, 0.000401618737210901, 0.01375,108.50617980957
0.00266637833333333, 228.642819799873, 0.000338153924956903, 0.0225,106.655006408691
0.00333322333333333, 228.64146189821, 0.000171405800556819, 0.03,106.655006408691
0.00399974, 228.641390141336, 0.000210708326432933, 0.03625,102.756355285645
0.00466674166666667, 228.642085916059, 4.78066997905668E-06, 0.04375,105.377151489258
0.00533303, 228.644536852299, -0.000369243543189736, 0.05,107.356300354004
0.00599988166666667, 228.647211951111, -0.000228030136187803, 0.0575,107.356300354004
0.006666495, 228.650825003913, -0.000633015794180914, 0.06375,106.428565979004
0.00733346666666667, 228.65361809142, -0.000388546073629646, 0.07125,112.82445526123
0.00800041833333333, 228.656289376126, -1.2867443589011E-05, 0.07875,108.529190063477
0.008666505, 228.658909043473, 0.000316818996610513, 0.085,105.824768066406
0.00933314833333333, 228.662271555088, 0.000429968813224065, 0.09,105.824768066406
0.0100002183333333, 228.666066103717, 0.000131414809294594, 0.0975,104.559982299805
0.010666575, 228.669509440224, -0.000371929908221053, 0.10375,111.569770812988
0.0113339816666667, 228.673658401558, -0.000466893138320751, 0.11125,102.943046569824
0.0119998216666667, 228.677873091004, -0.000494511251118856, 0.11875,114.872207641602
0.0126665416666667, 228.682110803726, -0.000829513424296198, 0.12375,114.872207641602
0.0133333483333333, 228.686780215523, -0.000488978029038803, 0.13,109.951217651367
0.0140000983333333, 228.69185070466, -0.000306984670411007, 0.1375,105.615547180176
0.0146664833333333, 228.699061077563, -0.000131587980328935, 0.14625,108.146331787109
0.0154998716666667, 228.703895819067, -0.000105477291853662, 0.1525,112.911613464355
0.0161666283333333, 228.70897348587, -0.000166915705877539, 0.15875,107.310569763184
0.0168337133333333, 228.713611501339, -0.00020330387810677, 0.165,107.310569763184
0.017500235, 228.718532065793, -0.000684497708273129, 0.1725,110.714996337891
0.01816663, 228.723890588719, -0.000821184342660882, 0.17875,127.037857055664
0.0188337133333333, 228.729263882418, -0.000650989391408251, 0.185,106.548927307129
0.0195000083333333, 228.734166013373, -0.000564508235254254, 0.19125,109.087417602539
0.020166615, 228.740047597351, -0.0004156422126504, 0.19875,109.087417602539
0.0208334783333333, 228.745142653989, -6.74347027738422E-05, 0.205,111.44775390625
0.0215001066666667, 228.750707536651, -0.000348802569978974, 0.21125,107.714744567871
0.02216746, 228.755903601629, -0.00051565568910854, 0.21875,109.971710205078
0.022833255, 228.761561419004, -0.000475124724912363, 0.225,108.87491607666
0.0235001, 228.766696208337, -0.000760711880165245, 0.2325,108.87491607666
0.024167, 228.772061673307, -0.000865565613437845, 0.23875,109.948341369629
0.02483329, 228.777012576406, -0.000561725874997367, 0.24375,104.389747619629
0.0255002233333333, 228.782280014258, -0.000649847948703577, 0.2525,111.146461486816
0.0263333366666667, 228.787407271897, -0.000975301601493214, 0.26,110.630661010742
0.0270003716666667, 228.792815409834, -0.000845922600094633, 0.26625,106.171585083008
0.0276671, 228.798130970025, -0.000702169820631649, 0.2725,106.171585083008
0.028333305, 228.80369530978, -0.000697277066399312, 0.28,103.807060241699
0.0290001883333333, 228.808103669753, -0.000268687094055108, 0.28625,112.830619812012
0.0296666083333333, 228.813512602735, 0.000233289692192226, 0.2925,113.493881225586
0.030333485, 228.818100222647, 0.000609227809197133, 0.29875,113.841781616211
0.0310002883333333, 228.823267140904, 0.000594626042623434, 0.30625,113.841781616211
0.0316666216666667, 228.82819564916, 0.000498132889398617, 0.3125,107.390754699707
0.0323336766666667, 228.834323670788, 0.000263583670550824, 0.31875,115.312400817871
0.0330001266666667, 228.839444368352, -0.00040463576548768, 0.32625,109.497543334961
0.0336666783333333, 228.845310372152, -0.00119498956680304, 0.3325,128.009918212891
0.0343335383333333, 228.851252629454, -0.00140015826138134, 0.33875,128.009918212891
0.035, 228.85655609072, -0.00173298854366145, 0.345,109.168792724609
0.0356666983333333, 228.861310713279, -0.00166912625139808, 0.3525,111.22420501709
0.0363335166666667, 228.866798889647, -0.00155096818639439, 0.35875,103.996765136719
0.0369999766666667, 228.871661774435, -0.00110266620412066, 0.365,107.870643615723
0.037666825, 228.876267564931, -0.00103514709552453, 0.37125,107.870643615723
0.0383335033333333, 228.881935911553, -0.000571934362207521, 0.37875,109.837303161621
0.03900023, 228.887080781243, -0.000571134902351806, 0.385,107.754829406738
0.0396666366666667, 228.895167813601, -0.000134418338145473, 0.39375,108.965682983398
0.0405000066666667, 228.900621147762, -6.4332858491536E-05, 0.39875,105.661865234375
0.0411666333333333, 228.906193858061, -0.000468150075204477, 0.40625,107.429206848145
0.0418336083333333, 228.911195801785, -0.000324719779551955, 0.41375,107.429206848145
0.04250032, 228.917359906478, -0.000415160736810684, 0.41875,107.322982788086
0.0431666033333333, 228.922485956772, -0.000709084473342151, 0.425,110.733985900879
0.04383347, 228.927687730035, -0.000538573037955417, 0.4325,109.83821105957
0.0445003616666667, 228.932562984692, -0.000163791362835454, 0.44,107.60767364502
0.0451665633333333, 228.938264861717, -0.000184479823700278, 0.445,107.60767364502
0.0458333833333333, 228.943031671927, -1.21714785596289E-05, 0.45125,110.698379516602
0.0465000816666667, 228.948506493986, 6.55186191153249E-05, 0.46,113.330299377441
0.0471676266666667, 228.953902551171, -0.00027437930814316, 0.465,106.53670501709
0.0478333916666667, 228.960073651007, -0.000231671953276536, 0.47125,109.023857116699
0.0485002683333333, 228.9647928617, -0.000605510175755563, 0.47875,109.023857116699
0.0491669683333333, 228.969911453314, -0.000686843590486161, 0.485,113.297790527344
0.049833555, 228.974449000055, -0.000766279600506572, 0.4925,113.591812133789
0.0505003983333333, 228.979928279091, -0.000711958329008892, 0.49875,123.755111694336
0.051166795, 228.983974106272, -0.000772436791223396, 0.505,108.397605895996
0.05183503, 228.988548278167, -0.000739309455156946, 0.51125,106.572166442871
0.05250033, 228.993847363341, -0.000697688045749567, 0.51875,106.572166442871
0.0531667316666667, 228.998804718991, -0.000529495493872843, 0.52375,106.477073669434
0.05383357, 229.00331901704, -0.000340473488237389, 0.53125,111.53018951416
0.0545001616666667, 229.008889595325, -0.000553315797401767, 0.5375,115.893463134766
0.0551667633333333, 229.013773744843, -0.000389392031120608, 0.54375,115.893463134766
0.055833845, 229.018927112329, -0.000797329540849429, 0.55125,101.584922790527
0.0565001283333333, 229.024079423436, -0.00092619406811393, 0.5575,109.519371032715
0.057167, 229.028907630199, -0.000926167069474671, 0.56375,103.047500610352
0.0578334183333333, 229.03343608908, -0.000649555463423688, 0.57125,112.315582275391
0.0585003766666667, 229.038591500821, -0.000610633918431018, 0.5775,112.315582275391
0.0591682833333333, 229.043875528853, -0.000377971604822588, 0.58375,106.702255249023
0.0598334333333333, 229.048556592448, -0.000550195954154147, 0.58875,106.198715209961
0.0605004283333333, 229.053486176428, -0.000742957271964546, 0.59625,104.162094116211
0.0611667566666667, 229.058601057418, -0.000707598048024728, 0.60375,107.810997009277
0.0618334833333333, 229.063071278881, -0.000706089123841255, 0.61,107.810997009277
0.0625001166666667, 229.067374053623, -0.000630735908769151, 0.61625,107.730735778809
0.063166745, 229.072896202453, -0.000494697241872384, 0.62375,112.384613037109
0.0638338233333333, 229.078114479511, -0.000308157611549404, 0.63,107.944404602051
0.06450025, 229.083451950636, -0.000760558887918621, 0.63625,109.225341796875
0.0651668016666667, 229.089280624672, -0.000930551349334304, 0.6425,109.225341796875
0.06583498, 229.09405282484, -0.000736029119955668, 0.65,104.354560852051
0.0665003516666667, 229.098834570462, -0.000584424234881367, 0.65625,100.450050354004
0.0671681883333333, 229.103742430369, -0.000778959963558378, 0.6625,133.587142944336
0.06783345, 229.108734706093, -0.000230768998615742, 0.66875,110.350944519043
0.0685001533333333, 229.113438468467, -8.52328087609815E-05, 0.675,107.044937133789
0.0691668516666667, 229.118616973117, -5.21684695832299E-05, 0.6825,107.044937133789
0.0698335733333333, 229.1239807128, 3.80744976117607E-05, 0.68875,105.343185424805
0.0705001733333333, 229.129219770275, 0.000515508016597767, 0.69625,108.102767944336
0.0711668666666667, 229.134116181522, 0.000470408281925373, 0.7025,111.201210021973
0.0718335116666667, 229.139750971074, 0.000407688932291082, 0.7075,111.201210021973
0.0725004083333333, 229.144810377196, 0.000297828450467735, 0.71625,108.366851806641
0.0731681733333333, 229.149832538862, 0.000247541976316203, 0.7225,110.774406433105
0.0738334583333333, 229.154802517091, 6.66255635799784E-05, 0.72875,108.444717407227
0.0745001033333333, 229.160505643135, -0.000124334344703297, 0.735,107.346061706543
0.07516676, 229.165906116782, -5.6102771909344E-05, 0.7425,107.346061706543
0.0758334216666667, 229.171579458457, -0.000257032679401402, 0.74875,108.821464538574
0.07650009, 229.177270161008, -0.000275268763441817, 0.755,103.285972595215
0.0771668816666667, 229.183264755235, -0.00012289441702112, 0.7625,109.092880249023
0.0778334666666667, 229.188578925076, 6.49246490303808E-05, 0.76875,110.119956970215
0.07850031, 229.193928528245, 1.32597441184601E-05, 0.775,110.119956970215
0.0791669316666667, 229.199891988896, -0.000289518047674479, 0.78125,106.09871673584
0.07983361, 229.205486441717, -0.000368354087848571, 0.78875,113.690879821777
0.0805001666666667, 229.210540113881, -0.00075379122775713, 0.795,102.892890930176
0.081166945, 229.215943523696, -0.000846498571171755, 0.80125,116.263687133789
0.081833555, 229.221334211268, -0.000682783294425157, 0.80875,116.263687133789
0.082500125, 229.225821357692, -8.58612771709629E-05, 0.815,110.808311462402
0.08316675, 229.23110678927, 0.000108321969228774, 0.82125,118.910614013672
0.0838334616666667, 229.236462667959, 0.000338602402459748, 0.82875,129.408218383789
0.0845005416666667, 229.241754593776, 0.000358269414614666, 0.835,107.102424621582
0.08516677, 229.24677510722, 0.000565702995424463, 0.84125,107.578422546387
0.08583343, 229.252654793181, 0.000290481819465332, 0.8475,107.578422546387
0.0865000683333333, 229.257035624306, 0.000519109335727612, 0.85375,106.109352111816
0.08716678, 229.261473922293, 0.000553372114737362, 0.8625,110.382110595703
0.0878336683333333, 229.266157789328, 0.0004373589419704, 0.8675,108.727119445801
0.0885001616666667, 229.271765494051, 0.000245023602796797, 0.87375,108.727119445801
0.0891667216666667, 229.276474501874, 0.000448438885471389, 0.8825,106.368606567383
0.089833435, 229.281925156532, 0.000484299084268165, 0.8875,106.726951599121
0.0905005566666667, 229.287609222064, 0.000458683370888476, 0.89375,103.965309143066
0.0911669683333333, 229.292440919069, 0.000764615504211565, 0.90125,108.676559448242
0.0918333866666667, 229.297328312588, 0.000738461317907343, 0.9075,108.676559448242
0.092500115, 229.302427229059, 0.0011706781081175, 0.91375,111.153366088867
0.0931667683333333, 229.30746631472, 0.000829454247431487, 0.92125,107.327850341797
0.0938336033333333, 229.312707905299, 0.00102216156794212, 0.9275,108.840141296387
0.09450031, 229.318225770273, 0.000917064846852424, 0.93375,109.469375610352
0.09516684, 229.323668753409, 0.00107653383689076, 0.94125,109.469375610352
0.095833445, 229.32930178663, 0.000639991263915205, 0.9475,103.108673095703
0.09650011, 229.334766019144, 0.000677580875867749, 0.95375,114.425369262695
0.0971681216666667, 229.340432513596, 0.000367801435770173, 0.96125,102.370666503906
0.0978334933333333, 229.346201461258, 0.000326126029084277, 0.96625,103.585784912109
0.098500175, 229.351259595133, -0.000166720715768878, 0.97375,103.585784912109
0.0991667733333333, 229.356891809678, -0.000229015586733285, 0.98,113.847587585449
0.0998334183333333, 229.361943523498, -0.0002921279166675, 0.9875,104.870338439941
0.100500176666667, 229.367436210281, -6.48383331854668E-05, 0.99375,132.530395507813
0.101166783333333, 229.372266440656, 0.000102941739395345, 1,107.086524963379
0.10183363, 229.3781255662, 0.000686941905683793, 1.00625,106.818145751953
0.102500275, 229.382708179131, 0.000927996297773728, 1.01375,106.818145751953
0.103166896666667, 229.388067016189, 0.00109274952239867, 1.02,107.705413818359
0.103833743333333, 229.393405280814, 0.00107503991193007, 1.0275,102.59008026123
0.104500156666667, 229.399151019275, 0.000789319263384041, 1.0325,104.884712219238
0.105166793333333, 229.404191219106, 0.000187284002967723, 1.03875,104.884712219238
0.105833811666667, 229.40947690576, 0.000170252358456919, 1.0475,107.033401489258
0.106500363333333, 229.4153166003, -0.000312808877910308, 1.05375,110.738510131836
0.107166896666667, 229.420491825579, -0.000706969579614747, 1.06,107.196258544922
0.107833445, 229.425888016141, -0.000679553956696098, 1.065,109.056365966797
0.108500613333333, 229.431169877384, -0.000236615705044855, 1.07375,109.056365966797
0.109166875, 229.4366874018, -0.000181445476186151, 1.08,109.295364379883
0.10983342, 229.441694260038, -0.00013182196872713, 1.08625,100.572486877441
0.110500116666667, 229.447051427806, -3.79296848426444E-05, 1.0925,109.962173461914
0.111166761666667, 229.451805264446, -0.000140619026861278, 1.1,106.231269836426
0.111833398333333, 229.45656044081, -0.00037262437347481, 1.10625,106.231269836426
0.112500283333333, 229.462105730399, -0.000721718338843727, 1.1125,108.565185546875
0.113168188333333, 229.467551380464, -0.000407521620634663, 1.11875,109.153869628906
0.113833415, 229.472465090627, -0.000545100710169878, 1.125,113.437614440918
0.114501675, 229.478171530754, -0.000604101746613379, 1.13125,105.137733459473
0.11516674, 229.483895747986, -0.000629910950198581, 1.14,105.137733459473
0.115833606666667, 229.489041352702, -0.00066491919174302, 1.14625,109.211036682129
0.116500243333333, 229.4943168087, -0.000998619430347047, 1.15125,133.700897216797
0.117166731666667, 229.499153605631, -0.000609223989236906, 1.1575,104.053153991699
0.117833403333333, 229.504475179741, -0.000710011426793398, 1.165,104.500228881836
0.11850016, 229.509212749343, -0.00091592858381896, 1.1725,107.873970031738
0.11916685, 229.514464751817, -0.000860140386042352, 1.1775,107.873970031738
0.11983361, 229.519536215891, -0.000698112524525722, 1.18375,107.311264038086
0.120500276666667, 229.524413766922, -0.0010530831947268, 1.1925,104.020652770996
0.121168136666667, 229.5288313091, -0.000949706887225203, 1.19875,107.26538848877
0.121833428333333, 229.534352452384, -0.000531964370014466, 1.20375,107.26538848877
0.122500388333333, 229.538892226915, -0.000617409078214525, 1.21125,106.509498596191
0.123166851666667, 229.544093606879, -0.000713831735013643, 1.2175,105.129638671875
0.123833416666667, 229.549514142556, -0.000318021116146809, 1.225,107.251121520996
0.124500151666667, 229.554646544549, -0.000334943266133667, 1.23,108.740623474121
0.125166768333333, 229.559294320437, -8.22344594112789E-05, 1.2375,108.740623474121
0.125833426666667, 229.564637652596, -0.000104589336543171, 1.24375,105.303970336914
0.126500225, 229.570162466913, -0.00012235294429029, 1.25,107.446495056152
0.127168181666667, 229.575074454712, -0.000468310567179387, 1.2575,104.327995300293
0.127833436666667, 229.580199628967, -0.000467271119397897, 1.26375,110.940055847168
0.128500101666667, 229.58533138019, -0.000852766756336928, 1.27,110.940055847168
0.129168178333333, 229.590145002917, -0.000624542719781632, 1.2775,108.00870513916
0.129833458333333, 229.594063012958, -0.000539691981751534, 1.28375,106.336891174316
0.130500133333333, 229.599099607951, -0.000162589923197158, 1.29,106.784721374512
0.131166751666667, 229.604211193141, -0.000200796004143204, 1.2975,103.662246704102
0.13183341, 229.609579863867, -0.000656987590117076, 1.3025,103.662246704102
0.132500158333333, 229.614214623586, -0.00109011183473998, 1.31,111.978492736816
0.133166785, 229.619854285229, -0.00131305163668742, 1.31625,128.766265869141
0.133833491666667, 229.624811271214, -0.0020003756131021, 1.3225,110.015968322754
0.134500395, 229.629432935539, -0.00212121854329771, 1.32875,105.770698547363
0.13515918, 229.633943769701, -0.00163341604508413, 1.33625,107.377883911133
0.135825703333333, 229.638970281908, -0.0015954619515016, 1.3425,107.377883911133
0.13649239, 229.643003678156, -0.00150486650202933, 1.34875,109.062065124512
0.13715884, 229.647333716014, -0.000840942850246908, 1.35625,117.879547119141
0.137825183333333, 229.651958980013, -0.000468946535253893, 1.3625,111.177764892578
0.138492528333333, 229.657107400505, -0.000895265621732754, 1.36875,111.177764892578
0.139159971666667, 229.661981656929, -0.00066435222027608, 1.375,102.833305358887
0.139825378333333, 229.66697653251, -0.000450077483094049, 1.3825,111.154067993164
0.140493511666667, 229.672261450209, -0.000551892369036805, 1.38875,105.019592285156
0.141160185, 229.67695069907, -0.000979162407693601, 1.395,112.255279541016
0.14182573, 229.681141202848, -0.000559843469637483, 1.40125,112.255279541016
0.142491841666667, 229.685565917982, -0.000598982503732388, 1.4075,108.086868286133
0.143160105, 229.690129691533, -0.000707736041154844, 1.415,106.434646606445
0.143825233333333, 229.693781662979, -0.000985319598410426, 1.41875,102.270584106445
0.144493351666667, 229.697403998114, -0.000815349635860791, 1.42625,116.130393981934
0.145158533333333, 229.701032941935, -0.000922702243614301, 1.43375,116.130393981934
0.145827201666667, 229.704812098239, -0.000855894099270327, 1.44125,107.763748168945
0.146493406666667, 229.708538675635, -0.0011271209758422, 1.44875,109.436912536621
0.147158571666667, 229.71297702436, -0.00116062479297637, 1.455,107.052291870117
0.147825253333333, 229.717237727591, -0.00132155620954168, 1.46125,109.174812316895
0.148492568333333, 229.72133108764, -0.00121329464742976, 1.46875,109.174812316895
0.149159185, 229.725937264424, -0.00117140775140301, 1.475,111.029525756836
0.149825475, 229.730157338151, -0.00126356612235852, 1.48125,132.106414794922
0.150492421666667, 229.734649296803, -0.00102690650953528, 1.4875,102.765151977539
0.151158598333333, 229.739076801706, -0.000904676149054105, 1.49375,112.12931060791
0.151826716666667, 229.743977812925, -0.00123720494648665, 1.50125,112.12931060791
0.152493345, 229.747163100662, -0.00102119179658117, 1.5075,106.433502197266
0.153158578333333, 229.751113153221, -0.000762619784410017, 1.51375,112.351348876953
0.15382747, 229.75485133742, -0.000870041388749839, 1.52125,108.054588317871
0.154491863333333, 229.75907348024, -0.000586338138845006, 1.5275,109.130821228027
0.155159055, 229.762515849623, -0.000435954192490006, 1.53375,109.130821228027
0.155825528333333, 229.767717269868, -0.000705607648065302, 1.54,104.761375427246
0.15649238, 229.771516562871, -0.000575925661830992, 1.5475,110.101821899414
0.157159343333333, 229.775632060681, -0.000438900044464341, 1.55375,105.442687988281
0.157825771666667, 229.779688634398, -0.000529027517437772, 1.56,101.856056213379
0.15849346, 229.783811294229, -0.000558184552907414, 1.5675,101.856056213379
0.159158775, 229.787697272426, -0.00020105099135552, 1.57375,110.656265258789
0.159825181666667, 229.792278455487, -0.000388220590034139, 1.58,107.945663452148
0.16049277, 229.796301244962, -0.000162657419859067, 1.5875,114.382987976074
