Time (min), Depth (µm), Load (N), Position (µm), Acoustic (aJ)
8.31E-06, 238.559460236118, -0.000473054270167532, 0,263.617584228516
0.000666576666666667, 238.560507540975, -0.000516900067847516, 0.00250000000000001,263.617584228516
0.00133335333333333, 238.560248384932, -0.000442667296453424, 0.02125,269.847290039063
0.00216656666666667, 238.560595123379, -0.000197983086691235, 0.0375000000000001,262.604888916016
0.00283323833333333, 238.561351652132, 7.671011572917E-05, 0.0525,205.078765869141
0.00349979333333333, 238.563740269436, 0.000329469919881269, 0.06625,264.134216308594
0.00416666166666667, 238.567973559476, 0.000136305122363885, 0.08125,260.991394042969
0.00483329166666667, 238.57443997527, 0.000399442905226215, 0.09625,260.991394042969
0.005499755, 238.582649831479, 0.000302163791465313, 0.10875,261.715362548828
0.00616651, 238.592322603032, 0.000246491087867756, 0.12125,255.693176269531
0.00683303833333333, 238.603521982336, 4.86450254376407E-05, 0.135,262.595275878906
0.007499755, 238.61470166315, 7.75005760384655E-05, 0.1475,261.070068359375
0.00816655, 238.625590836084, -3.59567251202629E-05, 0.1625,261.070068359375
0.00883321166666667, 238.6367296074, 1.53346985514843E-05, 0.17625,258.795959472656
0.009499765, 238.648330298777, 3.20452703127591E-07, 0.18875,270.382049560547
0.0101666633333333, 238.659155734039, -2.70831708202945E-05, 0.20125,258.472442626953
0.0108331533333333, 238.670410975334, 0.000112313827410481, 0.215,260.505157470703
0.0114996816666667, 238.681920088186, 0.000376614051897877, 0.22875,260.505157470703
0.0121668483333333, 238.693417728932, 0.00045433864785536, 0.24125,314.755493164063
0.0128332216666667, 238.705087270431, 0.000204796182100856, 0.255,267.479125976563
0.01349992, 238.717102827199, 0.000289330436039358, 0.2675,269.553283691406
0.0141670466666667, 238.729662338114, 3.2507336019957E-05, 0.28125,269.685943603516
0.014833675, 238.742267592493, -0.000186144181357182, 0.29375,269.685943603516
0.01549976, 238.755038763963, -0.000167164134663972, 0.30625,267.709594726563
0.0161662583333333, 238.767325995572, -1.79531293623526E-05, 0.32,271.277221679688
0.0168333616666667, 238.780255664552, 0.000255963112110895, 0.335,268.702728271484
0.0174997416666667, 238.792376723486, 0.000545492069354415, 0.3475,266.737060546875
0.0181663516666667, 238.805554476085, 0.000603590151158376, 0.36,266.737060546875
0.0188331016666667, 238.818367249893, 0.000551829251020884, 0.37375,267.709136962891
0.01949972, 238.831405624193, 0.00078692744230654, 0.3875,267.3076171875
0.0201666033333333, 238.844278381008, 0.00091351508398683, 0.4,267.183471679688
0.02083333, 238.857970237228, 0.000746846455580119, 0.41375,271.716735839844
0.02149976, 238.870848628018, 0.000877962369756484, 0.42625,271.716735839844
0.0221663733333333, 238.884028267739, 0.00112125764928746, 0.44,262.982635498047
0.0228330416666667, 238.897374206627, 0.000958260836393785, 0.45375,266.169036865234
0.02349966, 238.910926493627, 0.000775409520816038, 0.46625,269.514221191406
0.02416678, 238.92399734396, 0.000763125137827947, 0.47875,267.474884033203
0.0248332166666667, 238.937310335252, 0.000595787543052366, 0.4925,267.474884033203
0.025499785, 238.950999818818, 0.000270735870045311, 0.50625,269.595550537109
0.0261665716666667, 238.963984850474, 0.000662175708435903, 0.51875,267.534332275391
0.0268329283333333, 238.977046779476, 0.000679288348864483, 0.53125,264.297027587891
0.02749965, 238.990738578498, 0.000918173849905988, 0.54375,261.722351074219
0.0281679516666667, 239.003903905894, 0.001084275506782, 0.55875,261.722351074219
0.028833265, 239.01740877817, 0.0010033245728805, 0.5725,313.037261962891
0.0294997416666667, 239.031064502821, 0.000716673971076931, 0.585,261.229583740234
0.0301674366666667, 239.04487437602, 0.000620977277837768, 0.59875,263.251190185547
0.030832985, 239.058364362278, 0.000440594838295374, 0.6125,260.459442138672
0.0314997166666667, 239.072182153879, 0.000303422228358458, 0.62625,260.459442138672
0.0321669866666667, 239.085651066446, 0.00033853396472923, 0.64,266.134521484375
0.0328330116666667, 239.099500264868, 0.000563102684854909, 0.6525,257.858703613281
0.0334997033333333, 239.112925183902, 0.000472097755935539, 0.66625,255.803848266602
0.034166965, 239.126015399345, 0.000756786456279583, 0.67875,261.931823730469
0.0348330983333333, 239.139151100466, 0.000822804140250499, 0.6925,261.931823730469
0.035499675, 239.15266348739, 0.00105560744679534, 0.70625,253.629913330078
0.0361666316666667, 239.165495885428, 0.000919558280406499, 0.72,262.070648193359
0.036833195, 239.178760670772, 0.000935482980537666, 0.7325,263.705474853516
0.0374997683333333, 239.191909485358, 0.000855808482537136, 0.74625,255.675750732422
0.0381664316666667, 239.205460875675, 0.000681577234013953, 0.76,255.675750732422
0.0388333033333333, 239.21806776293, 0.00048446913453902, 0.7725,256.939453125
0.0394997116666667, 239.231394050142, 0.000463176204054667, 0.78625,258.102386474609
0.0401663066666667, 239.244050129184, 0.000565178580590338, 0.8,259.106292724609
0.040833025, 239.257162747888, 0.000542739707670609, 0.8125,263.269287109375
0.041500535, 239.270122488548, 0.000485024106631987, 0.82625,263.269287109375
0.0421665566666667, 239.283178476029, 0.000640468798794997, 0.84,264.653839111328
0.0428332066666667, 239.295961383214, 0.000700275294770572, 0.8525,254.177047729492
0.0434997716666667, 239.308642730924, 0.000655721532644726, 0.86625,260.631042480469
0.04416638, 239.321207217478, 0.000634265110400418, 0.87875,261.755462646484
0.0448331516666667, 239.333082676467, 0.00101364105475396, 0.89375,261.755462646484
0.0454997183333333, 239.345542129476, 0.000896675429842152, 0.90625,309.880065917969
0.04616638, 239.358209499195, 0.000563419168967759, 0.92,258.553985595703
0.04683314, 239.370865157088, 0.000621617745706738, 0.9325,257.452545166016
0.0474997916666667, 239.383093954987, 0.0003791999221217, 0.945,256.563507080078
0.04816661, 239.395552016797, -7.73321467554741E-05, 0.95875,256.563507080078
0.0488331766666667, 239.407533179281, 5.15428799373414E-05, 0.97375,259.725494384766
0.0494999016666667, 239.419970883823, -3.35868440742712E-05, 0.98625,267.32080078125
0.0501664166666667, 239.431833147027, 8.22898355932482E-05, 1.00125,269.440673828125
0.0508331366666667, 239.443785842416, 0.000264176699609667, 1.0125,267.61181640625
0.0514996933333333, 239.456258854984, 0.000429277906759925, 1.02625,267.61181640625
0.0521663733333333, 239.468085127043, 0.000271515830990054, 1.04,265.680023193359
0.052833155, 239.479827154315, 0.000554200632055041, 1.05375,272.880187988281
0.0534997616666667, 239.491635948813, 0.000350059385841748, 1.06625,267.220642089844
0.05416662, 239.5038761635, 6.7653570800783E-05, 1.08,279.621704101563
0.0548332283333333, 239.515535606824, -0.00012305135029143, 1.0925,279.621704101563
0.0554997016666667, 239.527765754887, -0.000152880352000002, 1.105,270.926086425781
0.0561664816666667, 239.53954420434, -0.000121542426107958, 1.11875,278.794525146484
0.0568330166666667, 239.551563948199, 9.78500540519154E-05, 1.1325,266.774932861328
0.0574996216666667, 239.563148244004, 0.000623018675375684, 1.145,266.548126220703
0.058166385, 239.575716992886, 0.0009331805962386, 1.15875,266.548126220703
0.0588329166666667, 239.587683286281, 0.00109169713413209, 1.17125,268.659576416016
0.0594998416666667, 239.599679464736, 0.00110914125791755, 1.185,262.539916992188
0.0601670933333333, 239.611612739637, 0.000937366885949477, 1.19875,268.706939697266
0.06083317, 239.623584844013, 0.000516365032457855, 1.21125,317.945098876953
0.06149978, 239.634993445965, 0.000177943031024716, 1.225,262.167785644531
0.06216661, 239.646706866364, 0.000107239582367859, 1.2375,262.167785644531
0.0628332233333333, 239.658159500399, 1.26063357218929E-05, 1.25125,270.271820068359
0.0634997283333333, 239.669941700569, -0.000179775501129466, 1.265,265.791625976563
0.0641663166666667, 239.681350173165, 1.64038651806016E-06, 1.2775,267.828765869141
0.0648329633333333, 239.692628253977, 0.0003107658594908, 1.29125,267.828765869141
0.0654996416666667, 239.70389818021, 0.000227146559608317, 1.30375,267.480499267578
0.0661663916666667, 239.715317886441, 0.00022919695662889, 1.3175,261.683868408203
0.06683312, 239.726394051254, 0.00035877244818806, 1.33,275.118560791016
0.06749985, 239.737487597826, 0.000525409578224811, 1.3425,278.91748046875
0.0681671866666667, 239.747951380856, 0.000445493592310341, 1.35625,278.91748046875
0.0688330766666667, 239.759233628098, 0.000290473378795961, 1.37,273.327117919922
0.0694999366666667, 239.770497046196, 0.000223195758071259, 1.3825,270.506103515625
0.0701665133333333, 239.78202733061, 0.000232942268522702, 1.39625,269.013244628906
0.07083352, 239.79356906684, 5.68481135080988E-05, 1.41,271.586975097656
0.071499795, 239.80534717429, 3.13281155435087E-06, 1.4225,271.586975097656
0.07216641, 239.816332267406, 7.28913076883773E-05, 1.43625,264.009338378906
0.0728330866666667, 239.82707339418, -0.000194597756632951, 1.45,266.456390380859
0.0734997133333333, 239.837986486356, -0.000254075769121704, 1.4625,266.089752197266
0.0741663016666667, 239.848461636863, -0.000175239728947612, 1.475,259.567291259766
0.07483308, 239.859113491398, -0.000381138886837827, 1.49125,259.567291259766
0.0754998016666667, 239.869677494751, -0.000382566815124778, 1.505,260.586090087891
0.07616651, 239.880461133524, -0.000155796205571288, 1.51625,272.653106689453
0.0768330783333333, 239.890493560453, -0.000319105002740841, 1.53,279.602661132813
0.0774997433333333, 239.901093552412, -0.000625055135199277, 1.54375,336.877868652344
0.07816637, 239.911378829124, -0.000297927566478047, 1.55625,275.721008300781
0.0788330816666667, 239.922196279728, -0.000470876379466412, 1.57,275.721008300781
0.0794997316666667, 239.93220347748, -0.000354530223439418, 1.58375,283.744445800781
0.08016661, 239.942989375555, -0.000562932755583752, 1.5975,282.726257324219
0.0808330333333333, 239.953571852838, -0.000432961283897106, 1.61,286.637268066406
0.0815006233333333, 239.964152673956, -0.000917808930483662, 1.62375,286.637268066406
0.08216627, 239.97424596094, -0.000802602717151924, 1.6375,278.992858886719
0.0828330566666667, 239.984917545336, -0.000854153627787943, 1.65125,279.652801513672
0.0834997, 239.995455840996, -0.000727963466202041, 1.66375,278.9794921875
0.0841665766666667, 240.006113041106, -0.000969308843668716, 1.67625,285.734405517578
0.0848337433333333, 240.016769473699, -0.000952646180624876, 1.69,285.734405517578
0.08549974, 240.027622508482, -0.000914336604873751, 1.70375,284.156372070313
0.086166375, 240.038491330047, -0.00104406508874331, 1.7175,286.466583251953
0.0868330716666667, 240.049117917408, -0.000881756741363268, 1.73125,289.038330078125
0.0874997883333333, 240.059849685886, -0.000750484835027711, 1.74375,288.459136962891
0.0881664583333333, 240.070429137582, -0.000542704771616999, 1.7575,288.459136962891
0.08883334, 240.081081773855, -0.000429785943404057, 1.77125,286.665008544922
0.0894996816666667, 240.091910512212, -0.000424624702639775, 1.785,287.01416015625
0.0901666816666667, 240.102355484661, -0.000374474721608939, 1.7975,291.072052001953
0.0908330966666667, 240.112609311849, -0.0003170906039272, 1.81,286.872009277344
0.0914997216666667, 240.12276728576, -0.000308355042714839, 1.82375,286.872009277344
0.0921664916666667, 240.133035275316, -0.000568054998271042, 1.8375,284.736999511719
0.0928330333333333, 240.143139500184, -0.000579047946114133, 1.85125,292.480285644531
0.0934997016666667, 240.153944110877, -0.000731723777403647, 1.865,293.887756347656
0.0941663116666667, 240.164478278596, -0.00070788847463069, 1.87625,352.242889404297
0.0948332183333333, 240.175549599272, -0.000998819861446306, 1.89125,293.236968994141
0.095499735, 240.186446499667, -0.000981180747445912, 1.905,293.236968994141
0.0961665066666667, 240.19744674507, -0.00102524703405568, 1.9175,292.926177978516
0.0968331266666667, 240.207869005022, -0.0010187943581464, 1.93125,294.452117919922
0.0974997633333333, 240.218256840091, -0.000921468746728997, 1.94375,287.587738037109
0.098166415, 240.228475591775, -0.000631846794129966, 1.95625,287.587738037109
0.0988329966666667, 240.23855495957, -0.00073115980576426, 1.97,290.725921630859
0.099499575, 240.248666206255, -0.000527531533781897, 1.98375,290.364013671875
0.100166356666667, 240.258921648283, -0.000316052656133875, 1.99625,285.952178955078
0.100833028333333, 240.269035112409, -0.000344099747332565, 2.01,287.720123291016
0.101499783333333, 240.279404673328, -2.85020994970632E-05, 2.0225,287.720123291016
0.102166348333333, 240.289506199319, 0.000183542249757258, 2.03625,286.077423095703
0.102833046666667, 240.299964003472, -5.43907990968916E-05, 2.05,286.334686279297
0.103499683333333, 240.309766714535, 6.97261866431384E-06, 2.0625,289.439331054688
0.104166663333333, 240.3200744478, 0.00016292728527321, 2.075,285.342010498047
0.104833121666667, 240.330143469341, -9.89775594958468E-05, 2.08875,285.342010498047
0.105499631666667, 240.340487879732, -0.000161363925891361, 2.10125,284.440368652344
0.106166303333333, 240.349562567713, 1.65688572900423E-06, 2.1125,289.32421875
0.106832975, 240.357975091657, -2.24529032735112E-05, 2.1275,288.335266113281
0.107499888333333, 240.365624896541, 0.000245000162798377, 2.14125,306.407379150391
0.108166501666667, 240.374533770792, 8.45262232398253E-05, 2.155,306.407379150391
0.108833148333333, 240.383247937842, 0.000161622350744818, 2.16875,310.530822753906
0.10949992, 240.392916093503, 0.000164859188180909, 2.18125,312.616180419922
0.110166455, 240.403712825293, 2.17348771916692E-05, 2.195,310.854827880859
0.110833106666667, 240.415078788854, -0.000563361733984338, 2.2075,378.850372314453
0.111499821666667, 240.424916185556, -0.000484279706186858, 2.22125,314.232604980469
0.112166845, 240.434915989778, -0.000612376272008112, 2.235,314.232604980469
0.112833165, 240.444567615212, -0.000685538097165737, 2.2475,312.364196777344
0.113499691666667, 240.454328983012, -0.000532737772193261, 2.26125,308.517059326172
0.114166566666667, 240.463894460365, -0.000366249134736195, 2.27375,315.722229003906
0.114833016666667, 240.473700486861, -8.58202203775347E-05, 2.2875,315.722229003906
0.115499786666667, 240.483573569552, 0.000217907023711445, 2.30125,311.998840332031
0.11616658, 240.493358733366, 0.000325607614011528, 2.315,306.183319091797
0.116833025, 240.503486907555, 0.000331503817818423, 2.3275,308.80615234375
0.117499821666667, 240.513853310723, -0.000125073248769595, 2.34125,309.375457763672
0.118166593333333, 240.524030344611, -0.0002225338534258, 2.355,309.375457763672
0.118833041666667, 240.534118262896, -0.00047368573832005, 2.3675,307.83544921875
0.119499673333333, 240.544342688723, -0.000490222407692762, 2.38125,302.347015380859
0.120166455, 240.554817104933, -0.000734953115090197, 2.395,309.130493164063
0.120833133333333, 240.565349555742, -0.000381473370001007, 2.4075,306.991271972656
0.12149988, 240.575413983609, -0.000302815820894666, 2.42,306.991271972656
0.122166465, 240.586167693553, -0.000352911804625729, 2.43375,304.452575683594
0.122832943333333, 240.596812578954, -0.000383354275542758, 2.4475,304.364868164063
0.123499598333333, 240.606906835424, -0.000399112484001401, 2.46,298.791168212891
0.124166463333333, 240.617225455078, -0.000341722366664557, 2.475,298.978637695313
0.124833265, 240.628070826996, -0.000462296810370736, 2.48875,298.978637695313
0.125499725, 240.638836879394, -0.000249620992878881, 2.50125,305.973937988281
0.126166521666667, 240.649487324866, -0.000336930107431001, 2.515,302.175506591797
0.126833268333333, 240.660215504658, -0.000604893147927521, 2.52875,298.919677734375
0.127499695, 240.670486907476, -0.000617495514931611, 2.54125,374.048522949219
0.128166366666667, 240.680627795675, -0.000528816969144268, 2.55625,374.048522949219
0.12883327, 240.691071089004, -0.000857978435696381, 2.56875,304.331451416016
0.12949974, 240.701396190542, -0.000938191406642697, 2.5825,302.207794189453
0.130166318333333, 240.7114855645, -0.00058413119072443, 2.595,306.952056884766
0.130833558333333, 240.721843967336, -0.000598489969502292, 2.60875,309.700958251953
0.131499671666667, 240.732451786317, -0.000672400257064667, 2.62125,309.700958251953
0.132166686666667, 240.742445091427, -0.000707850976414338, 2.635,314.980895996094
0.132833045, 240.752818829881, -0.000333418783765351, 2.64875,313.342163085938
0.1334997, 240.762862343794, -9.35763308270433E-05, 2.6625,304.838256835938
0.134166528333333, 240.773693757231, -6.24723931631612E-05, 2.675,311.38037109375
0.134833185, 240.783803083354, 4.16253781039269E-05, 2.68875,311.38037109375
0.135499836666667, 240.794118038648, 0.000583114679665085, 2.7025,320.079406738281
0.136166501666667, 240.804174846876, 0.000768157385178565, 2.715,309.694152832031
0.136833381666667, 240.814336969452, 0.000792565659201091, 2.72875,317.249969482422
0.137499783333333, 240.823746613916, 0.00090348958763889, 2.74125,317.997344970703
0.138166428333333, 240.834163634256, 0.000681553235287264, 2.755,317.997344970703
0.138833138333333, 240.844120290472, 0.000407092521170617, 2.7675,312.049560546875
0.139499653333333, 240.854466668495, 0.00018395172928938, 2.78125,321.109924316406
0.140166353333333, 240.864769495095, -0.000240636444130563, 2.795,318.977966308594
0.14083302, 240.874746496934, -0.000338497528687455, 2.80625,312.512298583984
0.141499788333333, 240.884554862958, -0.000570283886295603, 2.82,312.512298583984
0.142166955, 240.894392965912, -0.000698087966836967, 2.83375,320.407836914063
0.142833193333333, 240.90368650723, -0.000701741783342181, 2.8475,313.666656494141
0.143499765, 240.913301833032, -0.000510006414014897, 2.86125,380.920654296875
0.14416652, 240.922977749615, -0.000323834265255731, 2.8725,315.473114013672
0.144833038333333, 240.932506248465, 0.000297106045591126, 2.88625,314.440948486328
0.145500276666667, 240.941301092939, 0.000458388444551812, 2.9,314.440948486328
0.146166421666667, 240.95114429713, 0.000183197267123254, 2.9125,316.217956542969
0.146833053333333, 240.961087979214, -7.11494573237946E-05, 2.92625,310.486145019531
0.147499703333333, 240.970876309422, -0.000281003916566785, 2.93875,312.320709228516
0.148166366666667, 240.980142451293, -0.000625709102387876, 2.9525,312.320709228516
0.148833056666667, 240.990500654154, -0.000828959393335601, 2.96625,312.255249023438
0.149499846666667, 240.999682590892, -0.000486331603174343, 2.97875,307.913757324219
0.150166353333333, 241.009377652572, -0.000258232060387025, 2.9925,312.086761474609
0.150833138333333, 241.018818254055, -0.000167462619598966, 3.005,312.54248046875
0.151499665, 241.028741221973, 0.00028204830191382, 3.01875,312.54248046875
0.152166473333333, 241.038322815123, 0.000700027807201526, 3.03125,309.018402099609
0.152833463333333, 241.048834759424, 0.000371623802579329, 3.04625,306.602600097656
0.153499865, 241.058813662081, 0.000527492973412223, 3.05875,307.241607666016
0.154166421666667, 241.068979758343, 0.000608206919236751, 3.07125,310.863922119141
0.154833298333333, 241.078744330022, 0.000340212380349016, 3.085,310.863922119141
0.155499708333333, 241.090681039746, 0.000415747086337677, 3.09875,307.828399658203
0.156166541666667, 241.102935395054, 0.000746429476510997, 3.11125,310.099182128906
0.156833896666667, 241.115059887836, 0.000553255679383432, 3.12625,310.4638671875
0.157499713333333, 241.126890054554, 0.000662348199784786, 3.1375,308.261505126953
0.158166561666667, 241.139402348824, 0.000295382632090463, 3.15125,308.261505126953
0.158833143333333, 241.149385226361, 0.000258433488006888, 3.165,312.2490234375
0.159499916666667, 241.158705202637, 0.000302444277392484, 3.17875,310.169586181641
0.160166523333333, 241.168387568553, 0.000320407375148998, 3.1925,373.622100830078
