Time (min), Depth (µm), Load (N), Position (µm), Acoustic (aJ)
8.93666666666667E-06, 223.221986152071, 2.67625411766296E-05, 0,47810.58203125
0.000664958333333333, 223.222182790792, -0.000152760441555173, 0.0025,41634.6328125
0.001329825, 223.222519021547, -0.000378311612356274, 0.00875,41021.65625
0.001996625, 223.222471137459, -0.000534602262074008, 0.015,38646.5859375
0.00266310333333333, 223.22158550293, -0.00042696616854452, 0.0225,38646.5859375
0.00333023666666667, 223.220884052942, -0.000384255813850343, 0.03,43318.41015625
0.00399767166666667, 223.221456856109, -0.00032378635113975, 0.0375,43803.93359375
0.00466317666666667, 223.222551178226, 1.31432252145895E-05, 0.04375,53062.48046875
0.00533039833333333, 223.224349961788, 0.000410225780187927, 0.05,38653.0703125
0.00599739333333333, 223.228248374867, 0.000365709516214671, 0.0575,38653.0703125
0.00666391166666667, 223.232649532813, 0.00038132973160696, 0.065,38508.5625
0.00732975333333333, 223.236245854758, 0.000502238658497573, 0.07125,47634.44921875
0.00799645166666667, 223.239920509687, 0.000232987182726114, 0.0775,44665.91015625
0.00866339833333333, 223.243538283641, -0.000105466317076985, 0.085,44665.91015625
0.00932982833333333, 223.24790775233, -0.000371665446198971, 0.09125,44937.99609375
0.009996705, 223.25110225186, -0.000593451806110271, 0.0975,39101.33984375
0.0106630883333333, 223.25611513302, -0.000855359650749389, 0.105,42838.5859375
0.0113302783333333, 223.261173642375, -0.000674285745929568, 0.11,43739.2109375
0.0119980183333333, 223.26701523786, -0.000541315924871965, 0.11625,45577.67578125
0.012663135, 223.271965330032, -0.000645608686353985, 0.125,45577.67578125
0.0133305266666667, 223.278017986191, -0.000641891873023835, 0.13,45305.41796875
0.01399848, 223.283083021061, -0.000262919408398531, 0.1375,43074.6328125
0.0146636383333333, 223.28857941863, -0.000262902909230095, 0.14375,37622.4453125
0.0153302783333333, 223.294222456075, -0.000309706558322148, 0.15,42915.72265625
0.0159968583333333, 223.299711976366, -7.6996247132814E-05, 0.15625,42915.72265625
0.0166631116666667, 223.30438777265, 0.00019514408350691, 0.16375,37051.54296875
0.0173297816666667, 223.309752345807, 0.000164859104673478, 0.17,46956.4765625
0.01799653, 223.315777867874, -0.0001454408092983, 0.1775,40932.96484375
0.01866309, 223.321002690367, -0.000140146075283382, 0.1825,46176.68359375
0.0193312316666667, 223.326572955984, -0.000494522775314498, 0.19,46176.68359375
0.0199965116666667, 223.332155034909, -0.000781915839867714, 0.19625,41573.06640625
0.0206640916666667, 223.33805833975, -0.00088628059772109, 0.2025,42904.734375
0.0213303266666667, 223.342688663352, -0.00075407423831227, 0.21,49053.3359375
0.0219969716666667, 223.347460860877, -0.000724143241680514, 0.21625,46524.94140625
0.0226631883333333, 223.351971112073, -0.00046261787782799, 0.2225,46524.94140625
0.02332977, 223.357341578751, -0.000953817705346301, 0.22875,43058.79296875
0.0239964316666667, 223.361631808945, -0.000914531678617369, 0.235,45371.29296875
0.02466309, 223.366441820593, -0.000925121146710968, 0.2425,39031.63671875
0.0253298166666667, 223.371589958151, -0.000903097752957212, 0.24875,47971.65625
0.0259990083333333, 223.376666135393, -0.00112775046889198, 0.255,47971.65625
0.0266646783333333, 223.381238920883, -0.000760715904653855, 0.2625,43386.46484375
0.0273313783333333, 223.386225499698, -0.000649977966948331, 0.26875,43486.10546875
0.027996715, 223.39142337022, -0.000805751142661925, 0.275,36516.0546875
0.0286631533333333, 223.396150179695, -0.000972440769989028, 0.28125,38086.17578125
0.0293305566666667, 223.401148691221, -0.000888076007550601, 0.28875,38086.17578125
0.02999708, 223.405964023725, -0.000703946756168738, 0.295,42677.69140625
0.0306639083333333, 223.41043464575, -0.000774197227570795, 0.30125,39187.54296875
0.0313305866666667, 223.41548104861, -0.000345322269504956, 0.3075,43167.14453125
0.0319968833333333, 223.419695261477, 2.31012249643837E-05, 0.31375,38520.89453125
0.0326631416666667, 223.424301270822, 0.000161959750270628, 0.32125,38520.89453125
0.0333298383333333, 223.429096150795, 0.000259634844180261, 0.3275,37241.06640625
0.0339986983333333, 223.43418842255, 0.000271638741219927, 0.33375,44261.83984375
0.0346637133333333, 223.438698488945, -0.000105227829203138, 0.34125,44607.90625
0.0353298433333333, 223.443511956167, -0.00054773110269242, 0.3475,42895.9609375
0.0359966116666667, 223.448168826783, -0.00040957454215568, 0.35375,42895.9609375
0.0366638066666667, 223.453403554929, -0.000480303489506139, 0.36125,42577.84765625
0.0373297683333333, 223.458315375637, -0.000486286688970931, 0.3675,38175.00390625
0.03799669, 223.462748488095, -1.08206027012903E-06, 0.3725,52830.66015625
0.0386636866666667, 223.46736823192, -0.00015538380984657, 0.38,42248.43359375
0.0393311216666667, 223.472744319832, -0.000105055337769239, 0.3875,42248.43359375
0.0399964383333333, 223.477961533649, -0.000411222959266147, 0.39375,47603.859375
0.0406631383333333, 223.482663316069, -0.000615689689096201, 0.4,39946.34765625
0.041329755, 223.487898318962, -0.000914278191286948, 0.4075,43035.61328125
0.0419964283333333, 223.492929364618, -0.000544836247977764, 0.41375,36735.46484375
0.0426637966666667, 223.497272149148, -0.000773141280429582, 0.41875,36735.46484375
0.0433298266666667, 223.501580362866, -0.0011578779555568, 0.42625,39829.65234375
0.04399644, 223.505817103702, -0.00150974678153934, 0.43375,38395.828125
0.0446633, 223.510103379715, -0.00160701539587192, 0.44,45990.640625
0.04532978, 223.515104898516, -0.00191746530232654, 0.44625,46765.328125
0.04599756, 223.519480118863, -0.00198690281455325, 0.45375,46765.328125
0.0466631816666667, 223.524403792052, -0.00183461396384479, 0.46,44548.95703125
0.0473307283333333, 223.529765444234, -0.0019556398848176, 0.46625,46125.15234375
0.047996435, 223.534917041733, -0.00217579282673495, 0.4725,49069.4453125
0.048663095, 223.539212606321, -0.00195809376150265, 0.48,42784.10546875
0.0493311966666667, 223.544396929345, -0.00181941672711297, 0.48625,42784.10546875
0.049996485, 223.54840174876, -0.00153881532146919, 0.4925,49587.78125
0.0506631216666667, 223.55223409986, -0.000966550565730967, 0.49875,43512.234375
0.0513298666666667, 223.557248250211, -0.000982824748311855, 0.50625,40126.59375
0.0519980816666667, 223.562198562449, -0.00111726449556095, 0.5125,46638.5078125
0.0526630833333333, 223.566761271419, -0.00132525304850623, 0.51875,46638.5078125
0.0533306833333333, 223.57122057142, -0.00138328663356085, 0.52625,37504.125
0.053997, 223.576282420205, -0.00172198312118104, 0.53375,47004.515625
0.0546630733333333, 223.58004609992, -0.00128398412146114, 0.53875,45467.3828125
0.05533056, 223.58381041136, -0.00102033036449782, 0.545,43383.53125
0.0559976266666667, 223.587902184477, -0.000757594561481831, 0.5525,43383.53125
0.05666372, 223.592678039568, -0.000736765107701847, 0.55875,43738.328125
0.05732977, 223.596424576654, -0.000597018627042604, 0.565,41281.55078125
0.0579967116666667, 223.601261860807, -0.000719772461204273, 0.57125,45377.125
0.0586630883333333, 223.605534751821, -0.000593796788829291, 0.57875,46103.5234375
0.0593303166666667, 223.61026689341, -0.000750234431138545, 0.585,46103.5234375
0.0599966033333333, 223.614093978155, -0.000597326111545272, 0.59125,43445
0.060663095, 223.618372686072, -0.000291620466849583, 0.59875,38679.984375
0.0613300483333333, 223.622619251345, -0.000279099095784523, 0.60625,39699.5859375
0.06199665, 223.627318174288, -0.000325910244498591, 0.61125,50216.6328125
0.0626631416666667, 223.630906334124, -0.000458188600257513, 0.61875,50216.6328125
0.0633299, 223.635521421841, -0.000358671598904376, 0.625,40800.39453125
0.0639969816666667, 223.639670927222, -0.00057740711200559, 0.63125,40829.6640625
0.0646636116666667, 223.643430310109, -0.000275271287984769, 0.6375,40176.453125
0.065329775, 223.648164931817, -0.000329507063812718, 0.645,41242.58203125
0.0659964483333333, 223.653360579252, -6.8719662894121E-05, 0.65125,41242.58203125
0.0666632883333333, 223.65781032813, 2.2411259696377E-05, 0.6575,39592.28125
0.0673309966666667, 223.663244059778, -0.000179663090327907, 0.665,38093.52734375
0.0679966866666667, 223.668596042625, -0.000748790003661904, 0.67125,43920.58203125
0.0686635316666667, 223.673282148789, -0.00101720152164001, 0.6775,45475.34765625
0.0693297866666667, 223.677435338388, -0.00103086283546409, 0.685,45475.34765625
0.06999666, 223.682192242344, -0.00131876887422698, 0.69125,41303.51171875
0.0706631333333333, 223.685774057438, -0.00116042182785483, 0.6975,53062.69140625
0.071329885, 223.689738096268, -0.00098036337200479, 0.705,39216.96875
0.0719971283333333, 223.693863250116, -0.000946010597467082, 0.71,42692.84765625
0.07266358, 223.698279415669, -0.000957314029704156, 0.71875,42692.84765625
0.07333138, 223.702471355131, -0.000865074662788364, 0.725,40144.21875
0.073997465, 223.707444588011, -0.000815625146581374, 0.73,40838.72265625
0.0746635066666667, 223.711925619334, -0.000876189104529373, 0.7375,47394.18359375
0.0753297816666667, 223.716511689312, -0.000778798996362629, 0.745,35114.89453125
0.0759965316666667, 223.719465641978, -0.000599919481263586, 0.75125,35114.89453125
0.0766635783333333, 223.72343052735, -0.000486000203324892, 0.75625,40830.9765625
0.0773306133333333, 223.727301994962, -0.000227941165363411, 0.76375,45795.9453125
0.0779982083333333, 223.730553523037, 3.33457104877413E-05, 0.77125,45032.04296875
0.0786631416666667, 223.734316984374, -0.000224132856602154, 0.77625,43284.02734375
0.0793298, 223.73907284023, -0.000189079617283109, 0.78375,43284.02734375
0.0799965, 223.742608201058, -0.000377837636138574, 0.79125,39778.484375
0.08066331, 223.746862096876, -0.000760286926125744, 0.79625,42424.390625
0.0813300266666667, 223.750796174086, -0.000756330124891073, 0.80375,50391.84375
0.0819964583333333, 223.75429668995, -0.000520291480855795, 0.81125,43895.75
0.082663105, 223.758373671726, -0.000762520313987277, 0.81625,43895.75
0.083329765, 223.762564198065, -0.000708779513339928, 0.8225,39879.25390625
0.0839978816666667, 223.766335795914, -0.000639259505249782, 0.83,40876.921875
0.0846631583333333, 223.770229782543, -0.000904249695047692, 0.83625,46928.74609375
0.0853297666666667, 223.774287480262, -0.0010803948474495, 0.84375,40346.6875
0.0859964533333333, 223.778197430126, -0.00126001682521317, 0.85,40346.6875
0.0866631516666667, 223.782252525526, -0.00131180622389307, 0.85625,47256.484375
0.0873304133333333, 223.785736598463, -0.0014312512242898, 0.86375,45153.53125
0.08799648, 223.789909828123, -0.0016823536117, 0.87,39699.69921875
0.088663665, 223.793809915881, -0.00139250367052791, 0.87625,41727.296875
0.0893304483333333, 223.797442650652, -0.0013037726274077, 0.88375,41727.296875
0.0899981433333333, 223.801606604192, -0.00103104582622004, 0.89,40259.08203125
0.0906637133333333, 223.80539706195, -0.00124787943485911, 0.89625,43019.60546875
0.0913297483333333, 223.80904843796, -0.001088945917939, 0.9025,36945.765625
0.0919967983333333, 223.812892978138, -0.0011945196150952, 0.91,43810.06640625
0.0926645183333333, 223.81690224346, -0.00116402164697525, 0.91625,43810.06640625
0.0933298066666667, 223.820543059432, -0.0014848765307581, 0.9225,42985.1328125
0.0939969983333333, 223.824184731168, -0.000872140807842341, 0.93,43769.00390625
0.0946637283333333, 223.827975009246, -0.000744291729568878, 0.93625,39615.01953125
0.0953298283333333, 223.831898011287, -0.000529204033232757, 0.94125,38843.63671875
0.095996865, 223.835604202109, -0.000320933494457164, 0.95,38843.63671875
0.0966646683333333, 223.838746173048, 5.63010260342516E-06, 0.95625,39972.91796875
0.0973314766666667, 223.843341205963, -0.000308269630531286, 0.96125,44111
0.0979969533333333, 223.846748413934, -0.000388437603766757, 0.96875,41364.95703125
0.0986630883333333, 223.85014417392, -0.000209511591011213, 0.975,48438.16796875
0.0993312766666667, 223.853327355681, -7.19849988088575E-05, 0.9825,48438.16796875
0.0999967983333333, 223.857675795741, 1.18142920445245E-05, 0.9875,36733.36328125
0.100663083333333, 223.859991463757, 0.000360827261495665, 0.995,48067.84375
0.10133052, 223.864107385602, 0.000656903389885873, 1.0025,37761.61328125
0.101996436666667, 223.867308387237, 0.000341857714273278, 1.00875,38114.203125
0.10266365, 223.871039679432, 0.000130380336549659, 1.015,38114.203125
0.1033299, 223.874069436528, -0.00026226994102565, 1.0225,39805.7578125
0.103996921666667, 223.878531842232, -0.000657003613979658, 1.02875,50284.70703125
0.104663758333333, 223.882284149364, -0.000693040803856019, 1.035,46540.45703125
0.10533039, 223.8861217085, -0.000660787923865446, 1.04125,38254.4375
0.105996926666667, 223.890319891519, -0.000441524437246762, 1.0475,38254.4375
0.106663686666667, 223.894532549429, -0.000323909344919563, 1.055,39723.58984375
0.10732994, 223.898567413283, 9.00908602886766E-05, 1.06125,47731.6796875
0.107997941666667, 223.90186562859, -0.000189138114292328, 1.0675,40463.54296875
0.108664623333333, 223.906425943034, -5.51903423537681E-05, 1.07375,43884.80859375
0.109329836666667, 223.909874031685, -6.63617812221012E-05, 1.08125,43884.80859375
0.109996991666667, 223.913636916415, -1.83626921681115E-05, 1.08625,41242.38671875
0.110663095, 223.918016800762, -0.000158565149930961, 1.09375,40534.9921875
0.111330805, 223.92303398242, 0.000126486532224941, 1.10125,44074.046875
0.111996606666667, 223.927389792527, -5.40039019595043E-05, 1.1075,42571.8046875
0.112663121666667, 223.932434480299, -0.000296696211795355, 1.11375,42571.8046875
0.11333035, 223.936974812031, -0.000151446507544124, 1.12,46130.65625
0.113996931666667, 223.941507533426, -0.000265154296141959, 1.1275,40158.90625
0.114663421666667, 223.945977129408, -0.000193919874182586, 1.1325,41328.0234375
0.11532975, 223.950991632066, -0.000137329216637694, 1.14,40208.5
0.115996425, 223.956268940605, -0.000158550150708183, 1.1475,40208.5
0.116665413333333, 223.961568224345, -0.000282424428675389, 1.1525,44002.22265625
0.117330183333333, 223.965684484634, -5.57528141112603E-05, 1.16,43176.30078125
0.117997935, 223.970631051513, -5.22909880146806E-05, 1.1675,42062.81640625
0.118663781666667, 223.975177134143, -5.8253188516573E-05, 1.1725,39136.5390625
0.119331391666667, 223.980078903597, -0.000217836172852065, 1.18,39136.5390625
0.119998101666667, 223.98485482252, -0.000108587660291517, 1.18625,48290.40625
0.120663071666667, 223.990399972273, -0.000274419330732432, 1.1925,52291.484375
0.121331053333333, 223.994805567972, -0.000276856708334062, 1.19875,44747.875
0.121997041666667, 223.999782585403, -0.000481512428702689, 1.205,41528.73046875
0.122663666666667, 224.00410025184, -0.000422629886287046, 1.2125,41528.73046875
0.123329966666667, 224.008773281242, -0.000439730527299146, 1.21875,44843.9296875
0.123997151666667, 224.012902396243, -0.000313030391352373, 1.22625,36035.98046875
0.124663453333333, 224.01891116037, -0.000474956257967074, 1.23125,42177.3125
0.125329901666667, 224.023449705825, -0.000408847078565051, 1.23875,37183.61328125
0.125997763333333, 224.02906597501, -0.000374377309945143, 1.245,37183.61328125
0.126663441666667, 224.033536707468, -0.000532772353940714, 1.25125,43601.4375
0.12732982, 224.038958529285, -0.000540559962760182, 1.2575,42956.22265625
0.127996821666667, 224.042653341637, -0.00084230430644799, 1.265,42912.46875
0.128663245, 224.046990657945, -0.000791482359156971, 1.27125,40495.29296875
0.129329806666667, 224.050990101208, -0.000916735067863312, 1.27875,40495.29296875
0.129996555, 224.055389438725, -0.00132509855618642, 1.285,48253.50390625
0.130663626666667, 224.059802340809, -0.00131024630221612, 1.29125,39482.859375
0.131330303333333, 224.064840951268, -0.000768815497727947, 1.2975,43566.015625
0.131997081666667, 224.069177237109, -0.000579001531880048, 1.305,40041.93359375
0.132663085, 224.073865141203, -0.000553907792298962, 1.31125,40041.93359375
0.133330303333333, 224.079377954328, -0.000114494363590489, 1.3175,45670.19140625
0.133996986666667, 224.083702571366, -0.000489091547966343, 1.32375,41064.5546875
0.134663603333333, 224.088810675861, -0.000674182251018219, 1.33125,37543.48046875
0.135329991666667, 224.094363182773, -0.000861558839285742, 1.33875,40572.37890625
0.13599712, 224.099765608599, -0.000774641205087889, 1.34375,40572.37890625
0.136663161666667, 224.104731194726, -0.000843837229443169, 1.35125,49296.3125
0.137330168333333, 224.109917848836, -0.000610264461530675, 1.3575,41764.1015625
0.137996858333333, 224.114878114941, -0.000524314278700448, 1.365,37102.53515625
0.138663163333333, 224.119764809088, -0.000519949497985582, 1.37,42728.75390625
0.139330351666667, 224.123878898265, -0.000388566597180421, 1.3775,42728.75390625
0.139999201666667, 224.128281741456, -0.000329316573264726, 1.38375,37562.83984375
0.140664073333333, 224.133724776173, -0.000534321776083074, 1.39125,47995.8125
0.141330215, 224.138515836387, -0.000829845932229121, 1.3975,44527.34375
0.141996466666667, 224.143770302217, -0.000955902600521879, 1.405,43256.37109375
0.142665036666667, 224.149452600945, -0.00107768148369391, 1.41,43256.37109375
0.143330995, 224.155253948155, -0.00124631351348455, 1.41625,37370.0546875
0.143996458333333, 224.159927700756, -0.00106717001164802, 1.42375,47416.30859375
0.144663951666667, 224.164971577572, -0.000862482792888182, 1.43,44689.78515625
0.145330465, 224.170204738088, -0.000954417675065096, 1.43625,39327.1171875
0.145997395, 224.175524185394, -0.000978437468603416, 1.44375,39327.1171875
0.146663765, 224.181307000463, -0.00081254880099267, 1.45125,38603.72265625
0.147330356666667, 224.18669174486, -0.000837255560013952, 1.45625,41066.375
0.147996443333333, 224.19214055374, -0.00102383268842576, 1.4625,35902.40625
0.148664561666667, 224.197455794315, -0.000960531368016734, 1.47,42499.66015625
0.14933033, 224.20271097053, -0.00105825745933482, 1.47625,42499.66015625
0.1499969, 224.207352322526, -0.000997198526269988, 1.48375,45406.76171875
0.150664, 224.212438929559, -0.000892448287759958, 1.49,40717.41015625
0.151330511666667, 224.217316943988, -0.000768469015105778, 1.4975,45410.703125
0.15199675, 224.222865105784, -0.000822095821477225, 1.5025,45412.94921875
0.152664833333333, 224.2276135995, -0.000662508337368524, 1.51,45412.94921875
0.153329893333333, 224.232374788677, -0.000865850123704848, 1.51625,51610.43359375
0.1539985, 224.237573109064, -0.000918653471451382, 1.52375,44773.3984375
0.154663143333333, 224.242963133092, -0.00124512407317771, 1.53,44071.38671875
0.155330328333333, 224.247375866375, -0.00116925338410147, 1.535,37851.83984375
0.155996491666667, 224.252504800084, -0.00134442958516874, 1.5425,37851.83984375
0.156663666666667, 224.257920263214, -0.00105809846730557, 1.55,48708.76171875
0.157330305, 224.263038615314, -0.00129396461999196, 1.555,43281.13671875
0.157996618333333, 224.267312123102, -0.00100344721241792, 1.5625,44173.1171875
0.158663063333333, 224.272800435985, -0.000670174452353837, 1.57,43173.296875
0.159331243333333, 224.277332093242, -0.000496375182080046, 1.57625,43173.296875
0.159998795, 224.282715997708, -0.000608973026449437, 1.5825,43859.97265625
0.160663163333333, 224.288086087241, -0.0003343608199043, 1.58875,44849.5859375
0.161330331666667, 224.294679762714, -0.000584143273584579, 1.59625,45762.9375
0.16199852, 224.300462686183, -0.00114369166806406, 1.6025,40988.625
0.162665263333333, 224.306888881315, -0.00124786143576627, 1.60875,40988.625
0.163329966666667, 224.311806335964, -0.00120201173872221, 1.615,45837.50390625
0.163997851666667, 224.317194560703, -0.00141933732269308, 1.6225,42437.9765625
0.164664836666667, 224.322564566894, -0.0014636315978334, 1.62875,44538.3515625
0.16532973, 224.327975870302, -0.00112875841817599, 1.635,38534.8359375
