Time (min), Depth (µm), Load (N), Position (µm), Acoustic (aJ)
7.64166666666667E-06, 223.53653285596, -0.000263079137074281, 0,309.322540283203
0.000667461666666667, 223.536081827597, -0.000301514706539042, 0.00249999999999998,309.322540283203
0.00133299166666667, 223.536656685354, -0.000242099690853971, 0.00749999999999999,316.223999023438
0.00199990833333333, 223.536328950024, -0.000232477674149253, 0.01375,335.537963867188
0.002666285, 223.536988670606, -0.000233467624425436, 0.02125,350.171539306641
0.00333297, 223.537317365564, 0.000106902779147601, 0.02875,464.647979736328
0.00399975166666667, 223.538064416587, 3.70512877430804E-05, 0.03625,464.647979736328
0.00466679166666667, 223.538961876174, -0.000329702790567876, 0.0425,397.778564453125
0.005333055, 223.540483442505, -0.000368091862333627, 0.05,417.891723632813
0.00599967166666667, 223.541668859069, -0.000469231782188646, 0.05625,427.530151367188
0.00666634666666667, 223.543506795762, -0.000996258810145609, 0.06375,429.486175537109
0.00733297, 223.545136343524, -0.00106813819974716, 0.0725,429.486175537109
0.00816664, 223.548519540949, -0.00119419186823362, 0.07875,441.268127441406
0.00883298, 223.551033759769, -0.0012743823403564, 0.085,442.538970947266
0.00950004333333333, 223.554337581499, -0.00115288694296035, 0.0925,450.226013183594
0.0101666266666667, 223.557555397569, -0.00126442734039165, 0.09875,448.365631103516
0.0108330383333333, 223.560866143527, -0.00131063401948619, 0.1075,450.579772949219
0.01166634, 223.564053836472, -0.00158549521348226, 0.11375,453.618804931641
0.0123329483333333, 223.567368713751, -0.00144620770973293, 0.12,453.618804931641
0.012999655, 223.570789976722, -0.00177430122991863, 0.1275,460.820617675781
0.013666335, 223.574674782546, -0.00155413928841236, 0.13375,456.569122314453
0.01433299, 223.578532944635, -0.00135358586200929, 0.14,458.315856933594
0.0149997583333333, 223.582517916587, -0.00115567380292668, 0.14625,457.289703369141
0.015666635, 223.586254467818, -0.00127011505468523, 0.1525,457.289703369141
0.01633302, 223.590480989509, -0.00105786221589635, 0.16,454.305084228516
0.0169996216666667, 223.594169897553, -0.00118444235793337, 0.16625,463.356109619141
0.01766656, 223.597587755235, -0.00124368788207586, 0.1725,456.989776611328
0.0183330516666667, 223.600713225564, -0.000907811252801383, 0.18,448.984436035156
0.018999655, 223.603972591132, -0.000844617926928138, 0.18625,448.984436035156
0.01966629, 223.606762014872, -0.000621070655512364, 0.19375,457.089080810547
0.0203329716666667, 223.609132876963, -0.000149110361566517, 0.2,551.538696289063
0.0209996383333333, 223.612295075433, 5.21838669169038E-06, 0.20625,455.511352539063
0.0216664616666667, 223.616430757343, -0.000142194208889103, 0.21375,457.848236083984
0.0223330083333333, 223.620549781418, -9.60655258847876E-05, 0.21875,457.848236083984
0.02299992, 223.625403157567, -0.000151162258405223, 0.22625,454.662292480469
0.0236667666666667, 223.630690229923, -0.000466506419016574, 0.2325,464.66650390625
0.0243329766666667, 223.635852099272, -0.000435619970433673, 0.23875,457.501525878906
0.024999815, 223.64092353431, -0.000669383228787888, 0.24625,462.20361328125
0.02566636, 223.646146038675, -0.000532762591095133, 0.25375,462.20361328125
0.02633297, 223.650928403114, -0.000585367948756675, 0.25875,458.380096435547
0.0269998533333333, 223.656535151937, -0.000614818969494372, 0.26625,453.199432373047
0.0276663433333333, 223.662042698161, -0.000695801401808337, 0.2725,446.355041503906
0.0283330883333333, 223.667385691753, -0.000353871076600864, 0.27875,450.4033203125
0.0289996166666667, 223.673435539288, -0.000758279263613704, 0.28625,450.4033203125
0.029666595, 223.679025853476, -0.00080403596530225, 0.29125,448.192626953125
0.03033303, 223.684842570395, -0.000921759052186483, 0.29875,447.525848388672
0.0309996616666667, 223.690137002031, -0.000881958551344725, 0.3075,452.497406005859
0.031666335, 223.696017446693, -0.00129377036648729, 0.31125,449.166625976563
0.0323330166666667, 223.701402776865, -0.000993318957847633, 0.31875,449.166625976563
0.03299968, 223.706778033103, -0.00113463285978458, 0.325,436.861724853516
0.03366629, 223.712461632185, -0.00119560629715843, 0.33125,436.269470214844
0.034333005, 223.718130772936, -0.00147102396321439, 0.33875,436.491882324219
0.034999655, 223.723062946875, -0.00136328437483732, 0.34625,433.806488037109
0.0356668183333333, 223.728388419817, -0.00175093090375319, 0.3525,433.806488037109
0.0363329466666667, 223.734072311512, -0.00191987041811027, 0.35875,438.034301757813
0.0369996483333333, 223.739004509304, -0.0018946731837241, 0.365,508.269958496094
0.0376663333333333, 223.744476520961, -0.00191053638695473, 0.3725,412.937133789063
0.0383329616666667, 223.750024095001, -0.0019939441974751, 0.37875,418.659851074219
0.0389998233333333, 223.755847590787, -0.00207823546363902, 0.385,418.659851074219
0.0396666466666667, 223.761354316598, -0.0018207253980729, 0.39125,413.986907958984
0.0403330433333333, 223.766693011275, -0.00169510220799644, 0.39875,407.061492919922
0.0409996283333333, 223.772634442475, -0.00158290484350648, 0.405,405.70703125
0.0416665166666667, 223.77829509506, -0.00144356484244554, 0.41125,396.513336181641
0.0423331033333333, 223.783881240859, -0.0012851832977696, 0.4175,396.513336181641
0.0429997283333333, 223.789382219209, -0.0011272502305965, 0.425,394.974792480469
0.0436667833333333, 223.795588270368, -0.000931397568038383, 0.43125,389.74755859375
0.0443329483333333, 223.800568800309, -0.000928741201495132, 0.4375,381.057922363281
0.04499964, 223.806187374653, -0.00118619127006387, 0.445,378.525451660156
0.0456664666666667, 223.811576148895, -0.00109542182931832, 0.45125,378.525451660156
0.04633301, 223.817200013252, -0.00114719772867859, 0.4575,378.537475585938
0.04699965, 223.822440485028, -0.001339734057786, 0.46375,369.263549804688
0.04766651, 223.828474732883, -0.0013119089554415, 0.47,378.873840332031
0.0483329766666667, 223.834173705785, -0.000893738959648306, 0.4775,367.872833251953
0.0490002633333333, 223.839477117969, -0.000898153237910987, 0.48375,367.872833251953
0.049666325, 223.845247231286, -0.00087796425193621, 0.49,366.449249267578
0.05033297, 223.85057459476, -0.000663872505531377, 0.4975,360.904571533203
0.0509998933333333, 223.85575828034, -0.000653748014024042, 0.50375,361.369201660156
0.0516664483333333, 223.861172864071, -0.000779977173665683, 0.51,360.906066894531
0.052333175, 223.867018048747, -0.000637427333807907, 0.5175,360.906066894531
0.0529996433333333, 223.87202180952, -0.000772701039173996, 0.52375,359.431396484375
0.05366633, 223.877447376241, -0.0010209265710899, 0.53,421.596832275391
0.0543330383333333, 223.882836590542, -0.000834079456200488, 0.53625,354.078643798828
0.0549996333333333, 223.888187291964, -0.000643104548715688, 0.54375,354.980621337891
0.0556670716666667, 223.893121402693, -0.000804346449674978, 0.55,354.980621337891
0.05633315, 223.898765207677, -0.000827863768410682, 0.55625,342.611572265625
0.0569996733333333, 223.904481258888, -0.000463538068112429, 0.56375,345.653167724609
0.0576663466666667, 223.910114178568, -0.000737437810395986, 0.56875,341.561187744141
0.0583329666666667, 223.915866438439, -0.00071839026710463, 0.575,344.404113769531
0.0589997433333333, 223.921272791726, -0.000315327512557815, 0.58375,344.404113769531
0.0596667183333333, 223.927140548555, -0.000138555391627923, 0.58875,339.431274414063
0.0603330483333333, 223.932201521748, -0.000328726339526305, 0.59625,343.075469970703
0.0609996383333333, 223.938086949713, -0.000305110025737478, 0.60125,350.143127441406
0.0616663316666667, 223.943421506712, -0.000672368078732945, 0.60875,332.518829345703
0.0623329783333333, 223.949487604263, -0.000960230619645635, 0.615,332.518829345703
0.0629997016666667, 223.954370805738, -0.000969534652334354, 0.62125,344.103302001953
0.06366636, 223.960132209019, -0.000720137679289474, 0.62875,343.035125732422
0.0643331233333333, 223.965076899809, -0.000507203874757751, 0.635,340.981842041016
0.0649996366666667, 223.970360236523, -2.19707475145412E-05, 0.6425,345.371734619141
0.0656665733333333, 223.975979257129, -0.000203502129447388, 0.64875,345.371734619141
0.06633302, 223.98174301792, -0.000197391436365811, 0.655,341.069793701172
0.06699964, 223.986728619728, -0.000166441990936719, 0.66125,339.740142822266
0.0676665916666667, 223.992586870018, -0.000250989744173597, 0.6675,344.352752685547
0.068332985, 223.998594436674, -0.000699260228013602, 0.675,346.857818603516
0.0689996466666667, 224.003623887768, -0.000629708721447225, 0.68125,346.857818603516
0.069666475, 224.009239640045, -0.000853450983099185, 0.6875,349.669494628906
0.0703329983333333, 224.015113751885, -0.00106439738749903, 0.69375,418.811584472656
0.0709996433333333, 224.020557952963, -0.00108486985918603, 0.70125,353.973205566406
0.0716663666666667, 224.025671432346, -0.0010163967985419, 0.7075,348.581756591797
0.0723330183333333, 224.031466375958, -0.000986893280492593, 0.71375,348.581756591797
0.0729998383333333, 224.037161799118, -0.00122347639719252, 0.72,353.908874511719
0.073666305, 224.042291684462, -0.000990404604158243, 0.7275,348.926849365234
0.0743330083333333, 224.047579357999, -0.000779785183320812, 0.73375,363.998321533203
0.0749998233333333, 224.052802465383, -0.000322755139477993, 0.74,360.204345703125
0.0756667416666667, 224.057924012619, -0.000352846627999644, 0.7475,360.204345703125
0.0763330083333333, 224.062980288236, 0.000172236497590631, 0.75375,365.014465332031
0.0769997116666667, 224.068982462313, -2.47291090022307E-05, 0.76,373.104125976563
0.0776664133333333, 224.074680367971, -0.000505361967335501, 0.76625,377.292266845703
0.07833299, 224.081261357558, -0.0011060757940975, 0.77375,379.988525390625
0.079000035, 224.086745044669, -0.0014314889489495, 0.78,379.988525390625
0.0796663583333333, 224.092265531541, -0.00173206185146582, 0.78625,388.129333496094
0.0803330316666667, 224.096505751774, -0.00168111241060053, 0.7925,361.332092285156
0.0809997316666667, 224.101212751501, -0.00132021553808324, 0.79875,350.191223144531
0.0816664533333333, 224.105043891174, -0.00123538279914598, 0.80625,358.680938720703
0.082333015, 224.109884338588, -0.000846047355054475, 0.8125,358.680938720703
0.0829997983333333, 224.114376482973, -0.000654725964904999, 0.81875,358.796203613281
0.08366642, 224.120217670376, -0.000860511128540566, 0.82625,361.356475830078
0.0843331316666667, 224.125312767718, -0.00149444978647648, 0.8325,360.3330078125
0.0849997383333333, 224.131003978805, -0.00151109895020069, 0.83875,359.208129882813
0.0856665133333333, 224.136583754661, -0.00176823103471093, 0.84625,359.208129882813
0.08633312, 224.14210093742, -0.00221229272997401, 0.8525,441.436981201172
0.0869998583333333, 224.147620352254, -0.002461967189076, 0.85875,364.542816162109
0.0876665983333333, 224.152743919392, -0.00223839141905405, 0.86625,376.206146240234
0.0883330916666667, 224.157948229803, -0.00237452158136067, 0.8725,370.189300537109
0.0890000266666667, 224.162644186832, -0.00217233173713608, 0.87875,370.189300537109
0.0896664416666667, 224.167772010358, -0.00193584161579166, 0.885,385.912689208984
0.09033337, 224.172877259436, -0.00187663508966241, 0.8925,375.640747070313
0.0909997733333333, 224.178484699853, -0.0016285205521736, 0.89875,376.191436767578
0.0916667433333333, 224.183446982189, -0.00135934407264356, 0.905,373.704223632813
0.0923331666666667, 224.189411658295, -0.00151650317867579, 0.9125,373.704223632813
0.0929997733333333, 224.194870640382, -0.00162488023498802, 0.91875,364.835662841797
0.093666915, 224.199949128109, -0.00145957503809766, 0.925,363.283355712891
0.094333205, 224.204853048586, -0.00115235746934844, 0.93125,368.700775146484
0.0949997733333333, 224.210296920439, -0.00112034907709936, 0.93875,366.025482177734
0.09566647, 224.215108239775, -0.000705360421560595, 0.945,366.025482177734
0.09633326, 224.220156900685, -0.000650683667958088, 0.95125,360.849151611328
0.0969997783333333, 224.22553955036, -0.000755951380493512, 0.9575,361.233551025391
0.0976666333333333, 224.23065448397, -0.00118742420805088, 0.965,360.543334960938
0.0983331766666667, 224.235873473635, -0.00146685417256568, 0.97125,342.033447265625
0.0989998566666667, 224.240719532524, -0.00171830904223189, 0.9775,342.033447265625
0.0996664716666667, 224.245898697881, -0.00147486827001255, 0.985,345.393463134766
0.1003331, 224.250336778575, -0.0011494326162945, 0.99125,343.880065917969
0.10099987, 224.255795932266, -0.000980134619962538, 0.9975,345.019561767578
0.101666488333333, 224.260780930858, -0.000635949907994394, 1.005,334.528625488281
0.102333176666667, 224.266166718015, -0.000754502453201154, 1.01125,334.528625488281
0.10299995, 224.271155999566, -0.00066280305915555, 1.0175,403.026214599609
0.103666461666667, 224.276511948953, -0.00103578782450034, 1.02375,347.470855712891
0.104333255, 224.28140411286, -0.00113283145010868, 1.0325,331.483947753906
0.104999791666667, 224.285724997021, -0.00106150853260952, 1.0375,342.147033691406
0.105666491666667, 224.290528470817, -0.0010352628509167, 1.04375,342.147033691406
0.106333128333333, 224.29531251118, -0.00123039854946128, 1.05,338.772735595703
0.106999775, 224.300335399241, -0.00119951660065159, 1.0575,343.993530273438
0.10766664, 224.305016914276, -0.00119722471578084, 1.06375,333.051055908203
0.108333306666667, 224.310093110488, -0.00137832111946671, 1.07125,340.559143066406
0.10899978, 224.314437840915, -0.00124783367372158, 1.0775,340.559143066406
0.109666468333333, 224.318944923528, -0.00115348991252795, 1.085,338.251190185547
0.110333096666667, 224.322999944829, -0.00102965763246529, 1.09,333.289428710938
0.110999901666667, 224.327392475228, -0.000934476913327116, 1.09625,335.880096435547
0.111666438333333, 224.331663748377, -0.000959071177975646, 1.10375,335.64892578125
0.112333098333333, 224.335936066702, -0.00118638476024813, 1.11125,335.64892578125
0.113000068333333, 224.340622511118, -0.00112313143735625, 1.1175,337.665710449219
0.113666478333333, 224.345027666466, -0.000869740164924106, 1.12375,340.177001953125
0.114333138333333, 224.348948785311, -0.000816828822599283, 1.13125,333.126373291016
0.114999888333333, 224.353334215491, -0.000790707634631934, 1.13625,332.777709960938
0.115666508333333, 224.358179620675, -0.000736081878437884, 1.14375,332.777709960938
0.11633315, 224.362062417993, -0.000952195523278374, 1.15125,324.614959716797
0.116999801666667, 224.366407957827, -0.00116260045486238, 1.15625,334.986328125
0.117666718333333, 224.370838131473, -0.0011138619029288, 1.1625,334.220336914063
0.11833326, 224.374701759404, -0.00120276093758217, 1.17125,338.086578369141
0.118999811666667, 224.378738000051, -0.000807343299015261, 1.1775,338.086578369141
0.11966671, 224.382898692429, -0.000564683987537536, 1.18375,405.057067871094
0.120333208333333, 224.386959125221, -0.000334936027533481, 1.18875,334.715026855469
0.120999776666667, 224.390930626752, -0.000544258013528299, 1.1975,335.029632568359
0.121666615, 224.395803253234, -0.000802543540095926, 1.20375,336.392211914063
0.122334018333333, 224.399668641735, -0.000839761170668938, 1.20875,336.392211914063
0.122999791666667, 224.403815050301, -0.000940718099704252, 1.215,340.769744873047
0.123666751666667, 224.407432850451, -0.0009779027319829, 1.22375,349.54638671875
0.124333278333333, 224.410929607944, -0.000920385121071779, 1.23,341.037872314453
0.124999955, 224.413893962546, -0.00064349752884558, 1.235,344.206970214844
0.125666456666667, 224.417183563546, -0.000615645427840567, 1.2425,344.206970214844
0.12633311, 224.420192001845, -0.000527011879806575, 1.24875,342.287811279297
0.127000033333333, 224.423448700804, -0.000777944775695441, 1.255,351.877716064453
0.127666456666667, 224.427109739691, -0.000533250066419921, 1.2625,346.992645263672
0.128333441666667, 224.429654739119, -0.000255413021918935, 1.27,343.653869628906
0.128999808333333, 224.432822389403, -0.00030738541141854, 1.27625,343.653869628906
0.129666485, 224.43569829807, -0.00054163014554871, 1.28125,350.432647705078
0.130333121666667, 224.4388116475, 5.3502461552332E-05, 1.28875,363.142211914063
0.130999825, 224.441539148876, 9.59323303193369E-05, 1.29625,355.562591552734
0.131667111666667, 224.445055923639, 0.000133094463731936, 1.30125,360.346221923828
0.13233313, 224.448123143137, 0.000132423997438664, 1.3075,360.346221923828
0.132999783333333, 224.452056858851, 0.000145080361700017, 1.315,352.575347900391
0.13366658, 224.455388128094, -0.000248604863904826, 1.32125,358.575012207031
0.134333106666667, 224.458849003808, -0.000660389680386881, 1.32875,362.558227539063
0.13499988, 224.462057081384, -0.000646045900874305, 1.335,365.721862792969
0.135666721666667, 224.465046722633, -0.000691178633947333, 1.34125,365.721862792969
0.136333128333333, 224.467766790548, -0.000826297847078632, 1.34875,441.393432617188
0.136999923333333, 224.470900969118, -0.000931954040055754, 1.355,368.116363525391
0.137666683333333, 224.473612994376, -0.00100447239753811, 1.36125,363.761016845703
0.138333186666667, 224.476678409799, -0.000886236336422947, 1.36875,366.902252197266
0.139000336666667, 224.479936588104, -0.00106844868411989, 1.37375,366.902252197266
0.13966656, 224.483156486104, -0.000835021408895766, 1.38,366.811859130859
0.14033309, 224.486257839306, -0.000635517929745002, 1.3875,361.640014648438
0.141000633333333, 224.48983519085, -0.000541048174837737, 1.395,369.965881347656
0.141666436666667, 224.49332403127, -0.0010545818805888, 1.4,363.073150634766
0.142333665, 224.496309841367, -0.00108014809639942, 1.40875,363.073150634766
0.142999901666667, 224.499161872601, -0.00121912511571227, 1.41375,368.788482666016
0.143666455, 224.502258921711, -0.00118929011430609, 1.42125,363.920104980469
0.144333095, 224.505490441531, -0.00116813367696368, 1.4275,363.866027832031
0.145000013333333, 224.508554855754, -0.000726093880157516, 1.43375,360.588012695313
0.145666438333333, 224.511818438565, -0.000485556962050467, 1.44,360.588012695313
0.146333253333333, 224.515066503426, -0.000377959866576717, 1.44625,364.943389892578
0.147000003333333, 224.518689406959, -0.000511069180603823, 1.45375,363.814361572266
0.147666415, 224.521409929086, -0.00048664440745537, 1.46,358.357788085938
0.148333133333333, 224.524385598756, -0.000845573378836775, 1.4675,362.710235595703
0.1489998, 224.527199495202, -0.000853600975624528, 1.4725,362.710235595703
0.149666625, 224.529830802956, -0.000886879804055707, 1.48,357.899261474609
0.150333131666667, 224.531764140746, -0.00103853568653847, 1.48625,355.075531005859
0.150999811666667, 224.534719078112, -0.00109466286735773, 1.4925,353.420684814453
0.151666456666667, 224.53730556466, -0.000916080337375552, 1.5,355.243225097656
0.152333155, 224.540054191733, -0.000774463450624127, 1.50625,355.243225097656
0.152999998333333, 224.543155351667, -0.000904904398691501, 1.5125,433.138885498047
0.15366645, 224.546416040617, -0.000742866037725302, 1.51875,356.245880126953
0.154333093333333, 224.549637388303, -0.000882020048138988, 1.52625,356.2431640625
0.154999976666667, 224.552858749098, -0.00104545633890407, 1.53375,362.395568847656
0.155666958333333, 224.555998223634, -0.000969807638660764, 1.53875,362.395568847656
0.156333206666667, 224.558981625994, -0.000756002377880715, 1.545,350.295288085938
0.157000136666667, 224.561629805376, -0.000673833505129977, 1.5525,365.574676513672
0.157666436666667, 224.564311116134, -0.000433802061653096, 1.55875,364.043395996094
0.158333165, 224.566924498478, -0.00045295609955583, 1.565,368.975860595703
0.159000041666667, 224.56987367924, -0.00085715879690417, 1.5725,368.975860595703
0.159666958333333, 224.57266405977, -0.000915663358242668, 1.57875,357.729827880859
