Time (min), Depth (µm), Load (N), Position (µm), Acoustic (aJ)
7.29333333333333E-06, 223.498949125329, -9.52638375134839E-05, 0,324.257904052734
0.000665753333333333, 223.498609260821, 5.6386045314169E-05, 0.00249999999999998,315.700714111328
0.00133047, 223.498573872682, -0.000404923283595037, 0.00749999999999999,328.549499511719
0.00199792833333333, 223.498858980428, -0.000678014566518968, 0.01375,328.549499511719
0.00266452666666667, 223.499401138636, -0.000758071545348599, 0.02125,343.9208984375
0.00333128833333333, 223.49965267209, -0.000708923514010427, 0.03,366.080688476563
0.00399861333333333, 223.500878488217, -0.000907656031869138, 0.03625,474.651824951172
0.00466428333333333, 223.502250353387, -0.00112008736166201, 0.0425,417.847381591797
0.00533049833333333, 223.503979173139, -0.000921773322754314, 0.05,417.847381591797
0.005998135, 223.50543980225, -0.000707756572590897, 0.0575,430.85791015625
0.00666398666666667, 223.508015021836, -0.000973496724739215, 0.06375,446.865295410156
0.007332535, 223.510213225837, -0.000972061296851503, 0.07,446.450622558594
0.00800017166666667, 223.513328570529, -0.0008282500203793, 0.0775,452.664154052734
0.00866562333333333, 223.515798658614, -0.000889836926940353, 0.08375,452.664154052734
0.009332245, 223.519195090249, -0.00113791396627657, 0.09,466.850189208984
0.00999874, 223.521958197437, -0.000892254805460978, 0.0975,459.249725341797
0.010664715, 223.525176553277, -0.00084883198654773, 0.10375,466.323211669922
0.0113305016666667, 223.527758102703, -0.000671639886721163, 0.11,470.179107666016
0.0119988916666667, 223.53116398939, -0.000853205766851523, 0.11625,470.179107666016
0.01266546, 223.534816786941, -0.000795316174582123, 0.12375,459.112243652344
0.013330535, 223.538785507952, -0.000826370614740698, 0.13,452.788513183594
0.01399744, 223.542875716018, -0.000926372091782358, 0.13625,466.994384765625
0.014665955, 223.547015208878, -0.00085205832447049, 0.14375,463.576629638672
0.0153324433333333, 223.551410233022, -0.00063676963820057, 0.15125,463.576629638672
0.015998785, 223.555654831211, -0.000773556767523341, 0.15625,473.796142578125
0.01666741, 223.560161783025, -0.000971165841833979, 0.1625,458.968780517578
0.017332095, 223.564732264302, -0.00103985789148349, 0.17125,469.460754394531
0.0179992033333333, 223.569559448857, -0.00127045630875172, 0.17625,473.379669189453
0.01866551, 223.574355331939, -0.00142714443847883, 0.1825,473.379669189453
0.0193323333333333, 223.579147582284, -0.00162449402580394, 0.19,472.838745117188
0.0199990366666667, 223.584060143845, -0.00155548399211717, 0.1975,466.511444091797
0.02066606, 223.588193392644, -0.00142409059186244, 0.2025,554.296630859375
0.02133252, 223.593192425394, -0.0014635266110317, 0.20875,471.463104248047
0.0219991816666667, 223.597674293812, -0.00184821828838431, 0.21625,471.463104248047
0.0226658066666667, 223.602555742503, -0.00187760331240576, 0.2225,474.933074951172
0.0233321316666667, 223.606737719677, -0.00159889781150525, 0.23,463.401580810547
0.02399893, 223.611513302036, -0.00140531303506994, 0.23625,466.011413574219
0.024665465, 223.615673743566, -0.000933402238629403, 0.2425,469.256103515625
0.0253314133333333, 223.620483113859, -0.000498221597330817, 0.25,469.256103515625
0.0259984466666667, 223.625038834936, -0.000418086622410962, 0.25625,462.417358398438
0.0266645066666667, 223.629732748162, -0.000489772521700732, 0.26375,470.298736572266
0.027331465, 223.63451889378, -0.000821725348098661, 0.26875,469.133056640625
0.02799827, 223.639091688617, -0.00122199074322957, 0.2775,459.266815185547
0.0288307066666667, 223.645335438319, -0.00122381165175268, 0.28375,460.655151367188
0.0294985983333333, 223.650137502099, -0.00124880039660429, 0.29125,460.655151367188
0.0301644116666667, 223.654258533112, -0.000795967141921916, 0.29625,463.410522460938
0.0308315633333333, 223.659225494853, -0.000603748796830513, 0.30375,461.934692382813
0.031498155, 223.663922242613, -0.000417522650792829, 0.31125,453.14892578125
0.0321645133333333, 223.669444788977, -0.000515218743622854, 0.3175,461.613433837891
0.0328321766666667, 223.674832885219, -0.000259963064859906, 0.32375,461.613433837891
0.03349839, 223.680676749788, -0.000724623225523613, 0.33125,457.257995605469
0.0341649583333333, 223.686191154825, -0.000902145308761405, 0.3375,452.24169921875
0.0348314016666667, 223.691653024452, -0.000937375539202543, 0.34375,447.667388916016
0.0354982866666667, 223.697279686576, -0.00105685053806608, 0.35,447.667388916016
0.03616407, 223.702334090953, -0.00138879436483258, 0.3575,442.60693359375
0.03683213, 223.707679691869, -0.00118399165182992, 0.36375,435.061370849609
0.0374983983333333, 223.712877948976, -0.00112333169872011, 0.37,524.790161132813
0.03816481, 223.718015738624, -0.000752527823797724, 0.3775,427.863952636719
0.0388308866666667, 223.723123077022, -0.000525955204329226, 0.38375,427.863952636719
0.039498575, 223.728764474952, -5.90721554023332E-05, 0.39,421.863983154297
0.0401649883333333, 223.734355834984, 5.35016901128435E-05, 0.39625,423.967620849609
0.040830905, 223.739706021946, 0.000323215142664269, 0.40375,421.581909179688
0.041498225, 223.745757872858, 2.00278714242238E-05, 0.41,419.201354980469
0.0421650433333333, 223.751300563863, 1.52761101070473E-05, 0.41625,412.054229736328
0.04283082, 223.756513695042, -0.000331245484442692, 0.4225,412.054229736328
0.04349756, 223.762475061035, -0.000428487100072259, 0.43,411.90478515625
0.0441643283333333, 223.768039127245, -0.000602644852320936, 0.43625,394.573547363281
0.04483067, 223.774093799985, -0.000789352474177082, 0.4425,397.136627197266
0.045497375, 223.780303173058, -0.000850714392035138, 0.44875,388.159088134766
0.0461653766666667, 223.786615786264, -0.000958050500683975, 0.45625,388.159088134766
0.046831145, 223.792348116862, -0.000930304894290339, 0.4625,394.573211669922
0.04749725, 223.798003755477, -0.00100322523157653, 0.46875,389.931793212891
0.0481639366666667, 223.80275726225, -0.000526190692503046, 0.47625,384.412963867188
0.0488304966666667, 223.808009325129, -0.000425532248487742, 0.4825,378.265441894531
0.04949729, 223.812935127137, 0.000151223281678978, 0.48875,378.265441894531
0.0503306583333333, 223.817915569289, 0.00044673243851723, 0.4975,380.148956298828
0.0509989016666667, 223.82374591086, 0.000762522076718857, 0.50375,372.572448730469
0.0516648783333333, 223.829266965236, 0.000805427421627965, 0.51,370.763702392578
0.052330895, 223.834568060197, 0.00120206899874173, 0.51625,363.872650146484
0.0529981433333333, 223.840404155905, 0.000766139895017138, 0.52375,436.462005615234
0.0536644533333333, 223.846318750563, 0.00047208716498699, 0.53,436.462005615234
0.05433224, 223.851710531419, 0.000218571398829379, 0.53625,357.203125
0.0549972, 223.857252453419, 0.000351019246109631, 0.54375,363.857025146484
0.0556641266666667, 223.86314661156, 0.00019898238274343, 0.55,360.784088134766
0.0563306266666667, 223.868906667788, 0.000254898074158077, 0.55625,355.382904052734
0.05699735, 223.874365645526, 0.000292603180268418, 0.56375,355.382904052734
0.0576640416666667, 223.880143605137, 8.88279157157899E-05, 0.56875,351.513854980469
0.0583315133333333, 223.8860207597, -2.44699968118321E-06, 0.57625,348.425323486328
0.058998515, 223.891242671209, -0.000101364031188001, 0.5825,353.572570800781
0.0596644633333333, 223.897070640782, 0.00045956129414872, 0.58875,351.146881103516
0.06033201, 223.90243423384, 0.000533990555639639, 0.59625,351.146881103516
0.06099771, 223.907893466261, 0.00108590583351319, 0.6025,352.719329833984
0.061664525, 223.913607195922, 0.00100482890594056, 0.60875,350.058929443359
0.0623313166666667, 223.919552866733, 0.00102925667898033, 0.615,343.826721191406
0.06299843, 223.92498765901, 0.00065781083628582, 0.6225,352.115295410156
0.06366446, 223.930744732158, 0.000644633998129011, 0.62875,352.115295410156
0.0643320383333333, 223.936458332956, 0.000529210295737546, 0.635,352.592926025391
0.0649980183333333, 223.941891147716, 0.000546652919598605, 0.64125,349.111633300781
0.0656642966666667, 223.947314320923, 0.000359972296381718, 0.64875,342.519622802734
0.0663313766666667, 223.952602675312, 0.000506894416640139, 0.655,352.396514892578
0.0669981016666667, 223.957856740915, 0.000671964125377928, 0.6625,352.396514892578
0.06766514, 223.96343526207, 0.000676399402624763, 0.6675,348.609161376953
0.0683308833333333, 223.969336970481, 0.000612819096191714, 0.675,361.300872802734
0.0689975483333333, 223.974791175746, 0.000661233664369169, 0.68125,284.900177001953
0.069664515, 223.980621877608, 0.000584395523840282, 0.68875,442.401702880859
0.0703314433333333, 223.986608491607, 0.000144011643872868, 0.69375,442.401702880859
0.0709980966666667, 223.991976650679, 0.0001139366544984, 0.70125,368.172241210938
0.071664445, 223.997343243786, 0.000100861811201013, 0.7075,359.848419189453
0.0723320166666667, 224.002861677649, 0.000185073581350307, 0.71375,371.721832275391
0.0729982683333333, 224.008560653375, -4.91561535145761E-05, 0.72,371.443725585938
0.0736647233333333, 224.014261507489, -0.000192980929348917, 0.7275,371.443725585938
0.0743313816666667, 224.020128130977, -8.98041118142074E-05, 0.73375,369.165100097656
0.0749984433333333, 224.025801258209, -0.000550163988406119, 0.74,376.735961914063
0.07566442, 224.031724787557, -0.000407794139497988, 0.7475,379.911926269531
0.07633164, 224.037063910484, -0.000536927153294434, 0.75375,386.980072021484
0.0769983966666667, 224.042639106134, -0.00023285192670139, 0.76,386.980072021484
0.07766439, 224.047923983375, -0.000367858645459937, 0.76625,382.757995605469
0.0783309716666667, 224.053168299896, -1.14900454599738E-05, 0.77375,401.217163085938
0.0789976966666667, 224.058257700182, -0.00031464281841749, 0.78,385.286254882813
0.0796647066666667, 224.06270825371, 0.000132441225006998, 0.78625,399.353607177734
0.0803316683333333, 224.067020494834, 0.000292939163377256, 0.7925,399.353607177734
0.0809981216666667, 224.071619425291, 0.000283456639684548, 0.8,390.459533691406
0.081664905, 224.076014348096, 0.000365928497207252, 0.80625,382.519592285156
0.08233086, 224.081192520187, 0.000409322817578093, 0.8125,397.063262939453
0.0829975033333333, 224.086492561698, -0.000146432267426672, 0.81875,401.990875244141
0.0836643983333333, 224.09169233643, -0.00053277686174798, 0.82625,401.990875244141
0.0843313316666667, 224.097178694793, -0.000534449277712662, 0.8325,397.075744628906
0.0849985233333333, 224.102428509963, -0.000603529807867637, 0.83875,401.280212402344
0.0856644366666667, 224.107333705497, -0.000659808481094143, 0.84625,398.998046875
0.0863320116666667, 224.112255154217, -0.000403864336860067, 0.8525,472.880493164063
0.0869972633333333, 224.117942283485, -0.000350321526255202, 0.85875,472.880493164063
0.0876656333333333, 224.122842121365, -0.000225338804026463, 0.86625,408.743408203125
0.0883317566666667, 224.128081988622, -3.15755365871633E-05, 0.8725,400.114685058594
0.088997805, 224.132815251097, 0.000310488281913454, 0.87875,404.281860351563
0.0896649383333333, 224.138181874723, 0.000278908868107469, 0.885,406.752349853516
0.09033089, 224.142783693458, 0.000532777116584862, 0.8925,406.752349853516
0.0909977983333333, 224.147684173648, 0.000818970241402931, 0.89875,410.525115966797
0.0916648516666667, 224.152999850336, 0.000540377234875178, 0.905,405.204956054688
0.0923330133333333, 224.158260135324, 0.000457758384739701, 0.9125,406.104949951172
0.0929977066666667, 224.163310074808, 0.00101030063114133, 0.9175,398.032440185547
0.0936649433333333, 224.168623415843, 0.00106624482107714, 0.925,398.032440185547
0.0943320933333333, 224.173951553078, 0.000916261354601567, 0.93125,406.227783203125
0.0949984316666667, 224.179091173493, 0.00115408490895302, 0.93875,396.787902832031
0.09566495, 224.184332862415, 0.00110627631036201, 0.94625,390.712860107422
0.0964974816666667, 224.192449828639, 0.000828050785334311, 0.95375,390.004791259766
0.0971651016666667, 224.197792649792, 0.00039575749900084, 0.96,389.866790771484
0.097831035, 224.203571967799, 0.000338469376502163, 0.96625,389.866790771484
0.0984982783333333, 224.20897922971, 0.000286081507879094, 0.9725,392.979583740234
0.09916402, 224.214480825735, 0.000209525353223036, 0.98,381.403900146484
0.0998320583333333, 224.219766728143, -1.84702977110134E-06, 0.98625,380.827056884766
0.100498701666667, 224.224592679442, 8.15067834282425E-05, 0.9925,373.417114257813
0.101165396666667, 224.229028288341, 0.000375141034507373, 0.99875,373.417114257813
0.101832095, 224.233962697811, 6.94083911299173E-05, 1.0075,375.179809570313
0.102498715, 224.239228802448, 3.96183874770842E-05, 1.0125,374.076324462891
0.10316548, 224.244052828926, 9.76388701114861E-06, 1.01875,446.0771484375
0.103832045, 224.249330678913, -0.000145439317259174, 1.02625,371.612335205078
0.104498735, 224.254676403365, -0.000657167113688653, 1.0325,371.612335205078
0.105165348333333, 224.258938675981, -0.00028731869078117, 1.03875,366.757537841797
0.10583206, 224.263434875885, -0.000106966249684333, 1.04625,377.251190185547
0.106498838333333, 224.267884108543, 0.000294955062200316, 1.05375,372.120910644531
0.107165393333333, 224.272175024215, 0.000939280698371628, 1.05875,368.029449462891
0.107832118333333, 224.276766701388, 0.00116484986824431, 1.065,368.029449462891
0.108498758333333, 224.281655135201, 0.00101044462386279, 1.0725,366.862091064453
0.109165515, 224.286479676497, 0.000709622733853022, 1.07875,367.427032470703
0.109832395, 224.291105688708, 0.000415451509795017, 1.08625,372.247283935547
0.110498271666667, 224.295431743006, -6.65477798609079E-05, 1.09125,366.438995361328
0.111165395, 224.300088209523, 0.000127863455048124, 1.09875,366.438995361328
0.111832051666667, 224.30466004931, 6.2774224410349E-05, 1.105,369.383056640625
0.112498795, 224.308704835797, 0.000394209576761629, 1.11125,372.126586914063
0.113166175, 224.313121029302, 0.000421727194624715, 1.12,378.71826171875
0.113832061666667, 224.317750147033, 0.00040374309794781, 1.12625,370.258819580078
0.114498771666667, 224.322067560709, 0.000241253259651214, 1.13125,370.258819580078
0.115165428333333, 224.325979564461, 0.000113540674519702, 1.13875,370.167053222656
0.115832063333333, 224.329918305126, 3.92989036004445E-05, 1.145,373.954376220703
0.116499061666667, 224.333413435042, 8.30446037549192E-06, 1.1525,374.2275390625
0.117164653333333, 224.337346608669, 0.000344425577348951, 1.15875,369.727142333984
0.117832163333333, 224.340395385416, 6.70850079104596E-05, 1.165,369.727142333984
0.118498731666667, 224.344573891536, 0.000288877367519373, 1.17125,368.705841064453
0.119165355, 224.348128269563, 0.000144344627217916, 1.1775,364.673492431641
0.119832013333333, 224.35221934019, 0.000375069038221033, 1.185,450.484191894531
0.120499128333333, 224.355985961982, 0.000344064095567766, 1.19375,373.513122558594
0.121165431666667, 224.359680891892, 0.000801089639637374, 1.1975,373.513122558594
0.121832043333333, 224.363012569848, 0.000931593584572194, 1.20375,376.162078857422
0.122498785, 224.367018361372, 0.000757528827679026, 1.21125,373.038879394531
0.12316578, 224.371020434932, 0.00023454109677766, 1.21875,380.170745849609
0.123832171666667, 224.374594287474, -9.43518832637621E-05, 1.225,365.835083007813
0.12449878, 224.378570329464, -0.000392773893845747, 1.23,365.835083007813
0.125165413333333, 224.382049925047, -0.000522979353760556, 1.2375,379.484191894531
0.125832035, 224.385453906652, -0.000170012582923551, 1.24375,380.455749511719
0.126498825, 224.388622495005, 0.000228638893230644, 1.25125,377.359802246094
0.127165563333333, 224.391825521977, 0.000381043238118152, 1.25625,380.216827392578
0.127832148333333, 224.394956475644, 0.000378193381284372, 1.265,380.216827392578
0.128498761666667, 224.397965728126, 0.00046214116467493, 1.27,388.952331542969
0.129165616666667, 224.401181027415, 0.000551448178893509, 1.2775,383.515991210938
0.129832058333333, 224.403750297758, 0.000613879543021121, 1.28375,390.576995849609
0.130498893333333, 224.407106903423, 0.000863494005168236, 1.29125,388.763458251953
0.1311654, 224.410736182297, 0.00118261797587091, 1.2975,388.763458251953
0.131831218333333, 224.414330124969, 0.00109604082453385, 1.30375,390.956909179688
0.13249811, 224.417639027852, 0.000974585925075437, 1.31125,389.749969482422
0.133165693333333, 224.421423042973, 0.000639195271435143, 1.3175,395.190246582031
0.133830851666667, 224.424849185653, 0.00024819191110966, 1.32375,395.190246582031
0.134497616666667, 224.427444060553, 0.000447279911115706, 1.33,398.962799072266
0.135164491666667, 224.430472454695, 0.000614050534424347, 1.3375,394.871734619141
0.135830908333333, 224.433226963182, 0.000682321105274038, 1.3425,488.494934082031
0.13649829, 224.436018004976, 0.000998919202835292, 1.35,402.503509521484
0.13716432, 224.437952495591, 0.00140902110386059, 1.35625,396.797302246094
0.137831081666667, 224.441660309205, 0.000944990911616281, 1.36375,396.797302246094
0.13849813, 224.44404157421, 0.000790191187052942, 1.37,396.286651611328
0.139165138333333, 224.447201606289, 0.000672555095784098, 1.375,393.949005126953
0.139830985, 224.450146361501, 0.000624972985777977, 1.38375,407.291687011719
0.140498276666667, 224.454013864488, 0.000446070971876647, 1.39,397.416473388672
0.141165466666667, 224.456707320533, 0.000283708627175583, 1.395,397.416473388672
0.141830856666667, 224.459682980752, 0.000348101892762721, 1.40375,393.703735351563
0.142497918333333, 224.462841768027, 0.000192481709465784, 1.41,392.357666015625
0.143164606666667, 224.466136427413, 5.79358660562695E-06, 1.415,398.120422363281
0.143831458333333, 224.46877001199, -4.80598278413672E-07, 1.42125,398.120422363281
0.1444983, 224.471680103404, 0.000136937999303145, 1.43125,393.665252685547
0.145330768333333, 224.475009790879, 4.16882835999161E-05, 1.43625,392.125762939453
0.145997495, 224.477535989468, 9.84919304100703E-05, 1.44375,407.417602539063
0.146664141666667, 224.480169580655, 1.39730735076836E-06, 1.45125,395.242553710938
0.147332095, 224.483098106039, 0.000291284746611684, 1.4575,393.305816650391
0.147998278333333, 224.485858143511, 0.00029109425621247, 1.465,391.765075683594
0.148830895, 224.490250336052, 0.000256574990066001, 1.47125,392.289398193359
0.149498438333333, 224.493427672159, 0.000270062312574284, 1.4775,392.289398193359
0.150165885, 224.496138366742, 7.93843901638377E-05, 1.485,398.853393554688
0.15083073, 224.498475186915, -0.000273346892520602, 1.49125,387.410827636719
0.151497605, 224.501069552709, -0.000394969783533436, 1.49875,397.244476318359
0.15216447, 224.503996705754, -0.000161707500078688, 1.505,488.907135009766
0.152832315, 224.506231486908, 0.000118494925673826, 1.51125,488.907135009766
0.153498426666667, 224.508872847865, 0.000430794239215212, 1.5175,390.869598388672
0.154165823333333, 224.512042175508, 0.0010577372485441, 1.52375,395.323455810547
0.154831461666667, 224.515128838519, 0.0012243998772532, 1.53125,393.156829833984
0.155497858333333, 224.51834074165, 0.00124963160987939, 1.5375,393.156829833984
0.156164786666667, 224.522199245706, 0.0012245183712598, 1.54375,393.162384033203
0.156831556666667, 224.525890772379, 0.000868962730435186, 1.55,396.366943359375
0.15749828, 224.529310971716, 0.000570930700283064, 1.5575,388.592864990234
0.158164385, 224.533226350948, 0.000410596253736524, 1.56375,392.15478515625
0.158831463333333, 224.536756341622, 0.000311257743387375, 1.57125,394.869293212891
0.159664831666667, 224.540172104333, 0.000456265959788427, 1.57875,396.192932128906
0.160331531666667, 224.543908696024, 0.000390938241128025, 1.585,396.192932128906
0.160998233333333, 224.54756814323, 0.000700933670382179, 1.5925,393.863952636719
0.16166439, 224.551281019246, 0.000870434156529831, 1.59875,389.7294921875
