Time (min), Depth (µm), Load (N), Position (µm), Acoustic (aJ)
8.725E-06, 223.572892076481, 0.00114278344017143, 0,397.685119628906
0.000666405, 223.572133529183, 0.00118210846493484, 0.00125,397.672271728516
0.001331905, 223.572511238801, 0.000818712717915388, 0.00749999999999999,400.856292724609
0.00199845333333333, 223.572426638762, 0.000740557643569154, 0.01375,394.332489013672
0.00266493666666667, 223.573638520237, 0.000796741821515747, 0.02125,400.476379394531
0.00333157166666667, 223.575627323967, 0.00087221503058262, 0.02875,400.476379394531
0.00416493666666667, 223.578250623478, 0.000831280586700712, 0.0375,419.940246582031
0.00483206333333333, 223.580884181677, 0.000775705378168113, 0.04375,540.994934082031
0.00549829333333333, 223.584551925349, 0.000855013894550485, 0.0525,474.929992675781
0.00616499333333333, 223.587747954601, 0.000515673939233774, 0.05875,489.522064208984
0.00683169666666667, 223.593507558158, 0.000263583101471799, 0.0675,493.952911376953
0.007664975, 223.596964428646, -3.97451626834068E-05, 0.07375,501.544708251953
0.00833175666666667, 223.600589563616, -6.49828949859508E-05, 0.08,501.544708251953
0.00899860166666667, 223.603729571129, -0.000335498807220644, 0.0875,511.193237304688
0.00966492, 223.607473675184, -0.0003676556920069, 0.09375,510.240295410156
0.0103322483333333, 223.610444952201, -0.000458722117869312, 0.1,512.636535644531
0.0109990066666667, 223.613736520909, -0.000290576063649088, 0.10625,511.812072753906
0.0116653933333333, 223.617210937208, -0.000203773923672794, 0.11375,511.812072753906
0.01233188, 223.621302572044, -0.000313968888680576, 0.12,500.463409423828
0.0129985016666667, 223.624883805948, -8.85017136673121E-05, 0.12625,518.922485351563
0.0136651983333333, 223.629074705507, -0.000119124175533986, 0.135,519.716613769531
0.014498385, 223.633332779497, -0.00015501437277632, 0.14125,512.856628417969
0.0151649633333333, 223.637597004613, -0.000193191955137449, 0.1475,519.424072265625
0.01583163, 223.641376225946, -4.96941628867814E-05, 0.155,519.424072265625
0.016498525, 223.645203887435, -0.000129958131305316, 0.1625,521.53076171875
0.017165015, 223.649002720066, -0.000258383180634646, 0.1675,516.249755859375
0.0178318666666667, 223.653326471875, -0.000177732231656309, 0.17375,523.408752441406
0.01849825, 223.657388453621, -0.000158188213344966, 0.18125,417.88623046875
0.0191649166666667, 223.661715262197, -0.000143800936003441, 0.18875,417.88623046875
0.0198317633333333, 223.666308603789, -0.000120318115507758, 0.19375,526.933532714844
0.0204985466666667, 223.670817956379, 0.000125750524691178, 0.20125,525.39453125
0.02116492, 223.675051059383, 0.000266671446370713, 0.20875,615.936950683594
0.0218316083333333, 223.67947449917, 0.000257281918012262, 0.21375,519.040832519531
0.0224985883333333, 223.683401549035, -5.95785973074388E-06, 0.22,519.040832519531
0.0231649, 223.687568474267, 7.60010235397751E-05, 0.2275,521.788330078125
0.0238316166666667, 223.69143782125, 0.000123371644183783, 0.23375,515.2880859375
0.02449902, 223.695768822531, -5.74877714038632E-05, 0.24,515.941345214844
0.025165495, 223.69963465538, 0.000155927508946322, 0.2475,519.655151367188
0.025833085, 223.704090486714, 0.000442621608600095, 0.25375,519.655151367188
0.0265004433333333, 223.708886139706, 0.000384093048449891, 0.26125,518.881896972656
0.027166695, 223.713646246103, 0.000456857393555637, 0.2675,522.849975585938
0.0278330816666667, 223.718618727617, 0.000442647107314951, 0.27375,507.010437011719
0.028499975, 223.724078281347, 0.000316575439756906, 0.28125,514.983032226563
0.029166525, 223.729665618436, 0.000228970840033582, 0.28625,514.983032226563
0.0298316533333333, 223.734934619178, 0.000280356758963988, 0.2925,511.952056884766
0.0304984083333333, 223.74059837652, 4.00688283716421E-05, 0.30125,514.774230957031
0.0311649583333333, 223.745616472315, 4.96353478734402E-05, 0.3075,507.107025146484
0.0318321283333333, 223.75050988341, -0.000181491042891004, 0.31375,507.107025146484
0.032498535, 223.756039089811, -0.000216875765545677, 0.32125,509.087829589844
0.0331649433333333, 223.76099155796, -0.000262005498727391, 0.32625,504.635437011719
0.0338318616666667, 223.766142759885, -0.000196862270789844, 0.3325,499.430938720703
0.03449855, 223.771873646351, -0.000251579522436255, 0.34,497.359344482422
0.035165025, 223.777507939981, -0.00015992962589596, 0.34625,497.359344482422
0.0358320816666667, 223.782681296776, 8.85283943024484E-05, 0.35375,489.287628173828
0.0364982566666667, 223.788143380665, 0.000218250878495646, 0.36,396.988220214844
0.0371649783333333, 223.794079444365, 0.000163701618446162, 0.36625,490.646697998047
0.0378316516666667, 223.799516775192, 0.000206233482115096, 0.37375,578.191650390625
0.03849837, 223.805220436431, 0.00013790741404123, 0.38,578.191650390625
0.03916509, 223.810686857966, 5.62740143874724E-05, 0.38625,478.469909667969
0.0398319233333333, 223.81641098243, -0.000266583268856297, 0.39375,470.091033935547
0.0404982833333333, 223.821276918483, -0.000341479006900392, 0.4,466.326629638672
0.0411649216666667, 223.826357554588, -0.000390252057095241, 0.40625,475.375305175781
0.041831735, 223.831498587857, -0.000311618506800605, 0.4125,475.375305175781
0.042498465, 223.836591155765, -0.000522837897441848, 0.42,461.264373779297
0.043164925, 223.841509796966, -0.000393331402405228, 0.42625,461.169921875
0.0438317066666667, 223.84714924808, -0.000650500985068052, 0.4325,451.954620361328
0.0444986683333333, 223.852361744873, -0.000479172090711509, 0.43875,439.555969238281
0.0451649233333333, 223.85731409258, -0.000470928504788434, 0.44625,439.555969238281
0.045832435, 223.862685004167, -0.000223005957708259, 0.4525,450.205108642578
0.0464982566666667, 223.867479341621, 0.000312234657726222, 0.45875,435.946228027344
0.0471654283333333, 223.872441369943, 0.000572039607990652, 0.46625,437.037384033203
0.0478317866666667, 223.877590849567, 0.000575454936451985, 0.47125,420.651489257813
0.04849895, 223.882962689779, 0.000603463029637445, 0.47875,421.772705078125
0.0491649233333333, 223.887676530471, 0.000934167918698068, 0.485,421.772705078125
0.0498318516666667, 223.893403308883, 0.000374810014639055, 0.49125,415.936737060547
0.0504987416666667, 223.898316771713, 0.000689479209141416, 0.49875,412.038909912109
0.0511664366666667, 223.903237654546, 0.00059482046375934, 0.505,413.666534423828
0.0518323566666667, 223.908592298911, 0.000620431677344566, 0.51125,408.231292724609
0.0524984716666667, 223.913960779669, 0.000211328726120619, 0.51875,408.231292724609
0.053164995, 223.919348064832, 0.000435375472490203, 0.525,405.474151611328
0.0538323433333333, 223.9250138313, 2.83769156078539E-05, 0.53125,407.440643310547
0.054498785, 223.930825304024, -0.000137753239853071, 0.53875,486.764038085938
0.0551650716666667, 223.936292478163, -0.000178575189383481, 0.545,408.706024169922
0.055832165, 223.941656845126, -0.000342360962577032, 0.55125,408.706024169922
0.056498795, 223.946973989794, -0.000235984805737567, 0.55875,408.098937988281
0.0571655316666667, 223.951760746593, -0.000138441705239183, 0.56375,405.608612060547
0.0578320716666667, 223.956887783308, 0.000179978800854603, 0.57125,392.294586181641
0.05849904, 223.962105216669, 0.000200998745012546, 0.5775,406.382873535156
0.0591654433333333, 223.967649322286, 0.000634446973349066, 0.58375,406.382873535156
0.0598316183333333, 223.973202197434, 0.000520221710789599, 0.59125,404.219573974609
0.0604990433333333, 223.979151371849, 0.000912509006638066, 0.59625,398.514831542969
0.06116513, 223.984361627687, 0.00115903212401621, 0.60375,401.805999755859
0.06183236, 223.989999238932, 0.00128282840582943, 0.61,402.0107421875
0.0624987983333333, 223.99561097073, 0.00115628426199934, 0.61625,402.0107421875
0.0631651283333333, 224.001014941977, 0.00112412587728868, 0.6225,403.968017578125
0.0638318233333333, 224.006397780556, 0.00111177699755125, 0.63,405.15380859375
0.0644985333333333, 224.012180415066, 0.00103897065454096, 0.63625,401.319030761719
0.0651649266666667, 224.017398185073, 0.00132157295974251, 0.6425,399.716003417969
0.0658317966666667, 224.0225747036, 0.00167761607606195, 0.65,399.716003417969
0.06649824, 224.028107599342, 0.00163857153724696, 0.65625,408.273803710938
0.0671664083333333, 224.033168253238, 0.00140975953021932, 0.66375,408.231079101563
0.067832125, 224.038900729179, 0.00124989156022595, 0.67,406.441467285156
0.0684984133333333, 224.044374942344, 0.000846698312192291, 0.675,403.957641601563
0.06916529, 224.0498346191, 0.000715589897637943, 0.6825,403.957641601563
0.0698321533333333, 224.054996539741, 0.000752725032347521, 0.68875,410.104156494141
0.07049845, 224.06085668825, 0.000628462273938617, 0.69625,414.157073974609
0.0711652366666667, 224.06590523553, 0.000745465397003015, 0.7025,487.719909667969
0.0718315733333333, 224.071089220803, 0.00133002503517889, 0.71,404.952789306641
0.0724984666666667, 224.07628217753, 0.0015465721582782, 0.715,404.952789306641
0.073164965, 224.081598134505, 0.00210258823017164, 0.7225,411.441314697266
0.0738323616666667, 224.087268130089, 0.00230865537963752, 0.72875,409.362396240234
0.0744988483333333, 224.093288336771, 0.00240148121708001, 0.735,417.006988525391
0.07516521, 224.099595597088, 0.00169122189270436, 0.7425,410.473205566406
0.075832525, 224.105773848381, 0.0015897219909288, 0.74875,410.473205566406
0.0764988483333333, 224.111359729048, 0.00118777368036238, 0.755,422.812072753906
0.0771653983333333, 224.117044590603, 0.00129877410492349, 0.76125,428.340759277344
0.0778332416666667, 224.12268317628, 0.00108200049326055, 0.76875,430.532409667969
0.07849976, 224.128244457372, 0.000885879344234249, 0.775,434.267517089844
0.07916646, 224.133334755006, 0.000906207823114767, 0.78125,434.267517089844
0.0798331533333333, 224.138804735685, 0.000938780187066996, 0.7875,440.516143798828
0.0804998133333333, 224.143808777869, 0.000419659261978613, 0.79375,491.306793212891
0.08116645, 224.148685309106, 0.000356317443546937, 0.80125,506.571350097656
0.0818331183333333, 224.154094658564, 0.000544607485903568, 0.8075,513.056579589844
0.0824998033333333, 224.159705165192, 0.000394817509718529, 0.81375,513.056579589844
0.0831664883333333, 224.165749680049, 0.000410373228361478, 0.82,518.495056152344
0.083833315, 224.171509926704, 0.000780842620056927, 0.8275,521.368286132813
0.0844997766666667, 224.177196017784, 0.00130555826414715, 0.83375,524.784790039063
0.0851665166666667, 224.182743658042, 0.00136287038539377, 0.84,532.699157714844
0.085833285, 224.188692850386, 0.00110154901134511, 0.8475,532.699157714844
0.0864985866666667, 224.193689799322, 0.00096084257887649, 0.85375,532.215087890625
0.0871654516666667, 224.198939760083, 0.00089654080867795, 0.86,641.805114746094
0.087833295, 224.204126415002, 0.00047105568031608, 0.8675,536.408142089844
0.0884997083333333, 224.208912218848, 0.000556224402383431, 0.87375,541.423034667969
0.08916652, 224.213718978754, 0.000448838796208033, 0.88,543.976013183594
0.0898322716666667, 224.218875483897, 0.000435247978852163, 0.8875,543.976013183594
0.0904988983333333, 224.224396715371, 0.000171502726542752, 0.89375,537.5087890625
0.0911652933333333, 224.229494825258, 0.000437448368376824, 0.9,542.21923828125
0.0918318383333333, 224.234806962196, 0.000337442391604463, 0.90625,538.923950195313
0.092498545, 224.239777228559, 0.000513652040776863, 0.91375,538.923950195313
0.0931649466666667, 224.245170027788, 0.000591216144801943, 0.92,530.389404296875
0.093831685, 224.250144365068, 0.000759918671060792, 0.92625,530.882690429688
0.0944985533333333, 224.255620873698, 0.000392236139374186, 0.9325,522.801879882813
0.0951652483333333, 224.260647130872, 0.00037020974575037, 0.94125,527.192443847656
0.0958317783333333, 224.266163231054, 0.000516263409609271, 0.94625,527.192443847656
0.096498955, 224.270963981584, 0.000265976981265734, 0.9525,525.984802246094
0.09716509, 224.276194168827, 0.000533076065135945, 0.96,521.02734375
0.0978324216666667, 224.281150819911, 0.000669869194177583, 0.96625,512.702575683594
0.0984989716666667, 224.286729425556, 0.000366785417721363, 0.9725,511.272308349609
0.0991649, 224.291743690898, 4.23502137928251E-05, 0.98,511.272308349609
0.0998324266666667, 224.297301531579, 0.000111400745438481, 0.98625,512.072021484375
0.100498866666667, 224.301779979987, 4.43331141302352E-05, 0.9925,501.114105224609
0.101165046666667, 224.306860420957, 0.00030110521674118, 0.99875,500.739440917969
0.10183232, 224.311536285317, 0.000581259644891536, 1.00625,501.538299560547
0.102499113333333, 224.316450684095, 0.00110496733954897, 1.0125,501.538299560547
0.103165041666667, 224.320584309261, 0.00120582677347682, 1.01875,498.581207275391
0.103832785, 224.325098755182, 0.00146018549736161, 1.02625,596.958984375
0.104498438333333, 224.329427431661, 0.00148847857622619, 1.0325,493.97509765625
0.105165053333333, 224.334087048701, 0.00168685411203442, 1.03875,500.150299072266
0.105831743333333, 224.338398864824, 0.00136263189741365, 1.045,494.521820068359
0.106498363333333, 224.343118855227, 0.00170723658825722, 1.0525,494.521820068359
0.107165376666667, 224.34820980565, 0.00143451278687585, 1.06,498.661560058594
0.107831566666667, 224.352931434045, 0.00148239938155708, 1.065,497.401123046875
0.108499071666667, 224.357402727182, 0.001229581080332, 1.0725,490.6201171875
0.10916498, 224.36192927103, 0.00126960806980116, 1.07875,490.6201171875
0.109832505, 224.3662792849, 0.000853134488826867, 1.085,489.393585205078
0.110498383333333, 224.371225602642, 0.000740913125610218, 1.09125,494.634429931641
0.111165085, 224.37605771715, 0.000483640048184823, 1.09875,484.270355224609
0.111832546666667, 224.381050117148, 0.000370400236107075, 1.105,493.403228759766
0.112498963333333, 224.385988229833, 0.000415094991126827, 1.11125,493.403228759766
0.113164918333333, 224.391657907847, 0.000271354211101577, 1.1175,500.359588623047
0.113831666666667, 224.395704706928, 0.000390824710213163, 1.125,493.582855224609
0.11449847, 224.400306932007, 0.000244670551376735, 1.1325,491.39453125
0.115164995, 224.404087816361, 0.000251958685306157, 1.1375,486.145751953125
0.11583234, 224.408942479053, 0.000264466557030334, 1.145,486.145751953125
0.11649897, 224.412772408836, 0.000317031416754242, 1.1525,488.670440673828
0.117165006666667, 224.417431165205, 0.000197194936003245, 1.1575,498.785034179688
0.117831901666667, 224.421809269706, 8.88163797453656E-05, 1.16375,488.445892333984
0.118499091666667, 224.42650202193, 0.000380802213607758, 1.17125,495.783264160156
0.119164951666667, 224.430412125212, 0.000238019885403715, 1.17875,495.783264160156
0.11983242, 224.435006939377, 0.000380598223846407, 1.185,487.298431396484
0.12049903, 224.439206130122, 0.00025042126249526, 1.19125,593.475219726563
0.121165063333333, 224.442965489131, 0.000403988048965326, 1.19875,486.025024414063
0.121831813333333, 224.447101815816, 0.00044205913667257, 1.205,497.766082763672
0.122500176666667, 224.451038727506, 0.000481517654729131, 1.21,497.766082763672
0.123165101666667, 224.45544568132, 0.000489164270654694, 1.2175,497.874755859375
0.123832585, 224.459673992949, 0.000708180269683078, 1.225,503.927032470703
0.124499095, 224.464180747505, 0.000642083089655027, 1.23125,503.790496826172
0.12516492, 224.468719766048, 0.000487212868644735, 1.2375,507.08544921875
0.12583263, 224.472769177053, 0.000960259108007319, 1.245,507.08544921875
0.126498448333333, 224.47597903035, 0.00104435238408625, 1.25125,502.718933105469
0.127164971666667, 224.479527644796, 0.000919237668488769, 1.2575,507.855133056641
0.127831831666667, 224.483241488152, 0.00104286295892002, 1.26375,512.010192871094
0.128498743333333, 224.486232326143, 0.000867085288082027, 1.27,512.990600585938
0.129164928333333, 224.490125966424, 0.000408837305368714, 1.2775,512.990600585938
0.129831875, 224.493539992543, 0.000334634532505195, 1.28375,521.7119140625
0.130498811666667, 224.49687904016, 0.000403226087219692, 1.29,512.30908203125
0.131165106666667, 224.500187860138, 0.000238631854624006, 1.2975,521.660949707031
0.131832066666667, 224.503508667955, 0.00052137665264387, 1.30375,523.542114257813
0.132498613333333, 224.506421772427, 0.000584214496391035, 1.31,523.542114257813
0.133165026666667, 224.510442869774, 0.000426227431918167, 1.3175,523.249877929688
0.133832523333333, 224.514220280856, 0.000185249535972798, 1.32375,522.960815429688
0.1344987, 224.51754264536, 0.000288453352146766, 1.33,523.673950195313
0.13516508, 224.521115566622, 0.000133589130812833, 1.33625,522.279479980469
0.13583262, 224.524722485482, 0.000390593721748791, 1.34375,522.279479980469
0.136498323333333, 224.527930980827, 0.000579837716238436, 1.35,524.486877441406
0.137164953333333, 224.530945956144, 0.00106826718293759, 1.35625,624.269897460938
0.137832518333333, 224.534176469036, 0.0011170897306165, 1.36375,535.093322753906
0.138498926666667, 224.538145827853, 0.00105275496208109, 1.37,523.122985839844
0.13916506, 224.541284633503, 0.000638621263579702, 1.375,523.122985839844
0.139832396666667, 224.544837185795, 0.000369648773789756, 1.3825,529.914672851563
0.140498816666667, 224.548142695294, -0.000243403433217597, 1.39,517.401062011719
0.14116493, 224.551315814123, -0.000150061621674123, 1.39625,523.90673828125
0.141832268333333, 224.553806417032, -1.7055734311392E-06, 1.4025,522.739685058594
0.142498281666667, 224.55717283622, 0.00038403455127064, 1.41,522.739685058594
0.14316522, 224.559656936507, 0.00066693534147095, 1.415,521.888000488281
0.143832315, 224.563068597735, 0.0010083076947154, 1.4225,520.071350097656
0.1444985, 224.565640240475, 0.00111827917096584, 1.42875,523.054077148438
0.145165378333333, 224.568676976407, 0.0011906595354031, 1.43625,518.745300292969
0.145831756666667, 224.570705923508, 0.0011694850989466, 1.44125,518.745300292969
0.146498421666667, 224.573538701189, 0.000978214706248088, 1.4475,515.677917480469
0.147165431666667, 224.576018938211, 0.00116202897346276, 1.455,519.530822753906
0.147831626666667, 224.579478225523, 0.00133975504648316, 1.46125,515.253967285156
0.148498303333333, 224.582728421961, 0.00147084396197775, 1.46875,526.420593261719
0.149165025, 224.586603350659, 0.00153003248903542, 1.475,526.420593261719
0.149831838333333, 224.589684284616, 0.00171286580549908, 1.48125,519.231018066406
0.150498455, 224.592327285463, 0.00178727856780031, 1.48875,514.231140136719
0.15116506, 224.5950356935, 0.00162972948131695, 1.495,521.334838867188
0.151831648333333, 224.597477277863, 0.00131911308325358, 1.5,521.302734375
0.152498633333333, 224.600063535933, 0.0012104420416733, 1.5075,521.302734375
0.153165003333333, 224.602546310769, 0.00114661274776806, 1.51375,525.386962890625
0.153832323333333, 224.606190695263, 0.00108266795966251, 1.52,626.171203613281
0.154498786666667, 224.608861477199, 0.00123562277693354, 1.5275,519.689514160156
0.155164968333333, 224.611814525551, 0.0012505455273933, 1.53375,521.164794921875
0.155831803333333, 224.614891112194, 0.00116104652282985, 1.54,521.164794921875
0.156498766666667, 224.618299611342, 0.0012237253745265, 1.5475,521.875
0.157165495, 224.620851140276, 0.000963453947687644, 1.55375,520.476623535156
0.1578322, 224.623936143386, 0.000640308678937195, 1.56,522.775207519531
0.158498663333333, 224.626999400866, 0.000479230269759114, 1.5675,522.985168457031
0.159165021666667, 224.629524772508, 0.000494373509127405, 1.57375,522.985168457031
0.159831808333333, 224.632424405857, 0.000405597468232595, 1.58,521.021240234375
0.160498506666667, 224.634919848365, 0.000617380830576987, 1.58625,530.066345214844
0.16116542, 224.638283202033, 0.000574115503768589, 1.59375,520.609436035156
0.161832575, 224.64077440048, 0.000611115645281874, 1.6,523.854797363281
0.162498475, 224.644057113077, 0.000692725046123926, 1.60625,523.854797363281
