Time (min), Depth (µm), Load (N), Position (µm), Acoustic (aJ)
9.52833333333333E-06, 223.261847649006, 0.000286108888603642, 0,350.328308105469
0.000666273333333333, 223.260818137729, 0.000539261672991903, 0.00125,346.097381591797
0.00133107166666667, 223.26035997605, 0.000505672360145487, 0.00499999999999999,346.097381591797
0.00199774166666667, 223.260575050595, 0.00017462248845086, 0.01125,351.500427246094
0.00266468166666667, 223.260847243675, -2.57524469269756E-05, 0.01875,347.966918945313
0.00333147, 223.261809325268, -0.000265950382033872, 0.0275,369.032531738281
0.00399774166666667, 223.262573500427, -0.000449032685969721, 0.03375,477.942260742188
0.00466591833333333, 223.2641000104, -0.000421434072210113, 0.04125,417.850006103516
0.00533128666666667, 223.264818306954, -0.000457558257701863, 0.0475,417.850006103516
0.00599766, 223.266130331096, -0.000431036589855081, 0.05375,438.531860351563
0.00666468166666667, 223.267066659143, -0.000591816514055659, 0.06125,439.450469970703
0.00733135166666667, 223.267927922901, -0.000683266920607813, 0.06875,439.450469970703
0.00799769833333333, 223.268335003034, -0.00112004948146664, 0.075,458.612548828125
0.00866445166666667, 223.269019293402, -0.00131260680951568, 0.0825,366.098846435547
0.00933136833333333, 223.269427068092, -0.00168665652135682, 0.08875,457.549713134766
0.00999770166666667, 223.269888137854, -0.00155408118048104, 0.095,462.296051025391
0.0106646416666667, 223.271573195714, -0.00159437215670893, 0.1025,462.296051025391
0.01149826, 223.275096831097, -0.00142792101742571, 0.11125,458.271209716797
0.0121647316666667, 223.2777731522, -0.00126194385433893, 0.11625,458.271209716797
0.012832905, 223.282016421481, -0.00113470674532827, 0.12375,461.224853515625
0.01349809, 223.285754470444, -0.00120942249242272, 0.13,470.095489501953
0.014164385, 223.290616809463, -0.00113246435794157, 0.13625,465.528076171875
0.01483163, 223.294505028142, -0.0011639087784875, 0.1425,456.725372314453
0.01549765, 223.299212409064, -0.000986635682721907, 0.15,456.725372314453
0.0161645666666667, 223.304223620533, -0.00114211037341549, 0.15625,465.406646728516
0.0168312166666667, 223.309019227644, -0.00102300735582521, 0.1625,457.56982421875
0.0174980233333333, 223.313568372283, -0.00126108739731339, 0.16875,453.265686035156
0.01816501, 223.319087033645, -0.00115400627585561, 0.17625,465.881561279297
0.0188319083333333, 223.324379182652, -0.00147253027673322, 0.18375,465.881561279297
0.0194977283333333, 223.329201607746, -0.00124089241166225, 0.19,464.789642333984
0.0201644916666667, 223.334853792694, -0.00146095535813665, 0.19625,450.096801757813
0.020831915, 223.340131148555, -0.00122920049891972, 0.20375,544.572387695313
0.021497895, 223.345311424198, -0.00141581512550537, 0.21,456.587341308594
0.0221649116666667, 223.350796005751, -0.00110258135886947, 0.215,467.114074707031
0.0228317783333333, 223.356278544417, -0.00122004045899497, 0.22375,467.114074707031
0.02349763, 223.36174226797, -0.00109261885924019, 0.23,459.693908691406
0.0241643883333333, 223.367136872615, -0.0013103029252072, 0.23625,468.877899169922
0.0248316783333333, 223.373173079608, -0.00159750099954548, 0.2425,465.948486328125
0.0254977816666667, 223.37849750028, -0.00172802294359439, 0.25,465.948486328125
0.0261647733333333, 223.384602999442, -0.00147968341742384, 0.255,461.85986328125
0.0268311133333333, 223.390276686907, -0.00158742450570407, 0.26125,458.800567626953
0.027497695, 223.39656994402, -0.00139817151168926, 0.26875,462.558410644531
0.028165025, 223.402359124316, -0.00132140386767109, 0.27625,464.255218505859
0.0288319533333333, 223.409151168553, -0.00146242228445809, 0.2825,464.255218505859
0.0294979833333333, 223.415045081933, -0.00177008533090386, 0.29,462.880615234375
0.0301647716666667, 223.421483080233, -0.0016668215177325, 0.295,464.053497314453
0.0308317216666667, 223.427120741727, -0.00195939082229403, 0.3025,466.030212402344
0.0314983066666667, 223.433225503437, -0.00200255565420992, 0.30875,455.285339355469
0.0321651116666667, 223.438860219125, -0.00192500054971001, 0.315,455.285339355469
0.0328319933333333, 223.444599310791, -0.00195335362555072, 0.3225,456.749145507813
0.0334977416666667, 223.450513164846, -0.00226221661168913, 0.32875,451.651062011719
0.0341648066666667, 223.456717696141, -0.00209200666110745, 0.335,458.456726074219
0.0348329866666667, 223.462925660262, -0.0019161389947415, 0.3425,453.482971191406
0.035497645, 223.469312872182, -0.0019216257191438, 0.34875,453.482971191406
0.0361652366666667, 223.475460491259, -0.00169268321867182, 0.355,452.510650634766
0.0368313333333333, 223.481472284015, -0.00111133641912032, 0.36125,531.489440917969
0.0374976933333333, 223.487542311966, -0.000961079966360856, 0.3675,444.214080810547
0.0381649566666667, 223.493779787879, -0.00110583019574329, 0.375,442.292877197266
0.03883123, 223.499468667189, -0.000951145965359005, 0.38,427.522308349609
0.0394977933333333, 223.505793502654, -0.00118107241643081, 0.3875,427.522308349609
0.040165055, 223.511873454291, -0.00126399725118706, 0.395,431.7861328125
0.0408318016666667, 223.518494810229, -0.00125817454365467, 0.40125,437.840423583984
0.041498595, 223.524249009228, -0.00122514020290122, 0.4075,426.7890625
0.0421649983333333, 223.530370195987, -0.00174345116866307, 0.415,426.7890625
0.0428311966666667, 223.536458633985, -0.00147491515691698, 0.42125,430.887878417969
0.04349794, 223.542993586671, -0.00165798996125206, 0.4275,412.482879638672
0.0441653216666667, 223.548703654547, -0.00196755041234426, 0.43375,413.255737304688
0.0448311383333333, 223.554527557194, -0.00177999533305149, 0.44125,419.7275390625
0.0454978916666667, 223.56057645739, -0.00133507418097782, 0.4475,419.7275390625
0.0461651283333333, 223.566923264109, -0.00155073484856351, 0.45375,399.159393310547
0.0468316166666667, 223.573306550692, -0.00168385916187716, 0.46125,404.519683837891
0.047497705, 223.579953859865, -0.00173825692954066, 0.4675,397.96337890625
0.0481650966666667, 223.587187777288, -0.00192698644983246, 0.47375,394.900939941406
0.04883187, 223.59369656377, -0.00200220467170827, 0.48,394.900939941406
0.0494977833333333, 223.600338394257, -0.00193070476304451, 0.48625,386.012115478516
0.050164935, 223.60631722953, -0.00175958735811384, 0.49375,392.698883056641
0.0508313483333333, 223.612522095778, -0.00163764048334488, 0.5,386.716094970703
0.0514976683333333, 223.618620644899, -0.00161329970596301, 0.5075,375.514099121094
0.0521655716666667, 223.62532340092, -0.00159889892932311, 0.5125,375.514099121094
0.05283134, 223.631282369786, -0.00173112328786728, 0.52,367.926422119141
0.0534978183333333, 223.637405054749, -0.00155856445528753, 0.52625,453.139495849609
0.0541645616666667, 223.643495225227, -0.00143439469223413, 0.5325,373.083801269531
0.0548312016666667, 223.649465308941, -0.00129396274599507, 0.54,374.849090576172
0.05549855, 223.655667621261, -0.0015383184722917, 0.545,367.892547607422
0.0561647833333333, 223.661960788995, -0.00123197385965144, 0.5525,367.892547607422
0.0568318433333333, 223.668323026772, -0.00124571766933895, 0.56,365.813018798828
0.0574981483333333, 223.67514334046, -0.00130706758775927, 0.565,374.802856445313
0.0581652216666667, 223.681704818368, -0.00149634458058579, 0.57125,365.399017333984
0.0588318033333333, 223.688011442588, -0.00140847599410373, 0.57875,365.399017333984
0.0594983633333333, 223.694309302492, -0.00162731950180449, 0.585,366.272705078125
0.0601650766666667, 223.700479170472, -0.00168008685134409, 0.59125,363.275207519531
0.060831275, 223.706290657347, -0.00187635649292882, 0.59875,361.652160644531
0.0614978766666667, 223.711961990011, -0.00161630405507409, 0.605,365.670806884766
0.0621653533333333, 223.718197897491, -0.00136301477752263, 0.6125,365.670806884766
0.062831205, 223.723712305299, -0.00129253781755693, 0.61875,365.534545898438
0.0634977116666667, 223.73023027746, -0.0012735667704739, 0.625,368.857818603516
0.06416452, 223.73643961591, -0.00112897553318448, 0.6325,360.392639160156
0.0648317683333333, 223.742537319541, -0.00112155990565953, 0.6375,363.224822998047
0.0654980333333333, 223.748435433874, -0.00108020098308648, 0.645,363.224822998047
0.06616472, 223.754669118503, -0.000855353276915526, 0.6525,360.190002441406
0.0668312583333333, 223.760530555578, -0.00099413980582916, 0.6575,360.226379394531
0.0674978583333333, 223.766071806256, -0.000826662718020314, 0.66375,363.568237304688
0.068165375, 223.772040395933, -0.000775191303356413, 0.67125,366.838165283203
0.0688316083333333, 223.777585044866, -0.0010349782544855, 0.6775,366.838165283203
0.0694981716666667, 223.784103015702, -0.00122857953008924, 0.685,371.519744873047
0.0701649483333333, 223.790327215928, -0.00119276582899148, 0.69125,439.929809570313
0.0708317016666667, 223.796799498414, -0.00103767211918134, 0.6975,372.087280273438
0.0714991183333333, 223.803323359858, -0.00100065847832717, 0.70375,367.859100341797
0.0721658266666667, 223.809641256135, -0.000999023560472569, 0.71,367.859100341797
0.0728319916666667, 223.815434886302, -0.00103114294719125, 0.7175,380.472198486328
0.0734984083333333, 223.821382785065, -0.0011189620361255, 0.72375,380.910705566406
0.0741654166666667, 223.827752469298, -0.00133547316101787, 0.73,378.636962890625
0.074832125, 223.834173592006, -0.00128042742588463, 0.73625,382.677398681641
0.075498275, 223.840604191683, -0.0011467841386637, 0.74375,382.677398681641
0.0761645216666667, 223.847099504786, -0.00117845654776143, 0.75,376.494262695313
0.0768311733333333, 223.853253652381, -0.000832330933317914, 0.75625,384.345855712891
0.0774991883333333, 223.859361530765, -0.000657783200618119, 0.76375,381.898895263672
0.0781663716666667, 223.865358856937, -0.000658546662266901, 0.77,394.526184082031
0.0788310166666667, 223.872113828877, -0.00107829607866926, 0.77625,394.526184082031
0.0794977233333333, 223.878277747848, -0.000982027914147443, 0.7825,397.635986328125
0.080164835, 223.884292251819, -0.00162468413418163, 0.78875,399.345764160156
0.080831925, 223.890141413422, -0.00200462405021706, 0.79625,434.350463867188
0.0814976616666667, 223.896194363491, -0.00216215063781311, 0.8025,437.125640869141
0.0821647583333333, 223.901508326891, -0.00187030579692964, 0.80875,437.125640869141
0.0828316283333333, 223.90735857053, -0.00184706296438099, 0.815,438.557006835938
0.0834976766666667, 223.913687796719, -0.00163454013919952, 0.8225,448.124603271484
0.0841645733333333, 223.920149573129, -0.00159878193530468, 0.82875,443.265594482422
0.084831925, 223.926493204254, -0.00192485055724843, 0.83625,434.902130126953
0.085498005, 223.933286193541, -0.00230602491125903, 0.8425,434.902130126953
0.0861645116666667, 223.939388310822, -0.00235751732480082, 0.84875,441.277618408203
0.0868312166666667, 223.94593878383, -0.00216764636182559, 0.855,534.60791015625
0.087497755, 223.951567198331, -0.00199227517050089, 0.8625,438.651794433594
0.0881645483333333, 223.957686116412, -0.00164585707071372, 0.86875,454.629241943359
0.0888319466666667, 223.963117712349, -0.00111893503744373, 0.875,454.629241943359
0.0894976933333333, 223.969710508883, -0.0012213213946904, 0.8825,444.238739013672
0.0901646716666667, 223.975054614679, -0.00152421168085609, 0.88875,445.354766845703
0.090831235, 223.981625999087, -0.00156124782057631, 0.895,457.306945800781
0.0914993716666667, 223.987533169361, -0.00173268770931744, 0.9025,445.719482421875
0.0921660033333333, 223.994166386585, -0.00197517002969432, 0.90875,445.719482421875
0.0928326483333333, 223.999915385443, -0.00189748593167447, 0.915,444.071380615234
0.0934993416666667, 224.006187267874, -0.00167613604982828, 0.92125,437.964721679688
0.0941659883333333, 224.012101079162, -0.00161986487628756, 0.92875,439.005554199219
0.0948315383333333, 224.017689491409, -0.00125868151816673, 0.935,431.283050537109
0.0954978283333333, 224.023602578144, -0.000817477179359451, 0.94125,431.283050537109
0.0961651633333333, 224.03001080432, -0.000881183479484882, 0.94875,435.186859130859
0.09683126, 224.036188614586, -0.00107101244455556, 0.95375,432.074371337891
0.0974977483333333, 224.04254977359, -0.0010838652989775, 0.96125,428.095642089844
0.0981645583333333, 224.049460764191, -0.00158219126856843, 0.9675,421.255828857422
0.0988315283333333, 224.055458774683, -0.00182411561700354, 0.97375,421.255828857422
0.0994977016666667, 224.061487746109, -0.00156473214556019, 0.98125,427.348510742188
0.100165065, 224.067813937097, -0.00125389075881507, 0.9875,408.717376708984
0.100832606666667, 224.074221391111, -0.00114544020620709, 0.99375,418.4541015625
0.101497726666667, 224.080467389344, -0.000846712211004333, 1.00125,408.235717773438
0.10216495, 224.087087457927, -0.00110348431361528, 1.00875,408.235717773438
0.1028315, 224.093280907752, -0.00122545968690539, 1.01375,404.624664306641
0.103497795, 224.099821762103, -0.00139026540888444, 1.02125,486.641418457031
0.104164658333333, 224.106001397368, -0.00149483265655351, 1.02875,399.196746826172
0.104831761666667, 224.112013130675, -0.00119963398404548, 1.035,409.736541748047
0.10549768, 224.117789613376, -0.00101357882941102, 1.04,409.736541748047
0.106165316666667, 224.124215834022, -0.00105737662946759, 1.0475,413.747650146484
0.106831741666667, 224.130277075843, -0.000732362454570617, 1.05375,413.598358154297
0.107498226666667, 224.136158409009, -0.000870072037571425, 1.06125,400.727691650391
0.108164641666667, 224.142365586249, -0.00116760909258545, 1.06625,404.10302734375
0.108832035, 224.148756187638, -0.00119572368040355, 1.07375,404.10302734375
0.109497728333333, 224.154707911377, -0.00101999550702835, 1.08,405.715423583984
0.110165071666667, 224.160450867885, -0.00115516121781615, 1.08625,402.366302490234
0.11083195, 224.166918920229, -0.00100703765791944, 1.09375,400.520751953125
0.111497778333333, 224.17277270822, -0.000943334357664068, 1.10125,403.288391113281
0.112165405, 224.178447691032, -0.000425501867871879, 1.10625,403.288391113281
0.112831451666667, 224.184156093881, -0.00033916770435191, 1.11375,401.863342285156
0.113497735, 224.190723789095, -0.000650549063988468, 1.12,395.26318359375
0.114165613333333, 224.196104151693, -0.000513961424632585, 1.1275,407.104095458984
0.11483126, 224.202248750446, -0.000389479677239551, 1.1325,410.219360351563
0.115498276666667, 224.208627097151, -0.00074256794195322, 1.13875,410.219360351563
0.116164548333333, 224.214922049152, -0.000758921620527481, 1.1475,412.908325195313
0.116831986666667, 224.220378712092, -0.000434346923565677, 1.15375,401.847900390625
0.117497958333333, 224.226525135174, -0.000529680635077997, 1.15875,397.126525878906
0.118164561666667, 224.232318985617, -0.000498933679485853, 1.1675,405.206481933594
0.118831233333333, 224.237859994307, -0.000415686360897886, 1.17375,405.206481933594
0.119497725, 224.243331344511, -0.000244424963160744, 1.17875,484.490447998047
0.120165266666667, 224.249662301961, -0.000248966735018956, 1.1875,404.811553955078
0.120831475, 224.255860983621, -2.98877391018721E-05, 1.19375,398.150573730469
0.121497773333333, 224.261788860322, 0.000222669575234533, 1.2,412.641540527344
0.122165126666667, 224.268380138794, 1.26276253986267E-05, 1.20625,412.641540527344
0.122831721666667, 224.274839372347, -0.000296733335726678, 1.2125,412.962554931641
0.123497771666667, 224.280364808748, -0.000219341723050481, 1.22,413.612091064453
0.124165018333333, 224.286373736586, -0.000295330906218345, 1.22625,411.194915771484
0.124831508333333, 224.292411286095, -0.000675680301679635, 1.23125,415.785888671875
0.125497703333333, 224.298097790129, -0.000503808434625351, 1.23875,415.785888671875
0.126165066666667, 224.303973749871, -0.000519493146809488, 1.24625,408.907379150391
0.126831811666667, 224.310053569015, -0.000777192202829171, 1.2525,410.834777832031
0.12749773, 224.316097272006, -0.000894723299368533, 1.25875,416.203369140625
0.12816492, 224.321977283958, -0.000940862481801163, 1.26625,427.067840576172
0.128832646666667, 224.327827925985, -0.00108666565824221, 1.27125,427.067840576172
0.129497768333333, 224.333724181064, -0.000700922533691627, 1.27875,423.14453125
0.130165085, 224.339568969095, -0.000732830430984434, 1.28625,428.402282714844
0.130831248333333, 224.34548426112, -0.000932821385630019, 1.2925,420.697113037109
0.13149792, 224.351595897986, -0.000960031518905421, 1.29875,422.715728759766
0.132164585, 224.357868578277, -0.00129206384129672, 1.305,422.715728759766
0.132831461666667, 224.363576134476, -0.00173398964384824, 1.3125,423.715362548828
0.133497868333333, 224.370329328275, -0.00152401519065299, 1.31875,428.301239013672
0.134164461666667, 224.375810664878, -0.00130681560035325, 1.325,424.306793212891
0.134831288333333, 224.38209124605, -0.00130003294103275, 1.33125,438.583618164063
0.135498086666667, 224.387360016435, -0.0006982316688871, 1.33875,438.583618164063
0.136164518333333, 224.393412506437, -0.000394115944313914, 1.345,523.052551269531
0.136831266666667, 224.398514009196, -0.000209046240182429, 1.35125,427.536468505859
0.137497676666667, 224.404431519535, -9.49679702357357E-05, 1.35875,431.782745361328
0.138165346666667, 224.410289791674, -7.13726554098082E-05, 1.365,445.209136962891
0.138831266666667, 224.417071378607, -0.000359373189452614, 1.37,445.209136962891
0.139497733333333, 224.423138168384, -0.000264814939026811, 1.3775,432.376495361328
0.140164613333333, 224.429653114859, -0.000626853254227523, 1.385,429.727386474609
0.140831806666667, 224.43572715486, -0.000644622861693508, 1.39,431.397430419922
0.141497691666667, 224.441887456149, -0.000576688273952655, 1.39625,436.100463867188
0.142165186666667, 224.447846705142, -0.000531402548590495, 1.405,436.100463867188
0.142831301666667, 224.453789226266, -0.000564939364082797, 1.41,435.193450927734
0.143497718333333, 224.459188126288, -0.000439479665808806, 1.41625,436.108184814453
0.144165243333333, 224.465236900708, -0.000391935053912766, 1.42375,439.394012451172
0.144831585, 224.47064715528, -0.000333961465898038, 1.43125,433.018768310547
0.145498435, 224.475967033787, -0.000481602050030635, 1.43625,433.018768310547
0.14616523, 224.481650463156, -0.000791814968365769, 1.44375,436.173583984375
0.146831465, 224.487928348831, -0.000914564302796737, 1.45,435.994201660156
0.147497801666667, 224.494189503618, -0.00086363736079749, 1.4575,427.228454589844
0.148165263333333, 224.499633069308, -0.000648966643487982, 1.46375,433.850372314453
0.148832153333333, 224.505812540931, -0.000578950160335341, 1.47,433.850372314453
0.149497771666667, 224.511786587619, -0.000441704054060157, 1.47625,431.05322265625
0.150164471666667, 224.517411603967, -0.000418138737743549, 1.4825,434.256805419922
0.150831005, 224.522539682435, -0.000449247175223149, 1.49,428.873596191406
0.151498408333333, 224.528544976047, -0.000557391743252866, 1.49625,428.9775390625
0.152164575, 224.53410803934, -0.000587783216740184, 1.50375,428.9775390625
0.152831805, 224.539669791159, -0.000327154807850841, 1.51,515.78369140625
0.153498535, 224.545178962707, 2.80078527163618E-05, 1.515,431.947448730469
0.15416542, 224.551472724217, 2.36820700359811E-05, 1.5225,440.4140625
0.154832496666667, 224.55712615915, -0.000102745079605636, 1.53,433.197845458984
0.155499371666667, 224.562722962937, 0.00025699685092986, 1.53625,433.197845458984
0.15616492, 224.568163280962, 0.000151730638318839, 1.54125,432.74755859375
0.156831736666667, 224.573675421386, 0.000324847442819115, 1.54875,417.10986328125
0.1574982, 224.579024726351, 0.000243685019491742, 1.555,428.188232421875
0.158164591666667, 224.584884467443, 0.000177425847606885, 1.56125,437.655853271484
0.158831743333333, 224.590355505442, -4.49634819782871E-05, 1.56875,437.655853271484
0.159497925, 224.596192955446, 1.56484735506158E-05, 1.575,431.755523681641
