Time (min), Depth (µm), Load (N), Position (µm), Acoustic (aJ)
7.18333333333333E-06, 228.275042210662, 0.000396649245599752, 0,104.370590209961
0.000667706666666667, 228.275730210093, 0.000393170920313482, 0.00124999999862041,103.299179077148
0.00133309666666667, 228.276326878996, 0.000336071788353378, 0.00499999999981071,102.686111450195
0.00199981166666667, 228.278173314709, 0.000338633659659224, 0.0137499999990354,105.644500732422
0.00266634333333333, 228.280865009963, 0.000120363123186783, 0.02249999999826,105.644500732422
0.00333314666666667, 228.28431961168, 0.000272158498660298, 0.0299999999988643,98.4683151245117
0.00399972833333333, 228.287843430286, 6.93806839633613E-05, 0.0362499999990717,105.112251281738
0.00466634333333333, 228.291408397159, 0.000525515272788656, 0.0424999999992792,102.981147766113
0.00533321833333333, 228.29476024656, 0.000426505245990091, 0.0499999999998835,106.359275817871
0.00599968666666667, 228.298064783483, 0.000357630205499616, 0.0574999999987114,106.359275817871
0.00666633666666667, 228.301419057459, 0.000237634732740619, 0.0649999999993156,103.457542419434
0.007333045, 228.30765634302, 0.000157063279798163, 0.0737499999985403,128.42756652832
0.00816678, 228.311958473377, -0.000129390831951089, 0.078749999998351,107.183448791504
0.00883311833333333, 228.317039879236, -5.27881796172755E-05, 0.0862499999989552,104.385482788086
0.00949969666666667, 228.321778846666, 4.84147370626808E-05, 0.0924999999991627,97.5727157592773
0.01016644, 228.327027217208, -6.36401148426386E-06, 0.0999999999997669,97.5727157592773
0.010833195, 228.331128114044, 0.000227861223628663, 0.104999999999578,99.1226348876953
0.01149972, 228.335762559053, 0.000586977685560476, 0.112499999998406,103.925720214844
0.0121663433333333, 228.340223786348, 0.00072432278686753, 0.11999999999901,102.319709777832
0.0128338666666667, 228.344666877523, 0.00066940154552353, 0.12499999999882,102.509918212891
0.0134996866666667, 228.349407121143, 0.000442699932535098, 0.131249999999028,102.509918212891
0.014168735, 228.354488278984, 0.000431496995254297, 0.139999999998253,97.8676681518555
0.01483322, 228.358808914101, 0.000240403593677878, 0.14499999999984,104.205490112305
0.01549991, 228.363569897534, -8.02712991553243E-05, 0.151249999998271,107.493354797363
0.0161663433333333, 228.36764585533, -0.000121789213715116, 0.157499999998478,103.439491271973
0.0168332733333333, 228.371723406875, -9.67134528229155E-06, 0.164999999999083,103.439491271973
0.0174997, 228.375315176002, -0.00013959031959357, 0.169999999998893,110.531394958496
0.0181664283333333, 228.379105897715, -0.000276539440794401, 0.177499999999498,101.359146118164
0.01883302, 228.382743782091, -0.000424390014407216, 0.183749999999705,107.374664306641
0.0194996816666667, 228.386341090146, -0.000462993575426396, 0.189999999999912,102.619941711426
0.0201664483333333, 228.389724615547, -0.00034026374001267, 0.196249999998344,102.619941711426
0.0208334683333333, 228.393679642372, -0.000232095173192501, 0.203749999998948,108.01782989502
0.0214998116666667, 228.397954682344, -6.2359198828521E-05, 0.209999999999155,106.390350341797
0.0221663283333333, 228.402077765049, 0.00040735270801176, 0.21749999999976,105.11767578125
0.022833705, 228.406785504193, 0.00051926808662889, 0.223749999999967,102.330795288086
0.023499675, 228.411490188259, 0.000407531199037002, 0.229999999998398,102.330795288086
0.0241663333333333, 228.416457458647, 0.000360288071988525, 0.237499999999002,122.929077148438
0.0248332516666667, 228.421034869857, 0.000112683508881841, 0.24374999999921,106.708358764648
0.02549968, 228.42618159181, -0.000112858662351586, 0.249999999999417,107.744102478027
0.0261668083333333, 228.430654475625, -0.000367239885038656, 0.256249999999625,106.710334777832
0.0268330583333333, 228.435060163281, -0.000191382718164784, 0.263749999998453,106.710334777832
0.0274996816666667, 228.439706093954, -0.000165750505659167, 0.26999999999866,102.282501220703
0.028166515, 228.444534623814, -0.00031388906482117, 0.276249999998868,101.848258972168
0.02883301, 228.449077869743, -0.000341154695278238, 0.283749999999472,101.495429992676
0.0294997233333333, 228.453282981441, -0.000101829716322816, 0.288749999999283,101.451354980469
0.0301667833333333, 228.458149844867, -0.00088187153562294, 0.296249999999887,101.451354980469
0.0308333433333333, 228.462299850594, -0.00082835422373293, 0.303749999998715,101.990699768066
0.0314996933333333, 228.466657256746, -0.00069912071502272, 0.309999999998922,104.445915222168
0.0321663416666667, 228.470770408619, -0.000854227924173742, 0.31624999999913,105.351661682129
0.0328335866666667, 228.475368823011, -0.000774475430061735, 0.322499999999337,101.1787109375
0.0334996883333333, 228.479020423913, -0.000164756055652282, 0.329999999999941,101.1787109375
0.0341663833333333, 228.482955007004, 1.34799917502388E-05, 0.336249999998373,103.158897399902
0.0348330416666667, 228.487049687491, 6.45434465514964E-06, 0.34249999999858,107.176307678223
0.0354996833333333, 228.491037772486, 0.000126283325762876, 0.348749999998788,103.233703613281
0.0361666416666667, 228.495343603617, 5.49919066549253E-05, 0.356249999999392,101.401214599609
0.036833065, 228.499399893257, 9.1008097632149E-05, 0.362499999999599,101.401214599609
0.037499695, 228.504087656145, -0.000212825641110717, 0.368749999999807,104.921852111816
0.03816634, 228.507699191251, -1.87773879497813E-05, 0.376249999998635,105.412452697754
0.0388331033333333, 228.511750325376, 0.000208203211083927, 0.382499999998842,103.55517578125
0.0394997166666667, 228.516054432715, 0.000205767333470463, 0.38874999999905,102.786056518555
0.040166395, 228.520884460554, 0.000217852226427904, 0.394999999999257,102.786056518555
0.0408332583333333, 228.525126723848, 0.000323524918594716, 0.402499999999861,123.283020019531
0.0414996816666667, 228.530306699617, 0.00045570277941862, 0.408749999998292,106.639381408691
0.0421663883333333, 228.534806282173, 0.000436079265071397, 0.4149999999985,104.086547851563
0.0428344683333333, 228.539929948161, 0.00032429887965056, 0.422499999999104,105.673362731934
0.0434997283333333, 228.544855753258, 0.00028084306240044, 0.428749999999312,105.673362731934
0.0441663316666667, 228.54999083011, 0.000494082851616698, 0.434999999999519,104.05591583252
0.0448333983333333, 228.555034190885, 0.000672671381296493, 0.441249999999727,104.71321105957
0.0454997333333333, 228.560164312271, 0.000921213397240229, 0.448749999998554,104.353050231934
0.0461665483333333, 228.565084305694, 0.000998771501567696, 0.456249999999159,99.7943878173828
0.0468332733333333, 228.570363629911, 0.000958894504560118, 0.462499999999366,99.7943878173828
0.0474998816666667, 228.575508624715, 0.00102931146759219, 0.468749999999574,103.845672607422
0.048166655, 228.580865834667, 0.00063099297476179, 0.474999999999781,105.004325866699
0.0488334066666667, 228.586595698172, 0.000179098672947145, 0.481249999999989,101.498481750488
0.0494997033333333, 228.591545598519, 0.000396941730922149, 0.488749999998817,106.760231018066
0.0501663466666667, 228.597194852534, 0.000472090956232902, 0.496249999999421,106.760231018066
0.0508331716666667, 228.602353327503, 0.000111303578197049, 0.501249999999231,106.653457641602
0.0514996733333333, 228.607162651675, 0.000444384347852497, 0.507499999999439,103.741073608398
0.0521665183333333, 228.611511104171, 0.000609926532862329, 0.514999999998267,104.911689758301
0.052833095, 228.616729797637, 0.000660862474386742, 0.522499999998871,103.878608703613
0.053499725, 228.621046170683, 0.000834280763755835, 0.528749999999079,103.878608703613
0.0541672, 228.625545773701, 0.000711708420425705, 0.533749999998889,104.540267944336
0.05483327, 228.629653293879, 0.000741945401699488, 0.54249999999989,106.128311157227
0.0554997633333333, 228.634438830299, 0.000763535317258194, 0.547499999999701,107.261810302734
0.0561664283333333, 228.63867511311, 0.000718792564636284, 0.554999999998529,107.277572631836
0.05683329, 228.64313254802, 0.000403631394887146, 0.561249999998736,107.277572631836
0.057499675, 228.647859897034, 0.000460543036275589, 0.567499999998944,127.227386474609
0.0581667733333333, 228.652379451885, 0.000245482338557472, 0.573749999999151,100.471076965332
0.0588332733333333, 228.656875901965, 1.93731957933438E-05, 0.581249999999756,109.936492919922
0.0594997816666667, 228.661366999634, -0.000263223109668089, 0.587499999999963,99.0393524169922
0.0601664533333333, 228.665965576678, -0.000142813657731286, 0.594999999998791,99.0393524169922
0.06083299, 228.670029943118, -8.8718855115929E-06, 0.599999999998602,105.960601806641
0.0614997833333333, 228.67455833582, -3.51250668689376E-05, 0.606249999998809,112.35652923584
0.0621663416666667, 228.678906806678, 8.45464221551929E-05, 0.61499999999981,110.386360168457
0.0628332083333333, 228.683020844113, 0.000403406406120387, 0.621250000000018,104.877380371094
0.0634996716666667, 228.68705579253, 0.0002989906508373, 0.626249999999828,104.877380371094
0.06416633, 228.691112516544, 0.000155671349611874, 0.633749999998656,107.110900878906
0.064833455, 228.69533180893, -4.61030154892505E-05, 0.64124999999926,105.095657348633
0.065499695, 228.699603861512, 4.28200179970782E-05, 0.647499999999468,105.284530639648
0.0661664383333333, 228.703741043535, -0.000327644873925161, 0.652499999999279,109.49462890625
0.0668333483333333, 228.707563566632, -0.000528991760465086, 0.661249999998503,109.49462890625
0.0674997, 228.711331923133, -0.000174772552517566, 0.667499999998711,110.828018188477
0.0681668433333333, 228.714835868233, 0.000195717838162037, 0.672499999998522,107.015960693359
0.06883307, 228.718232583486, -4.2674187644526E-05, 0.679999999999126,103.930137634277
0.069499725, 228.72190800191, 2.37484760427944E-05, 0.68749999999973,107.410575866699
0.0701663633333333, 228.725932952632, 8.92441862151063E-05, 0.693749999999937,107.410575866699
0.07083326, 228.729513483602, -3.79374255926362E-05, 0.699999999998369,106.151916503906
0.0714997983333333, 228.733482642558, -0.000298943815516617, 0.706249999998576,104.401809692383
0.0721663366666667, 228.737500336605, -0.000358010848612607, 0.712499999998784,104.879524230957
0.0728331916666667, 228.74160143838, -0.000582149090413298, 0.719999999999388,102.411766052246
0.0734997016666667, 228.744569476092, -0.000396348922969902, 0.726249999999595,102.411766052246
0.074166805, 228.748085305542, -0.000698873227474928, 0.732499999999803,127.223518371582
0.0748335183333333, 228.751321430992, -0.000442189620446284, 0.73875000000001,107.772727966309
0.0754996733333333, 228.754177236228, -1.32966633088593E-05, 0.746249999998838,104.349639892578
0.0761668316666667, 228.757175115941, 0.000177658745243714, 0.751249999998649,101.242172241211
0.0768330983333333, 228.7601946552, 8.93311818730034E-05, 0.758749999999253,101.242172241211
0.0774997466666667, 228.763928837255, 0.000267753219922782, 0.764999999999461,107.821571350098
0.078166475, 228.767455738537, 0.000121602060977669, 0.772499999998288,99.655891418457
0.0788332633333333, 228.771709159382, -0.000224642047557467, 0.778749999998496,104.648452758789
0.079499835, 228.775319291362, -0.000184376570086937, 0.784999999998703,106.856590270996
0.080166355, 228.779212004262, -0.000133374631888781, 0.792499999999308,106.856590270996
0.0808330516666667, 228.783174011465, 7.13365856615127E-05, 0.798749999999515,99.120231628418
0.0814996733333333, 228.787081991807, -0.000171385722641149, 0.804999999999723,98.8604049682617
0.0821663416666667, 228.790254763995, -0.0002774198966104, 0.81124999999993,102.327537536621
0.0828332166666667, 228.793465003049, -0.000349440279105859, 0.818749999998758,105.192710876465
0.0834996916666667, 228.797568042608, -0.000683854481810853, 0.824999999998965,105.192710876465
0.084166375, 228.801006853274, -0.00107830316906448, 0.831249999999173,104.739990234375
0.08483316, 228.804654282759, -0.00112510081848017, 0.83749999999938,104.032989501953
0.0854997283333333, 228.808317104959, -0.00116882512228349, 0.843749999999588,101.059776306152
0.0861664933333333, 228.812315905156, -0.00113305341906902, 0.852499999998813,101.059776306152
0.0868332, 228.81587665683, -0.00065364899905581, 0.85874999999902,107.351005554199
0.087499885, 228.819728580298, -0.000493940021091698, 0.863749999998831,109.27400970459
0.088166335, 228.823382614055, -0.000272422147691089, 0.869999999999038,100.113296508789
0.0888330416666667, 228.827092499645, 2.1969565360465E-05, 0.877499999999642,106.806205749512
0.0894998883333333, 228.830920515168, -1.33611600156911E-05, 0.88374999999985,121.589027404785
0.0901664233333333, 228.834272982075, -0.000219387811522691, 0.891249999998678,121.589027404785
0.0908336116666667, 228.837801863898, -0.000277850374977897, 0.897499999998885,103.471221923828
0.0914996866666667, 228.840928505556, -1.48280862946182E-05, 0.903749999999093,106.058662414551
0.0921664033333333, 228.844106310432, -0.000303517085766044, 0.9099999999993,103.741477966309
0.0928339866666667, 228.847036091209, -0.000601741106263036, 0.916249999999508,106.21475982666
0.0934997616666667, 228.850937322309, -0.00067397147821746, 0.923749999998336,106.21475982666
0.094166365, 228.853908991804, -0.000689228711840398, 0.929999999998543,103.898834228516
0.0948334733333333, 228.857340458108, -0.000649093727771697, 0.936249999998751,103.511558532715
0.0954997183333333, 228.860659915839, -0.000468966275377857, 0.943749999999355,104.818031311035
0.096166335, 228.863825576683, -0.000188973839126816, 0.949999999999562,104.788352966309
0.0968331016666667, 228.866859407647, 3.65803315230913E-05, 0.95624999999977,104.788352966309
0.0974997483333333, 228.870508110606, 0.000132313022926678, 0.963749999998598,106.293571472168
0.0981663383333333, 228.873797145134, -5.59905188133457E-05, 0.969999999998805,103.163421630859
0.0988330433333333, 228.877253330255, -6.93548475418156E-05, 0.976249999999013,106.425773620605
0.0994996583333333, 228.880821051633, -0.000208172874846663, 0.98249999999922,106.149574279785
0.100166415, 228.884158409326, -0.000289309799416672, 0.989999999999824,106.149574279785
0.1008331, 228.887293046732, -0.000649443210285181, 0.996249999998255,101.291999816895
0.101499866666667, 228.890844403033, -0.000785271887722984, 1.00249999999846,107.963874816895
0.102166358333333, 228.894459463063, -0.000865250870483645, 1.00874999999867,103.762390136719
0.10283332, 228.8979836175, -0.000679597695674277, 1.01499999999888,105.565734863281
0.103499776666667, 228.901425390074, -0.000757359789784349, 1.02249999999948,105.565734863281
0.104166363333333, 228.904275254911, -0.000579149241117938, 1.0249999999985,102.323066711426
0.104833035, 228.90696833488, -0.000507992815248788, 1.0349999999999,105.821113586426
0.105499683333333, 228.909774747477, -0.000366878403257471, 1.04249999999873,106.040977478027
0.10616636, 228.913099907281, -0.000657698795624737, 1.04874999999893,123.423805236816
0.106833868333333, 228.91555927808, -0.000748486235484381, 1.05499999999914,123.423805236816
0.107500466666667, 228.919293602848, -0.000625529911464509, 1.06249999999974,109.966766357422
0.10816634, 228.922512805067, -0.000902927478072832, 1.06874999999995,109.673477172852
0.108833038333333, 228.926224888008, -0.00132708967283473, 1.07499999999838,102.539772033691
0.109500863333333, 228.928814667302, -0.000987926708661361, 1.08124999999859,99.5356292724609
0.110166535, 228.932928319789, -0.00110156400076973, 1.08874999999919,99.5356292724609
0.110833206666667, 228.93589192446, -0.0013479626244224, 1.0949999999994,108.951789855957
0.111499703333333, 228.9395750268, -0.00118876212091601, 1.10124999999961,100.301788330078
0.112166336666667, 228.942626095347, -0.00123468981400778, 1.10874999999844,97.4925918579102
0.11283327, 228.946502584097, -0.00125114548746272, 1.11499999999864,108.462287902832
0.113499765, 228.949760491833, -0.000949557135912853, 1.12124999999885,108.462287902832
0.114166433333333, 228.953265195857, -0.00082337597387337, 1.12874999999946,105.970748901367
0.114833136666667, 228.956779295024, -0.000500662683457329, 1.13499999999966,106.394027709961
0.115500275, 228.960422147714, 4.7114321159902E-06, 1.14124999999987,103.70108795166
0.116166326666667, 228.964175373752, -0.000150578767790976, 1.1474999999983,103.164108276367
0.11683325, 228.967684868013, -0.00038995324427296, 1.15499999999891,103.164108276367
0.117499745, 228.971615826636, -0.000200284771155939, 1.16124999999911,101.295547485352
0.11816634, 228.975354713241, -0.000498088812735003, 1.16624999999893,101.933441162109
0.118833508333333, 228.978727697624, -0.000408235825927367, 1.17374999999953,102.001457214355
0.119499685, 228.981971527164, -0.000128760863659212, 1.18124999999836,104.385787963867
0.120166406666667, 228.985182434562, 0.00037083104236186, 1.18749999999856,104.385787963867
0.120833041666667, 228.98866834855, 0.000250499586494026, 1.19374999999877,106.601943969727
0.121499683333333, 228.992585350175, 0.000249445139468503, 1.20124999999938,106.483894348145
0.122167306666667, 228.996340538342, 0.000107594264488915, 1.20749999999958,102.61190032959
0.122833071666667, 229.000272302872, -2.00703230616929E-05, 1.21374999999979,119.778060913086
0.123500921666667, 229.004138477018, -0.000262609640565903, 1.22,119.778060913086
0.124166343333333, 229.007730927776, -5.5668035002883E-05, 1.22749999999883,104.600540161133
0.124833036666667, 229.011330941658, 5.2974507992478E-05, 1.23374999999903,100.729385375977
0.125499868333333, 229.015319901256, -0.000168688858096501, 1.24124999999964,104.33228302002
0.126167106666667, 229.01900120159, -6.97208291387187E-05, 1.24624999999945,101.09789276123
0.12683298, 229.022899729596, -4.02562895701115E-06, 1.25374999999828,101.09789276123
0.127499773333333, 229.026089602681, -7.11082594455272E-05, 1.25999999999848,102.919891357422
0.128166423333333, 229.029171854297, 9.87492087738626E-05, 1.26624999999869,104.418586730957
0.128833048333333, 229.031930823596, 0.000401221015903521, 1.27499999999969,104.978141784668
0.129499751666667, 229.035137058502, 0.000608863086247878, 1.2799999999995,101.224159240723
0.130166438333333, 229.038175207982, 0.000701664924899909, 1.28624999999971,101.224159240723
0.130833255, 229.041390922487, 0.000773730305084957, 1.29499999999894,104.647399902344
0.131499696666667, 229.045025165793, 0.000599262068442297, 1.30124999999914,103.56795501709
0.132166626666667, 229.048779467391, 0.000505572274394759, 1.30624999999895,105.931327819824
0.132833716666667, 229.05198402451, 0.000239110658502204, 1.31249999999916,106.470848083496
0.133499735, 229.05558829851, 4.84447354657295E-05, 1.31999999999977,106.470848083496
0.134166375, 229.059038507699, 0.000184801386442257, 1.32749999999859,110.517936706543
0.134833021666667, 229.062263849177, 0.00020425990904136, 1.3337499999988,98.3633117675781
0.13549986, 229.065690365227, 0.00011385944974152, 1.33874999999861,103.242797851563
0.136166855, 229.069163501876, 0.000190219114258243, 1.34624999999922,106.068748474121
0.136833106666667, 229.07262959904, 0.000215677335490574, 1.35374999999982,106.068748474121
0.137499833333333, 229.075941586123, -4.73029552881601E-05, 1.35999999999825,100.332077026367
0.138166373333333, 229.079511190121, 0.000166952282876629, 1.36624999999846,104.866630554199
0.138833036666667, 229.082742366973, 0.00027196200835093, 1.37249999999867,102.609230041504
0.139500021666667, 229.086362545887, 0.000167499755368834, 1.37999999999927,122.685127258301
0.140166348333333, 229.089444924574, 0.000459983564218125, 1.38624999999948,122.685127258301
0.140833258333333, 229.09345625368, 0.000303154441554604, 1.39249999999969,100.057342529297
0.141499706666667, 229.096441241218, 0.000141936539385767, 1.39999999999851,108.97647857666
0.142166756666667, 229.100241119054, 0.000149983635190761, 1.40624999999872,105.310394287109
