Time (min), Depth (µm), Load (N), Position (µm), Acoustic (aJ)
8.08333333333333E-06, 228.235064038463, -0.000403857498581205, 0,100.721305847168
0.00066626, 228.235199317457, -0.000176231931969079, 0.00124999999862041,101.936584472656
0.001331485, 228.235781292059, 1.73003471121192E-05, 0.00499999999981071,106.199150085449
0.00199793166666667, 228.2377211758, -6.7860875333216E-05, 0.0137499999990354,106.199150085449
0.0026647, 228.240503554749, 5.78838086411563E-05, 0.0212499999996396,107.709274291992
0.00333123833333333, 228.24429453357, -0.000101723174463533, 0.0287499999984675,129.048400878906
0.00399817833333333, 228.248839091268, -0.000396521367070879, 0.0374999999994685,104.680709838867
0.00483133833333333, 228.255478458354, -0.000728924170811039, 0.0449999999982964,100.86653137207
0.00549854833333333, 228.259191722114, -0.00103649122200998, 0.0512499999985039,102.888572692871
0.006165365, 228.262665784422, -0.000982582429829468, 0.0587499999991081,102.888572692871
0.006831155, 228.265381637275, -0.000860968538363053, 0.0662499999997124,106.72225189209
0.00749803, 228.26843018142, -0.000816386277694799, 0.074999999998937,103.644096374512
0.00833125166666667, 228.271417279665, -0.000721634536978468, 0.0799999999987477,106.951545715332
0.00899805666666667, 228.274449899731, -0.000784031402844805, 0.0887499999997488,103.46410369873
0.00966488666666667, 228.27768451935, -0.00102553277251318, 0.0937499999995595,103.26261138916
0.01033119, 228.281380783638, -0.00115918205941048, 0.0999999999997669,103.26261138916
0.0109982133333333, 228.285139735898, -0.000937349201842676, 0.107499999998595,104.087219238281
0.0116645983333333, 228.289003613371, -0.000713912924811489, 0.113749999998802,104.545455932617
0.0123317566666667, 228.294070005491, -0.000391469620830543, 0.11999999999901,108.22265625
0.0129979716666667, 228.298449353432, -1.77153941180987E-05, 0.127499999999614,108.742149353027
0.013664575, 228.30312405579, 0.000285983351428474, 0.133749999999822,108.742149353027
0.0143312233333333, 228.307517450834, 0.000202704534428039, 0.139999999998253,103.149505615234
0.01499795, 228.31237993529, 0.00022855123616583, 0.14624999999846,107.759132385254
0.0156653, 228.316510691406, 0.000154354462999924, 0.152499999998668,106.524925231934
0.016331195, 228.321136491492, -2.94163063857983E-05, 0.159999999999272,100.599807739258
0.016997935, 228.324842985828, -7.23756485734237E-05, 0.166249999999479,100.599807739258
0.0176647, 228.329548009736, 0.000178077271442637, 0.172499999999687,102.35425567627
0.0183328033333333, 228.333901710508, 0.000118702753758963, 0.179999999998515,100.752639770508
0.0189982816666667, 228.33826537278, 4.98772108163037E-05, 0.186249999998722,101.059539794922
0.019664835, 228.342646790672, -0.000100364242720387, 0.189999999999912,124.138824462891
0.020331545, 228.346784260109, -0.000393664010593828, 0.198749999999137,124.138824462891
0.0209980083333333, 228.350965536296, -0.000416522862410232, 0.204999999999345,102.745742797852
0.0216650316666667, 228.354693185353, -0.000610583114966393, 0.213749999998569,104.139991760254
0.0224979733333333, 228.360750761907, -0.000437908788207587, 0.221249999999173,103.207168579102
0.0231647416666667, 228.365294558383, -0.000296593386324979, 0.227499999999381,106.663703918457
0.0238311916666667, 228.369996085328, -0.00030073317840061, 0.233749999999588,104.947746276855
0.0244981583333333, 228.375166791457, -0.000335241945055002, 0.239999999999796,104.947746276855
0.0251647366666667, 228.379973469723, -0.000342161097538714, 0.248749999999021,103.739868164063
0.025998125, 228.385495694421, -0.000407767802159375, 0.254999999999228,103.752883911133
0.02666471, 228.390267871083, -0.000665511855953664, 0.261249999999436,106.709548950195
0.0273313766666667, 228.395878319763, -0.000972927414787878, 0.268749999998263,101.506546020508
0.0279981383333333, 228.400785832633, -0.000943465894579358, 0.274999999998471,106.187370300293
0.0286646916666667, 228.405380469855, -0.000708555193886617, 0.279999999998282,106.187370300293
0.0293314066666667, 228.410301621065, -0.000725178858895973, 0.288749999999283,100.115859985352
0.0299981333333333, 228.415134138389, -0.000474454452520414, 0.29499999999949,103.879585266113
0.03066537, 228.420160486251, -0.000227769343285469, 0.301249999999698,105.370185852051
0.0313312966666667, 228.424854636101, -0.000366801859864999, 0.307499999999905,103.363914489746
0.0319980266666667, 228.429902321408, -0.000561051102917225, 0.314999999998733,103.363914489746
0.0326649916666667, 228.434511772454, -0.000709275157812722, 0.32124999999894,102.442016601563
0.0333312416666667, 228.439624865867, -0.000793384933060087, 0.327499999999148,104.802192687988
0.0339979416666667, 228.444229892642, -0.000542719023736255, 0.334999999999752,101.218276977539
0.0346648766666667, 228.449215773137, -0.000267395852917703, 0.34124999999996,100.26594543457
0.0353311933333333, 228.454139660545, -0.000241087174378692, 0.347499999998391,100.26594543457
0.0359981966666667, 228.458806138222, 0.000272818512709399, 0.354999999998995,103.910095214844
0.036664905, 228.464199189757, 0.000230376644525914, 0.361249999999202,118.635314941406
0.037331375, 228.469344674174, -4.6632441598203E-05, 0.36749999999941,105.992744445801
0.0379981283333333, 228.474544990534, -5.55899916647538E-05, 0.373749999999617,104.255722045898
0.038664805, 228.479733722715, -0.000100835219046772, 0.381249999998445,104.255722045898
0.039331595, 228.485119002738, -0.000263692538907182, 0.387499999998653,108.456520080566
0.0399980483333333, 228.489745073469, -0.000122612625219648, 0.39374999999886,103.435775756836
0.040664565, 228.494770272431, -6.67719300251639E-05, 0.401249999999465,106.363349914551
0.04133167, 228.499809212682, -0.000256534898422098, 0.407499999999672,107.191787719727
0.0419980616666667, 228.504445026715, -0.000178252330459079, 0.413749999999879,107.191787719727
0.0426652833333333, 228.50958276913, -0.000302210604171614, 0.419999999998311,99.8065338134766
0.0433318533333333, 228.514535342501, -0.000202095132854052, 0.427499999998915,102.662963867188
0.043998115, 228.51927903915, -8.05922358147323E-05, 0.433749999999122,100.462776184082
0.0446647483333333, 228.524262042892, 0.000124099482739573, 0.441249999999727,103.163772583008
0.0453314966666667, 228.529881568626, 0.000242215549902476, 0.446249999999537,103.163772583008
0.0459984033333333, 228.535032445978, 0.000431693532620283, 0.453749999998365,103.806243896484
0.0466650383333333, 228.540603306088, 0.000308131239013971, 0.459999999998573,102.369613647461
0.04733126, 228.545958676179, 0.000401753536463362, 0.46624999999878,96.6116180419922
0.04799805, 228.551464185861, 0.000334987390045187, 0.473749999999384,106.497650146484
0.0486650116666667, 228.55646707947, 0.000695065303668267, 0.479999999999592,106.497650146484
0.0493315583333333, 228.561533100722, 0.000495560324614354, 0.486249999999799,101.315704345703
0.0499982233333333, 228.566823158082, 0.000641541992123153, 0.492500000000007,104.126434326172
0.05066484, 228.571839207049, 0.000794754796412795, 0.501249999999231,99.3230361938477
0.05133121, 228.576946182867, 0.000824082823306917, 0.507499999999439,109.385124206543
0.0519981716666667, 228.582282430633, 0.000318530216687101, 0.51249999999925,109.385124206543
0.052665005, 228.587261769106, 0.000353512959537939, 0.519999999999854,129.125579833984
0.0533315416666667, 228.592382278862, 0.000513397428678486, 0.527499999998682,104.369247436523
0.053998305, 228.597577461312, 0.000210184658723585, 0.532499999998493,101.339309692383
0.0546648883333333, 228.602689579405, 0.000240814620212276, 0.5387499999987,104.636825561523
0.05533124, 228.607991115894, 0.000230945115959765, 0.547499999999701,104.636825561523
0.0559988166666667, 228.613772954266, 0.000148485257832288, 0.553749999999908,108.98802947998
0.0566646383333333, 228.619158283327, -6.93543556152407E-06, 0.55999999999834,99.4091339111328
0.0573318916666667, 228.624516945192, 0.000159962681321394, 0.564999999999927,101.652069091797
0.0579989816666667, 228.62936306425, 0.000208750730739022, 0.572499999998755,105.82453918457
0.0586648116666667, 228.634864106429, 0.000155945883025576, 0.579999999999359,105.82453918457
0.0593312483333333, 228.639501298976, 0.000282290536867522, 0.586249999999566,103.218070983887
0.0599982516666667, 228.644390928178, 0.000362734496299463, 0.592499999999774,101.234031677246
0.0606664366666667, 228.648843472402, 0.000303485972286917, 0.598749999999981,105.485618591309
0.0613312566666667, 228.653678631626, 0.000177378306564448, 0.606249999998809,105.138900756836
0.0619980783333333, 228.658133375422, 0.000170426155743865, 0.612499999999017,105.138900756836
0.0626646183333333, 228.662948360648, 0.000219689681239833, 0.618749999999224,106.202766418457
0.0633312983333333, 228.667160424218, -5.04077520650965E-05, 0.624999999999432,102.193542480469
0.063998765, 228.672062302444, 3.6157399855483E-05, 0.632499999998259,107.000427246094
0.0646653266666667, 228.677187059683, -6.18626766881536E-05, 0.638749999998467,106.696594238281
0.0653312083333333, 228.681741393056, -9.9251298685645E-05, 0.644999999998674,106.696594238281
0.0659980716666667, 228.686628721921, -0.000134741016091055, 0.651249999998882,103.897155761719
0.0666648566666667, 228.691420537398, -0.000390856151685848, 0.658749999999486,102.056564331055
0.0673312883333333, 228.69619546054, -0.000483705987940037, 0.666249999998314,100.937622070313
0.0679988916666667, 228.700485001662, -0.000386038393694928, 0.672499999998522,104.138221740723
0.0686652483333333, 228.705111542055, -1.63579623631177E-05, 0.677499999998332,104.138221740723
0.06933121, 228.708883024819, 0.000214688932407954, 0.684999999998936,128.574478149414
0.0699980583333333, 228.713172876936, 0.000714364834238117, 0.692499999999541,109.556350708008
0.0706649183333333, 228.717146783285, 0.000772884394863155, 0.698749999999748,104.169738769531
0.0713313983333333, 228.721143874089, 0.000837108168992726, 0.703749999999559,98.8847808837891
0.071998095, 228.72455620253, 0.00072390135525185, 0.709999999999766,98.8847808837891
0.0726648966666667, 228.729151816627, 0.000361221072321527, 0.718749999998991,105.924850463867
0.0733316383333333, 228.733540579564, 0.000168318761574714, 0.724999999999199,104.332420349121
0.0739985183333333, 228.738012795533, -0.000110284744423862, 0.729999999999009,106.165725708008
0.07466479, 228.742386686335, -0.000273869527726123, 0.737499999999613,101.557106018066
0.0753315683333333, 228.74686197465, -0.000302219603739287, 0.744999999998441,101.557106018066
0.0759982783333333, 228.750949345398, -9.07467258313862E-05, 0.749999999998252,100.161636352539
0.0766649366666667, 228.75436587019, 6.11251458079489E-05, 0.757499999998856,106.127388000488
0.0773319216666667, 228.758405623024, 0.000186335856588491, 0.764999999999461,109.698150634766
0.07799822, 228.762353641112, 0.000282880007264273, 0.769999999999271,105.798538208008
0.0786647316666667, 228.766385404149, 0.000132565057431822, 0.776249999999479,105.798538208008
0.0793314933333333, 228.770089632028, 4.31425490129383E-05, 0.784999999998703,105.335525512695
0.079998115, 228.774149683229, 0.000103523516162485, 0.791249999998911,101.598052978516
0.080665755, 228.777960674122, 5.56144226151993E-05, 0.796249999998722,104.180503845215
0.0813312116666667, 228.781958736247, -2.1261216002515E-05, 0.803749999999326,107.091743469238
0.0819982533333333, 228.785638263143, -8.68529213791436E-05, 0.809999999999533,107.091743469238
0.0826648533333333, 228.789516330437, -0.000121151698553317, 0.816249999999741,106.25212097168
0.0833312016666667, 228.79346184707, -0.000371291134326589, 0.822499999999948,103.504058837891
0.08399827, 228.797098534216, -0.000364596970567128, 0.829999999998776,103.051040649414
0.0846647833333333, 228.800847314002, -0.000207839844296218, 0.83749999999938,109.243476867676
0.085331255, 228.804621095403, 0.000141002133709189, 0.842499999999191,109.243476867676
0.0859983683333333, 228.808526190816, 0.000265738868293285, 0.849999999999795,123.157897949219
0.0866647333333333, 228.8127544793, 0.000150996131687169, 0.856250000000003,106.065994262695
0.0873315483333333, 228.816521228697, 0.00031712628712684, 0.863749999998831,106.381156921387
0.08799844, 228.820818676981, 0.000128819745516756, 0.868749999998641,104.56103515625
0.0886648333333333, 228.824802972952, -0.000180539715684145, 0.874999999998849,104.56103515625
0.0893313833333333, 228.828748790341, 6.64338229284926E-06, 0.882499999999453,108.745292663574
0.089998065, 228.832634809893, 0.00025511940160535, 0.888749999999661,102.194610595703
0.0906655766666667, 228.836885855111, 0.000168951729779159, 0.894999999999868,106.112724304199
0.09133151, 228.840616050958, 0.000605032325868478, 0.902499999998696,104.667182922363
0.0919981583333333, 228.844804148193, 0.000521470023113319, 0.908749999998903,104.667182922363
0.0926653566666667, 228.848890384355, 0.000138407263981454, 0.914999999999111,103.071899414063
0.0933312266666667, 228.85243259883, 0.000327249278646009, 0.922499999999715,100.961074829102
0.0939984966666667, 228.856450899024, 0.000440258102301893, 0.928749999999923,108.18872833252
0.09466486, 228.860441135713, 0.000143051030720342, 0.934999999998354,105.274589538574
0.095331195, 228.864186601099, 0.000706983704995693, 0.941249999998561,105.274589538574
0.095998155, 228.868046469556, 0.000947267135772321, 0.948749999999166,107.999084472656
0.09666476, 228.872573080764, 0.000676743723873104, 0.954999999999373,110.986465454102
0.09733155, 228.876797281462, 0.000768030638644049, 0.961249999999581,102.350296020508
0.097998995, 228.880210680288, 0.000786221724931112, 0.967499999999788,105.86344909668
0.098665335, 228.884500878145, 0.000259682172468971, 0.974999999998616,105.86344909668
0.0993312133333333, 228.8878320752, 0.000125533410617866, 0.981249999998823,102.233360290527
0.0999986433333333, 228.891651116949, 0.000437724729602217, 0.987499999999031,98.6308135986328
0.10066481, 228.894651545962, 0.000317561265288802, 0.994999999999635,103.931365966797
0.101331905, 228.898606033486, 0.000399833632844618, 1.00124999999984,105.949195861816
0.101998056666667, 228.902230407133, 0.000407864229438668, 1.00749999999827,105.949195861816
0.102664746666667, 228.906862807227, 0.000446887769333268, 1.01374999999848,130.0888671875
0.103331816666667, 228.910492862362, 0.000235116406405357, 1.02124999999909,104.192771911621
0.103998625, 228.914726664723, 0.00031464541173877, 1.0249999999985,103.894317626953
0.104665065, 228.917796655489, 0.000214409946468948, 1.03124999999871,101.013519287109
0.10533127, 228.920673277897, 0.000618071171022695, 1.03999999999971,101.013519287109
0.10599806, 228.923635534262, 0.000667637681396901, 1.04749999999854,102.884460449219
0.106664643333333, 228.927022412278, 0.000547363222635136, 1.05374999999874,104.085838317871
0.10733131, 228.930753073029, 0.000226847321831188, 1.05999999999895,108.285614013672
0.107998338333333, 228.93459021454, 0.000198480746628333, 1.06749999999955,101.342933654785
0.10866532, 228.938712607295, -5.80123699798431E-05, 1.07374999999976,101.342933654785
0.109331243333333, 228.942282816923, -0.000126419433992739, 1.07999999999997,103.467475891113
0.109998723333333, 228.945705854145, 5.31680454884038E-05, 1.0862499999984,99.8183212280273
0.110664806666667, 228.949075975708, 0.000125839395302401, 1.09374999999901,107.564437866211
0.111331303333333, 228.953107531394, -3.44511088002836E-06, 1.09999999999921,107.214401245117
0.111998113333333, 228.956524024309, -0.000131993154052934, 1.10624999999942,107.214401245117
0.112664783333333, 228.960140692141, -3.39010811166867E-05, 1.11375000000002,109.21452331543
0.113331428333333, 228.963878099593, -7.96562828595748E-05, 1.11999999999846,107.467010498047
0.113998061666667, 228.967405434674, -6.03252538560028E-05, 1.12624999999866,104.309844970703
0.114664735, 228.970610049115, -0.000101279196755153, 1.13249999999887,107.575073242188
0.115331215, 228.974295389231, -0.000137190392939132, 1.13999999999947,107.575073242188
0.115997913333333, 228.977720057141, -0.000134666019764621, 1.14624999999968,104.172569274902
0.116664726666667, 228.980997171643, -0.00049822075881333, 1.15249999999989,104.427665710449
0.117331205, 228.984443866276, -0.000659291668390648, 1.15999999999872,99.1269073486328
0.117998315, 228.988121017176, -0.000700079119681037, 1.16624999999893,101.896926879883
0.118664905, 228.991849004234, -0.000638579208756627, 1.17249999999913,101.896926879883
0.119331233333333, 228.996073877754, -0.00087937561378544, 1.17874999999934,130.363098144531
0.119998688333333, 229.000187146746, -0.000706848279639407, 1.18624999999994,104.395545959473
0.120664726666667, 229.004048008294, -0.000461361610172697, 1.19249999999838,105.027526855469
0.12133137, 229.007910542179, -0.000344451482442554, 1.19874999999858,105.03343963623
0.121998238333333, 229.011720085679, -0.000172980095331464, 1.20499999999879,105.03343963623
0.122665106666667, 229.015756693316, -1.69054347703067E-05, 1.21249999999939,101.029052734375
0.12333118, 229.019604719442, -8.06567325853265E-05, 1.2187499999996,104.887718200684
0.123998251666667, 229.023700498961, -0.000226638400072871, 1.22624999999843,108.156051635742
0.12466476, 229.027745027723, -0.000173790054615493, 1.23249999999864,105.923492431641
0.125331911666667, 229.03201351692, -0.000237850336921347, 1.23874999999884,105.923492431641
0.125998095, 229.035549770662, -0.000323227548502005, 1.24499999999905,103.579963684082
0.126664765, 229.039414329007, -0.000234429008783655, 1.25249999999966,103.923759460449
0.127331371666667, 229.043163010762, -6.16886853511051E-05, 1.25999999999848,106.421325683594
0.127998635, 229.047306999619, -0.000176554415737034, 1.2649999999983,101.35994720459
0.128664928333333, 229.051008804888, -0.000508031765971605, 1.2712499999985,101.35994720459
0.12933123, 229.055044027723, -0.0004599126829441, 1.27874999999911,105.806343078613
0.129998896666667, 229.058860445147, -0.000278109814694264, 1.28624999999971,102.714950561523
0.130664773333333, 229.062737930414, -0.000333629525981434, 1.29124999999952,102.583885192871
0.131331535, 229.06665494945, -0.000108880814906109, 1.29874999999835,106.202987670898
0.131998325, 229.070401344501, 0.000154490956205637, 1.30624999999895,106.202987670898
0.132664625, 229.074728571871, 8.84702723434063E-05, 1.31249999999916,103.153297424316
0.133332753333333, 229.078677902999, -2.04617561255457E-05, 1.31749999999897,105.703598022461
0.133998091666667, 229.08270845572, -5.56529885109448E-05, 1.32499999999958,104.800621032715
0.134664725, 229.086368712902, -0.000121108200766877, 1.33124999999978,122.561248779297
0.135331211666667, 229.090315968839, 0.000126391367589071, 1.33874999999861,122.561248779297
0.135998273333333, 229.093491511264, 0.000352703000211401, 1.34499999999882,105.538940429688
0.1366649, 229.097087368262, 0.000377147272419606, 1.35124999999903,99.7603530883789
0.137331401666667, 229.100591057823, 0.00044907915931151, 1.35749999999923,101.428802490234
0.137998613333333, 229.104478446821, 0.00051203699703219, 1.36499999999984,114.085647583008
0.13866476, 229.108059871813, 0.000578846641258059, 1.36999999999965,114.085647583008
0.139331503333333, 229.111603311957, 0.000354961886724027, 1.37749999999848,106.585670471191
0.139998055, 229.115341609272, 0.000456656778714523, 1.38374999999868,104.571434020996
0.140664961666667, 229.118951398717, 0.000547253728132444, 1.39124999999929,106.825286865234
0.141332911666667, 229.12270766274, 0.000424385899652365, 1.39874999999989,102.475250244141
0.141998048333333, 229.126550358188, 0.000269044702294434, 1.4037499999997,102.475250244141
0.142665316666667, 229.130433448644, 0.000316706308293928, 1.40999999999991,108.038642883301
