Time (min), Depth (µm), Load (N), Position (µm), Acoustic (aJ)
8.29166666666667E-06, 227.689321468862, -0.000170163926594466, 0,107.802558898926
0.000660681666666667, 227.688921515823, 0.000157452617567243, 0.00124999999862041,107.802558898926
0.00132730166666667, 227.689980184036, 0.000333881255745026, 0.00499999999981071,105.914321899414
0.00199354666666667, 227.691419537496, 5.29858648119366E-05, 0.0137499999990354,104.960182189941
0.00266033, 227.694741166271, 0.000440380406364304, 0.0212499999996396,106.809440612793
0.00332772333333333, 227.69897826523, 6.90440581937394E-05, 0.0287499999984675,106.809440612793
0.003993655, 227.704709953443, 0.000132001895850657, 0.0362499999990717,110.83088684082
0.00466028, 227.709481190765, 0.000145178733986212, 0.0424999999992792,105.564880371094
0.00532729666666667, 227.714366713785, 0.000392618305387283, 0.0487499999994867,102.266998291016
0.00599366166666667, 227.718206753648, -8.65221278671885E-05, 0.0562499999983146,109.112205505371
0.006660265, 227.722022955967, 0.000156588660919679, 0.0637499999989188,116.566337585449
0.00732764, 227.725623792645, 2.632770380195E-05, 0.0699999999991263,116.566337585449
0.00799362333333333, 227.730807138612, -0.000392928237386723, 0.078749999998351,103.130592346191
0.00866032166666667, 227.735512317035, -9.46337204427773E-05, 0.0849999999985585,102.678703308105
0.009327255, 227.741395981828, -9.38400245765E-06, 0.0899999999983692,101.344078063965
0.00999365166666667, 227.747070409043, -9.07669146510475E-05, 0.0987499999993702,106.590492248535
0.0106605583333333, 227.753215964495, -0.000442259259544601, 0.104999999999578,106.590492248535
0.0113269116666667, 227.758895862995, -0.000118733009931962, 0.109999999999388,101.901008605957
0.0119936166666667, 227.764215370973, -0.000538558922478889, 0.117499999999993,105.878883361816
0.01266043, 227.769437892069, -0.000477346997061159, 0.12499999999882,122.126220703125
0.01332687, 227.774681350937, -0.000491927764714466, 0.129999999998631,102.085815429688
0.0139937416666667, 227.779616222124, -0.000117581067735211, 0.136249999998839,102.085815429688
0.0146602666666667, 227.784416777599, -0.000303138247404025, 0.143749999999443,104.054428100586
0.0153270733333333, 227.789815571634, -6.72705947932267E-05, 0.14999999999965,101.386764526367
0.0159936933333333, 227.794550594385, 3.13314525038903E-05, 0.156249999999858,102.524398803711
0.016660635, 227.799407809578, 6.78276193751728E-05, 0.162499999998289,100.826675415039
0.0173271116666667, 227.804132057005, 4.25931231609635E-06, 0.168749999998496,100.826675415039
0.01799371, 227.808631394083, 0.000206230167535302, 0.176249999999101,108.410247802734
0.0186605633333333, 227.81359166047, 0.000151137934766822, 0.182499999999308,97.0216293334961
0.0193272333333333, 227.818455544639, 0.000174302771246507, 0.188749999999516,104.68091583252
0.0199935633333333, 227.823497347829, 3.59167222123052E-05, 0.193749999999326,104.531394958496
0.0206605416666667, 227.827552743699, -4.01639563441579E-05, 0.202499999998551,104.531394958496
0.0213270416666667, 227.832596681626, -1.29358239334087E-05, 0.208749999998759,101.990951538086
0.021993745, 227.837064534037, -1.05494438252517E-05, 0.214999999998966,86.8826370239258
0.022660645, 227.842236811488, 4.8990065585289E-05, 0.22249999999957,105.168251037598
0.0233271666666667, 227.847315982161, -7.77700674013757E-05, 0.228749999999778,106.148445129395
0.0239943066666667, 227.853440050218, -0.000271630829969396, 0.234999999999985,106.148445129395
0.024660335, 227.859018837049, -0.000264455190433981, 0.242499999998813,101.693481445313
0.025326925, 227.864481298817, -0.000171371365972884, 0.248749999999021,104.141128540039
0.0259936216666667, 227.869617142283, -0.000113370779297643, 0.254999999999228,107.369148254395
0.0266602283333333, 227.875542484601, -3.52487032882804E-05, 0.261249999999436,105.472747802734
0.0273269383333333, 227.883835322876, 4.45742872706798E-05, 0.26999999999866,105.472747802734
0.0281603983333333, 227.889232898657, -0.000238131512693445, 0.274999999998471,101.643646240234
0.0288269233333333, 227.894727341279, -0.000424221165589178, 0.283749999999472,128.610107421875
0.0294937333333333, 227.899872166133, -0.000376619556565814, 0.289999999999679,104.896446228027
0.0301605866666667, 227.904682199192, -0.000343492220520617, 0.296249999999887,103.071662902832
0.0308276033333333, 227.910086411792, -0.000203751739495225, 0.303749999998715,106.541641235352
0.0314936066666667, 227.914760894211, -1.08659279381014E-05, 0.309999999998922,106.541641235352
0.0321603816666667, 227.920228119295, 7.82670949859374E-05, 0.31624999999913,101.319381713867
0.0328272933333333, 227.924613923669, 0.000403591754276894, 0.322499999999337,101.879791259766
0.0334936033333333, 227.929900058149, 0.000521968808307218, 0.329999999999941,103.04239654541
0.0341603333333333, 227.934170200455, 0.000728376440676408, 0.336249999998373,103.158111572266
0.03482706, 227.939575150225, 0.000731298293924052, 0.34249999999858,103.158111572266
0.0354935783333333, 227.943626375049, 0.000740128350395072, 0.348749999998788,102.958145141602
0.0361602383333333, 227.948516870756, 0.000312540327679769, 0.356249999999392,109.924385070801
0.0368269833333333, 227.952647193928, 0.000284233749495553, 0.362499999999599,105.367774963379
0.0374936466666667, 227.957554876734, -0.000109806958235371, 0.371249999998824,111.947418212891
0.0383269583333333, 227.961604914508, -3.04489443051831E-05, 0.377499999999031,109.301452636719
0.0389937366666667, 227.966203392862, -0.000392628252421055, 0.383749999999239,109.301452636719
0.0396602466666667, 227.970638119664, -0.000280454886764056, 0.389999999999446,106.239891052246
0.0403273783333333, 227.974286380079, 5.05499871984722E-05, 0.397499999998274,107.37476348877
0.0409937233333333, 227.980299143425, 0.000418805490134647, 0.404999999998878,106.878868103027
0.041827085, 227.984320210429, 0.000482850773217721, 0.412499999999483,99.6465759277344
0.042493575, 227.988304229175, 0.00072449313575875, 0.419999999998311,107.105751037598
0.0431606133333333, 227.992386773292, 0.000607556009410603, 0.424999999999898,107.105751037598
0.04382693, 227.997044045951, 0.000318525027132727, 0.431249999998329,104.941017150879
0.0444937533333333, 228.000593144096, 0.000260204956453321, 0.438749999998933,104.946075439453
0.0451603583333333, 228.004883829576, -0.000117651564224672, 0.444999999999141,129.682052612305
0.0458269983333333, 228.008775494515, -0.000285143651256296, 0.451249999999348,104.298370361328
0.04649361, 228.01287077589, -0.000274137204072321, 0.459999999998573,104.298370361328
0.04716023, 228.016182851154, 6.05424853158119E-05, 0.46624999999878,107.132919311523
0.0478620216666667, 228.020550487285, -0.000122395825898578, 0.471249999998591,103.237564086914
0.0484936316666667, 228.023938051566, 0.000260143459531534, 0.478749999999195,106.022186279297
0.0491602933333333, 228.028188340248, 0.000198930034253162, 0.486249999999799,108.869567871094
0.0498271916666667, 228.032186331698, 0.000100935456403127, 0.49124999999961,108.869567871094
0.050493715, 228.03681799413, -0.000363741203407762, 0.497499999999818,101.18571472168
0.0511603966666667, 228.040522212781, -0.000223928726032267, 0.504999999998645,107.611724853516
0.0518272566666667, 228.044190584188, -0.000212638793093569, 0.511249999998853,102.81031036377
0.0524937483333333, 228.048259252194, -8.20932487901819E-07, 0.51749999999906,104.023963928223
0.053160335, 228.051622785021, -4.30138131566838E-05, 0.523749999999268,104.023963928223
0.0538269266666667, 228.055062010728, 0.000134053792944412, 0.532499999998493,109.117263793945
0.0544937033333333, 228.058568688526, 2.1934424587185E-05, 0.5387499999987,105.732154846191
0.0551603733333333, 228.062493725501, -6.29598112506079E-05, 0.543749999998511,102.492065429688
0.0558269933333333, 228.065353011498, -0.000177210572567438, 0.551249999999115,105.588104248047
0.05649372, 228.06874884224, 1.50707693063935E-05, 0.558749999999719,105.588104248047
0.0571609066666667, 228.071875996207, 3.54697446338638E-05, 0.564999999999927,100.409469604492
0.057826995, 228.075350311727, 0.000111235439023135, 0.571249999998358,101.404846191406
0.0584937266666667, 228.078245164255, 0.000371469367730659, 0.577499999998565,103.949340820313
0.0591607416666667, 228.082237466578, 0.000261355398640653, 0.58499999999917,99.9571228027344
0.0598271783333333, 228.086180612426, 7.428629493956E-05, 0.58999999999898,99.9571228027344
0.0604935766666667, 228.09005618657, 0.000194116776014198, 0.596249999999188,102.254264831543
0.0611602733333333, 228.094657753101, 0.000124025296662649, 0.603749999999792,108.140327453613
0.0618271416666667, 228.099186800405, -6.25803303340755E-05, 0.61124999999862,124.370018005371
0.06249364, 228.103580717474, -6.64621353698379E-05, 0.617499999998827,112.221946716309
0.0631603166666667, 228.10794263488, -7.06961857207059E-06, 0.624999999999432,112.221946716309
0.0638269483333333, 228.112283483332, -7.91949957970116E-05, 0.629999999999242,99.0904006958008
0.0644936766666667, 228.116533408883, -4.78540700561607E-05, 0.637499999999847,107.659271240234
0.0651603, 228.121324873766, -7.76140752421828E-05, 0.644999999998674,104.096054077148
0.0658269866666667, 228.125265755461, 0.000311046402761583, 0.651249999998882,104.402473449707
0.0664937266666667, 228.13010014758, 6.05784835227442E-05, 0.656249999998693,104.402473449707
0.06716092, 228.134678829235, 0.000280867918624544, 0.6624999999989,99.6699676513672
0.0678270016666667, 228.139044788, 0.000361848851056614, 0.669999999999504,105.462356567383
0.0684936233333333, 228.143395221673, 0.000262991816547181, 0.677499999998332,105.653945922852
0.069160465, 228.147650659838, 6.9000560577332E-05, 0.682499999999919,105.716659545898
0.0698274283333333, 228.152041287227, 4.09204709992619E-05, 0.68874999999835,105.716659545898
0.0704936433333333, 228.156089589233, -0.000515776566722036, 0.697499999999351,101.689613342285
0.0711603166666667, 228.159846441048, -0.000508036955440963, 0.703749999999559,102.173156738281
0.071827075, 228.163103678238, -0.000498489934998915, 0.70874999999937,102.203102111816
0.072493735, 228.167431040265, -0.000780265781748004, 0.716249999999974,106.803771972656
0.073160315, 228.170202628635, -0.000497426488469481, 0.723749999998802,106.803771972656
0.0738269583333333, 228.17393959375, -0.000242397298312679, 0.729999999999009,107.422500610352
0.0744936533333333, 228.177109482867, -0.000185572652560879, 0.73499999999882,104.936149597168
0.0751602833333333, 228.180869906087, -0.000107728062608628, 0.742499999999424,105.480339050293
0.0758270816666667, 228.183758221931, -2.50282165128667E-05, 0.749999999998252,109.213706970215
0.0764937166666667, 228.187486681198, -7.35477794198033E-05, 0.75624999999846,109.213706970215
0.077160445, 228.190681493002, -0.000339842903682343, 0.76124999999827,102.911689758301
0.07782697, 228.194445454362, -0.000677615437721347, 0.768749999998875,109.069496154785
0.078493705, 228.198092424882, -0.000723186148783888, 0.776249999999479,122.315635681152
0.079160335, 228.201542647864, -0.000562739207864595, 0.782499999999686,99.5133285522461
0.0798269716666667, 228.204638991388, -0.000620702296408501, 0.788749999999894,99.5133285522461
0.08049368, 228.207599162103, -0.000330300383013506, 0.794999999998325,98.4471206665039
0.081160495, 228.210846432277, -0.00029005890429092, 0.802499999998929,103.994697570801
0.0818270366666667, 228.213708485935, -0.000269401941838564, 0.808749999999137,105.449272155762
0.082493695, 228.216234954646, -0.000194831687411231, 0.814999999999344,109.605651855469
0.083160335, 228.219288894908, 0.000108526575210785, 0.821249999999552,109.605651855469
0.0838270866666667, 228.222633243031, 0.000103191343194471, 0.828749999998379,105.030784606934
0.08449366, 228.225658455696, 0.000307892061295196, 0.833749999999966,106.686889648438
0.0851602466666667, 228.229058944801, 0.000328640519093642, 0.841249999998794,108.095748901367
0.0858270483333333, 228.23250596847, 0.000465975120908618, 0.848749999999399,103.850234985352
0.0864937733333333, 228.23532959663, 0.00047267228453814, 0.853749999999209,103.850234985352
0.0871602616666667, 228.238111749485, 0.000699777377276065, 0.861249999999814,105.40274810791
0.0878274333333333, 228.241093808198, 0.000478013516252067, 0.867500000000021,106.232215881348
0.08849365, 228.243894523174, 0.000582054290391832, 0.873749999998452,106.534187316895
0.0891604083333333, 228.246735538114, 0.000511704823957905, 0.881249999999056,101.147384643555
0.0898270383333333, 228.250249590339, 0.000196195671662196, 0.887499999999264,101.147384643555
0.09049361, 228.254000121525, -0.000312370283615117, 0.893749999999471,106.337921142578
0.0911603033333333, 228.257173176326, -0.000294798666234124, 0.899999999999679,111.042251586914
0.091826955, 228.260456864669, -0.000693898619848655, 0.907499999998507,100.223915100098
0.092493725, 228.264078393698, -0.00106102167962657, 0.913749999998714,105.027366638184
0.0931604016666667, 228.267264155947, -0.00110630440509742, 0.919999999998922,105.027366638184
0.0938269583333333, 228.270618700827, -0.000988920301192086, 0.926249999999129,107.240272521973
0.0944936233333333, 228.27375205036, -0.00116505045439237, 0.933749999999733,104.533218383789
0.0951603316666667, 228.277890634776, -0.00132730480451514, 0.939999999999941,126.519073486328
0.0958271433333333, 228.281316251404, -0.00102742036740619, 0.946249999998372,101.395072937012
0.096493635, 228.285427409026, -0.000867808884507032, 0.953749999998976,101.395072937012
0.0971602666666667, 228.289101000511, -0.000810835746218056, 0.959999999999184,100.584098815918
0.0978274416666667, 228.29385812734, -0.00061890538667584, 0.966249999999391,107.417686462402
0.098493645, 228.297182282489, -3.8377545997304E-05, 0.972499999999599,104.020004272461
0.09916028, 228.301902381167, -5.53296944934813E-05, 0.979999999998427,108.803970336914
0.099827545, 228.306090948875, -0.0002730872567775, 0.986249999998634,108.803970336914
0.100493678333333, 228.310332867763, -0.000284011208076787, 0.992499999998842,106.234512329102
0.101160438333333, 228.314230498561, -0.000440543345623446, 0.998749999999049,101.554969787598
0.101827681666667, 228.318502904706, -0.00046325520484833, 1.00624999999965,104.574157714844
0.102493621666667, 228.322731527568, -0.000561783755870942, 1.01124999999946,103.606407165527
0.103160365, 228.326772679086, -0.000352341775923863, 1.01874999999829,103.606407165527
0.103826975, 228.33076588036, -0.000227155063933773, 1.02374999999988,108.908744812012
0.104493646666667, 228.333900694155, 0.000300173448913261, 1.02999999999831,106.46329498291
0.105160353333333, 228.33759221435, 8.89270596115056E-05, 1.03874999999931,105.183135986328
0.105827, 228.341452790163, 4.59872164623767E-05, 1.04499999999952,102.332893371582
0.106493848333333, 228.345674210668, -2.33543006025277E-05, 1.05249999999835,102.332893371582
0.107160296666667, 228.349896196653, -9.41132464410516E-05, 1.05874999999855,102.577919006348
0.107827268333333, 228.355379661498, -0.000390148876872372, 1.06499999999876,102.812355041504
0.108493645, 228.360545244093, -0.000809788798793295, 1.07249999999937,112.114295959473
0.109160266666667, 228.364817743439, -0.000777420424644926, 1.07874999999957,103.658889770508
0.10982706, 228.369592425088, -0.000863082621904711, 1.08499999999978,103.658889770508
0.110493633333333, 228.374380961869, -0.000719268345541194, 1.09124999999999,105.013984680176
0.111160281666667, 228.379043935563, -0.00053007834835132, 1.09874999999882,128.101516723633
0.111827138333333, 228.383621149503, -9.17568647571975E-05, 1.10499999999902,107.006980895996
0.112493723333333, 228.388599227389, -2.37097826648456E-05, 1.11124999999923,96.9341125488281
0.11316046, 228.393005269478, -1.92487691246175E-06, 1.11749999999944,96.9341125488281
0.113826928333333, 228.397281971039, 8.4467783680489E-05, 1.12499999999827,103.587448120117
0.114493685, 228.401558645627, -0.000231809330015959, 1.13124999999847,106.263542175293
0.115160406666667, 228.405904236996, -0.000341521319323384, 1.13749999999868,101.51097869873
0.115826931666667, 228.409597764728, -0.000321531823379257, 1.14499999999929,104.235389709473
0.116493666666667, 228.4137659843, -0.000355574113501728, 1.15124999999949,104.235389709473
0.117160926666667, 228.418020675889, -0.000467618485660046, 1.1574999999997,102.758712768555
0.117827008333333, 228.422351906144, -0.000532778212766029, 1.16374999999991,105.857574462891
0.118493578333333, 228.427129753527, -0.000602230724258028, 1.17124999999874,102.010925292969
0.119160491666667, 228.431748299322, -0.000721711722861691, 1.17749999999894,107.315528869629
0.119827025, 228.43707347922, -0.000816844444461466, 1.18374999999915,107.315528869629
0.120493791666667, 228.442019704706, -0.000873666090343205, 1.19124999999976,102.22632598877
0.12116035, 228.446708186803, -0.000524141646585537, 1.19749999999996,102.846015930176
0.121827043333333, 228.451667013076, -0.000658989373293576, 1.20374999999839,106.648628234863
0.122493728333333, 228.457472110841, -0.00052097380569325, 1.211249999999,108.594123840332
0.123160471666667, 228.462164433167, -0.000461666784607723, 1.21749999999921,108.594123840332
0.12382747, 228.467252377557, -0.000267371043877742, 1.22374999999941,102.941520690918
0.124493646666667, 228.472527118577, -0.000580658807749653, 1.22999999999962,107.726333618164
0.125160281666667, 228.477223690029, -0.000316427579784807, 1.23749999999845,104.508369445801
0.125826941666667, 228.481893423998, -0.000463741180354986, 1.24499999999905,107.166107177734
0.126493886666667, 228.486481386117, -9.55006766628437E-05, 1.25124999999926,107.166107177734
0.127160488333333, 228.491038086786, -0.000160343919655976, 1.25624999999907,100.542663574219
0.127827011666667, 228.495273077152, -4.90705087897108E-05, 1.26374999999967,128.08479309082
0.128493653333333, 228.500489058523, 7.02067378011711E-06, 1.26999999999988,99.1397247314453
0.12916052, 228.504727338201, -1.79905699800432E-05, 1.27624999999831,106.36784362793
0.129826965, 228.509497574029, -0.000256493590213701, 1.28374999999892,106.36784362793
0.13049381, 228.51466028791, -0.000485139105611329, 1.28999999999913,103.064399719238
0.13116047, 228.519705586213, -0.00060390614009277, 1.29624999999933,99.8533782958984
0.131826988333333, 228.523890478854, -0.00051623854354451, 1.30374999999994,107.254692077637
0.132493606666667, 228.528682357244, -0.000616381013480076, 1.31124999999876,103.15648651123
0.133160325, 228.533057984407, -0.000716484485402411, 1.31749999999897,103.15648651123
0.133828621666667, 228.537571094565, -0.000779775306383123, 1.32249999999878,107.074447631836
0.13449367, 228.542211665557, -0.000874831531795823, 1.32874999999899,102.268730163574
0.13516028, 228.546902987144, -0.00111344104670462, 1.33624999999959,102.807121276855
0.135826998333333, 228.552127732213, -0.00105188263872848, 1.34374999999842,103.687889099121
0.13649369, 228.556665762303, -0.000820187776530188, 1.34999999999863,103.687889099121
0.137160413333333, 228.561224465762, -0.000446706536101646, 1.35624999999884,101.121147155762
0.13782695, 228.565803582939, -0.000117815055984627, 1.36249999999905,109.865562438965
0.138493708333333, 228.570506238521, -0.00025336024768896, 1.36874999999925,103.933555603027
0.139160341666667, 228.574348274092, -1.05839420652725E-05, 1.37749999999848,112.219482421875
0.139827021666667, 228.579539231936, -0.000123925749002442, 1.38374999999868,112.219482421875
0.14049366, 228.584135207271, -0.00040349220668045, 1.38999999999889,107.706085205078
0.141160396666667, 228.588991863608, -0.000713103655223607, 1.3949999999987,106.532890319824
0.141827183333333, 228.593415068513, -0.000512758718333837, 1.40249999999931,108.339302062988
