Time (min), Depth (µm), Load (N), Position (µm), Acoustic (aJ)
7.20666666666667E-06, 227.749522230175, 0.000250700201058836, 0,103.636024475098
0.000664961666666667, 227.749301458877, 0.000136977413238223, 0.00124999999862041,103.429214477539
0.001331495, 227.750530758984, -0.000129391207341331, 0.00499999999981071,103.429214477539
0.00199810666666667, 227.753092715018, -0.000408180704008419, 0.0137499999990354,113.710433959961
0.00266479833333333, 227.757189379967, -0.00069146997471419, 0.02249999999826,104.507911682129
0.00333165833333333, 227.76179059639, -0.000570685541570301, 0.0299999999988643,103.310005187988
0.00399821833333333, 227.767707593439, -0.000574868831474881, 0.0362499999990717,108.373847961426
0.00466481666666667, 227.772809854685, -0.000134958927682659, 0.043749999999676,108.373847961426
0.00533157666666667, 227.777837312681, -0.000215956359304419, 0.0499999999998835,103.11164855957
0.00599806833333333, 227.781742545507, -1.07171682579082E-05, 0.0574999999987114,104.746185302734
0.006664805, 227.786732174011, -0.000214382938329098, 0.0649999999993156,105.737579345703
0.00733186666666667, 227.790703266021, 0.000218766805029919, 0.0712499999995231,108.382850646973
0.00799815166666667, 227.795787187499, 0.00013952578522444, 0.0774999999997306,108.382850646973
0.00866479166666667, 227.800388798268, 0.000271442659159669, 0.0849999999985585,105.250831604004
0.00933179, 227.805567685446, 0.000316563392816217, 0.0912499999987659,107.996467590332
0.00999809333333333, 227.810733419867, 0.000314340504446761, 0.0974999999989734,106.005363464355
0.0106649583333333, 227.816117261585, 0.000174031552008771, 0.104999999999578,106.005363464355
0.0113315016666667, 227.82082210457, 0.000268490807402705, 0.111249999999785,104.992568969727
0.01199817, 227.825850868669, 0.000260707698335192, 0.117499999999993,103.174308776855
0.0126648983333333, 227.830605946781, 0.000168325838579836, 0.123749999998424,114.35489654541
0.0133315216666667, 227.834886996448, 0.000456668355429092, 0.131249999999028,101.332695007324
0.01399918, 227.839519180058, 0.000191016698820566, 0.136249999998839,106.712219238281
0.0146648483333333, 227.844178114648, 8.57744850212512E-05, 0.143749999999443,106.712219238281
0.0153316416666667, 227.848554686947, 4.41455759706024E-05, 0.14999999999965,105.79557800293
0.01599809, 227.853568510119, -0.000335687845368442, 0.156249999999858,125.537712097168
0.016664805, 227.858411405423, -0.000600625537812239, 0.162499999998289,105.857139587402
0.0173317583333333, 227.862146084613, -0.000425219848205002, 0.168749999998496,104.16690826416
0.0179986666666667, 227.866590522286, -0.000507358722467674, 0.176249999999101,104.16690826416
0.0186647966666667, 227.870663243927, -0.000637967662068213, 0.182499999999308,107.759468078613
0.0193315216666667, 227.87489177137, -0.000553010429362975, 0.188749999999516,107.972236633301
0.01999814, 227.877425770792, -0.000246014849425435, 0.194999999999723,102.112174987793
0.0206648533333333, 227.880623242749, 1.46315585354933E-05, 0.202499999998551,104.573715209961
0.021332595, 227.883893091518, -7.98036980679882E-05, 0.208749999998759,104.573715209961
0.0219981933333333, 227.887470005729, 7.86389848027271E-06, 0.214999999998966,101.83512878418
0.0226653066666667, 227.890732786855, 0.000188112844750777, 0.22249999999957,106.283554077148
0.0233315116666667, 227.895022945808, 0.00025965475127658, 0.228749999999778,104.550537109375
0.0239981433333333, 227.899688833094, -0.000146515847143883, 0.234999999999985,106.208038330078
0.024664975, 227.904111914311, -0.000255866354542598, 0.242499999998813,106.208038330078
0.0253316016666667, 227.90837269332, -0.000107895786998776, 0.248749999999021,114.180976867676
0.0259982166666667, 227.912250454569, -0.000224493930389279, 0.254999999999228,104.16739654541
0.0266649866666667, 227.91705392469, -0.000504636359144408, 0.261249999999436,104.154594421387
0.0273316233333333, 227.92130902233, -0.000601586989418489, 0.268749999998263,105.168045043945
0.0279980716666667, 227.925624829347, -0.000398476191461521, 0.274999999998471,105.168045043945
0.028665095, 227.92987897877, -0.00064781466743342, 0.281249999998678,102.757682800293
0.02933168, 227.934317188369, -0.0004887806555783, 0.288749999999283,103.87663269043
0.029998195, 227.938256835611, -0.000681564472233493, 0.29499999999949,102.054695129395
0.0306652133333333, 227.942250024769, -0.000173628485333073, 0.301249999999698,103.398330688477
0.0313315416666667, 227.946061859835, -0.0002328680097992, 0.307499999999905,103.398330688477
0.0319982083333333, 227.950216946227, -0.000123850485639262, 0.314999999998733,107.480278015137
0.0326649666666667, 227.953999650548, -0.00041079807253844, 0.32124999999894,123.728775024414
0.0333314933333333, 227.958213195182, -0.000284006441160561, 0.327499999999148,100.603645324707
0.0339983333333333, 227.962141652157, -0.000687001699109229, 0.334999999999752,101.627799987793
0.0346659966666667, 227.965550829402, -0.00026967616094636, 0.34124999999996,101.627799987793
0.0353335233333333, 227.969556810759, -0.00013032116062013, 0.347499999998391,102.253936767578
0.0359995866666667, 227.973610222532, -7.04985241181164E-06, 0.353749999998598,103.750106811523
0.03666628, 227.977489599373, 0.000110629736643473, 0.361249999999202,107.59302520752
0.0373333133333333, 227.98180110335, 6.24551563917937E-05, 0.36749999999941,101.528434753418
0.03799968, 227.986366443152, -0.000241497076378929, 0.373749999999617,101.528434753418
0.0386673466666667, 227.990262365317, -0.000590969022739975, 0.381249999998445,104.646446228027
0.0393315833333333, 227.994228278234, -0.000619326598353902, 0.387499999998653,102.429389953613
0.03999974, 227.99767452302, -0.000472758460318412, 0.39374999999886,101.935440063477
0.0406664533333333, 228.001490590973, -0.000236484328130569, 0.399999999999068,100.440933227539
0.041333025, 228.005417294782, -0.000134867432230298, 0.408749999998292,100.440933227539
0.042000325, 228.009237217695, 0.000184124545082383, 0.413749999999879,109.669723510742
0.04266483, 228.013191022244, 0.000646294830790347, 0.419999999998311,104.429901123047
0.0433323816666667, 228.017653585976, 0.000569687678683324, 0.427499999998915,107.396202087402
0.0439997033333333, 228.022441887781, 0.00049481443946277, 0.433749999999122,105.803939819336
0.0446664266666667, 228.026889223518, 0.00033551944069772, 0.441249999999727,105.803939819336
0.0453324783333333, 228.03181800023, 0.000490242669116493, 0.447499999999934,103.41820526123
0.04599821, 228.035882464882, -3.23854382300233E-06, 0.453749999998365,104.020881652832
0.0466649016666667, 228.040125217435, -0.000255419377027919, 0.459999999998573,106.919586181641
0.0473322516666667, 228.044163156117, -0.000155567892447839, 0.46624999999878,103.592437744141
0.0479980866666667, 228.048252942311, -0.000113706495114685, 0.473749999999384,103.592437744141
0.0486650016666667, 228.052170957947, -0.000211783568828154, 0.481249999999989,101.449111938477
0.0493316866666667, 228.056912795521, 0.000196107443222912, 0.48749999999842,131.670028686523
0.049998135, 228.061476672188, 0.000457595308965355, 0.492500000000007,106.20866394043
0.050664885, 228.066194387353, 0.000487746794463135, 0.499999999998835,106.359901428223
0.0513317683333333, 228.070659282954, 0.000729990626817395, 0.507499999999439,106.359901428223
0.0519981183333333, 228.075461694918, 0.000753020470079532, 0.51249999999925,106.999153137207
0.0526648933333333, 228.080094240777, 0.000571879068640311, 0.519999999999854,103.467742919922
0.0533316883333333, 228.084652593828, 0.000380778167420622, 0.526249999998285,105.38631439209
0.0539981366666667, 228.089137106775, -2.84492774862877E-05, 0.533749999998889,103.793983459473
0.054664815, 228.093543164248, 0.000263634051462317, 0.539999999999097,103.793983459473
0.0553314966666667, 228.097983236211, 9.57531260696374E-06, 0.546249999999304,104.661041259766
0.0559982483333333, 228.102064963082, -7.79002936389343E-05, 0.552499999999512,107.449279785156
0.0566647733333333, 228.105785123543, 0.00030574293638577, 0.558749999999719,102.833274841309
0.0573314966666667, 228.109354917775, 0.000650334127930959, 0.566249999998547,103.463043212891
0.057998185, 228.113714154097, 6.59559806503828E-05, 0.573749999999151,103.463043212891
0.05866479, 228.117412864032, 0.00020853581897497, 0.579999999999359,101.05362701416
0.0593316883333333, 228.121444623858, 0.000286212417351549, 0.58499999999917,107.448852539063
0.0599981483333333, 228.125634026093, 1.00987862237006E-05, 0.592499999999774,107.36580657959
0.060664935, 228.129543444109, -8.54764131175437E-05, 0.598749999999981,106.790725708008
0.0613315033333333, 228.133277548764, -0.000121492604094767, 0.606249999998809,106.790725708008
0.0619981383333333, 228.136437258154, -0.00028804423837677, 0.612499999999017,108.036285400391
0.0626647733333333, 228.140584558985, -0.000431480533705651, 0.619999999999621,104.676452636719
0.0633318266666667, 228.144010832108, -0.000332512504747868, 0.624999999999432,110.056060791016
0.0639981233333333, 228.147352255362, -9.64963596211478E-05, 0.631249999999639,108.234474182129
0.0646649733333333, 228.150398780243, -0.000227750266863866, 0.638749999998467,108.234474182129
0.06533161, 228.154081832708, -0.000366983773313433, 0.646249999999071,128.626022338867
0.0659981366666667, 228.157167165084, -0.000747939138318655, 0.651249999998882,104.770065307617
0.0666649933333333, 228.160682669241, -0.000932986343605345, 0.657499999999089,104.864418029785
0.0673315216666667, 228.163397325528, -0.000968881040620889, 0.666249999998314,101.034576416016
0.0679982066666667, 228.166633988078, -0.000760412511739049, 0.672499999998522,101.034576416016
0.068666105, 228.169537905195, -0.000778816587312629, 0.678749999998729,108.934501647949
0.0693331133333333, 228.171971247742, -0.000288762702229693, 0.684999999998936,103.843208312988
0.0700001066666667, 228.174712266403, -0.000220868612468982, 0.692499999999541,102.802001953125
0.0706649783333333, 228.178122091298, -0.000424889864730014, 0.698749999999748,104.687156677246
0.071331585, 228.180886832479, -0.000508098185262242, 0.703749999999559,104.687156677246
0.0719991183333333, 228.183625858571, 2.8514861235015E-05, 0.711249999998387,108.870811462402
0.072666415, 228.187080360636, -0.000466790260097653, 0.718749999998991,103.414566040039
0.0733317783333333, 228.190362126859, -0.000419359642498768, 0.723749999998802,103.450271606445
0.0739981516666667, 228.193118360791, -0.00074892458877912, 0.729999999999009,101.574775695801
0.074664915, 228.196617630899, -0.00106424475055751, 0.737499999999613,101.574775695801
0.07533146, 228.200030476999, -0.00134376471057902, 0.744999999998441,102.458541870117
0.0759988316666667, 228.202585031926, -0.00118458820582057, 0.749999999998252,102.844215393066
0.0766650416666667, 228.205132046876, -0.0010676660786952, 0.757499999998856,103.69603729248
0.077331635, 228.207969467114, -0.000880272991259244, 0.763749999999064,104.034202575684
0.0779982033333333, 228.209974163513, -0.000498386173072074, 0.771249999999668,104.034202575684
0.078664795, 228.212673337973, -0.000523178427784342, 0.777499999999876,101.317489624023
0.0793323666666667, 228.215346185407, -0.000468224188103471, 0.783749999998307,106.666297912598
0.07999925, 228.217832529847, -0.000431566029396636, 0.789999999998514,109.481544494629
0.080665085, 228.220703007718, -0.000190733626160891, 0.797499999999118,105.29207611084
0.0813316666666667, 228.224190884245, -0.000345128371050334, 0.803749999999326,105.29207611084
0.0819981516666667, 228.226805556031, -0.000307373767434685, 0.809999999999533,125.520469665527
0.0826649033333333, 228.229547524059, -0.000289388170812122, 0.816249999999741,106.765846252441
0.0833320733333333, 228.232250688782, -0.000176385346832597, 0.823749999998569,103.991493225098
0.0839982083333333, 228.235344922037, -0.000353997425577092, 0.829999999998776,104.093963623047
0.084664825, 228.237503743711, -0.000127876283438992, 0.836249999998984,104.093963623047
0.0853316233333333, 228.240282627412, -2.21615933676342E-05, 0.842499999999191,109.65209197998
0.0859980783333333, 228.242758460761, -0.000160096165050184, 0.849999999999795,108.902633666992
0.0866649916666667, 228.245766365963, -0.000249727162982375, 0.856250000000003,106.440017700195
0.087331675, 228.248300344578, -0.000335624848394727, 0.862499999998434,106.730262756348
0.0879982033333333, 228.250788924578, -0.00032016962470805, 0.869999999999038,106.730262756348
0.0886648483333333, 228.253333044725, -0.000300067634433679, 0.876249999999246,108.000518798828
0.0893319516666667, 228.255868528073, -0.000118807738945346, 0.882499999999453,105.795860290527
0.0899982383333333, 228.258332726465, -0.000359380655216819, 0.889999999998281,109.035949707031
0.0906649983333333, 228.261124288159, -0.000298576709343045, 0.894999999999868,107.513252258301
0.091331975, 228.263952025673, -0.000451380034185582, 0.902499999998696,107.513252258301
0.091998315, 228.266315666768, -0.000637154702892868, 0.908749999998903,100.453712463379
0.0926648566666667, 228.269432308236, -0.000853815820225565, 0.914999999999111,105.701194763184
0.0933317033333333, 228.272388352433, -0.000578218163241216, 0.921249999999318,104.31713104248
0.09399828, 228.275622636318, -0.00034546735407174, 0.928749999999923,103.449752807617
0.0946649466666667, 228.279083356303, -0.000404450391422402, 0.934999999998354,103.449752807617
0.09533344, 228.283029964774, -0.000338120723111846, 0.941249999998561,104.767562866211
0.095999565, 228.286913116563, -0.000164534442145826, 0.948749999999166,102.257019042969
0.09666644, 228.29044223007, -0.000468681665110227, 0.954999999999373,99.1993255615234
0.097498245, 228.293850421738, -0.000593698885642748, 0.963749999998598,107.103866577148
0.0981648116666667, 228.297523211182, -0.000746887691120685, 0.969999999998805,123.638648986816
0.0988334666666667, 228.30122373058, -0.000547525204863827, 0.976249999999013,123.638648986816
0.099499835, 228.304922706325, -0.000411926015902231, 0.98249999999922,111.030822753906
0.100166381666667, 228.308942927137, -0.000241395081519508, 0.989999999999824,108.824172973633
0.100831613333333, 228.312875270943, -0.000333359962205742, 0.996249999998255,100.939903259277
0.101498315, 228.316662305143, 0.000185709965474184, 1.00249999999846,105.881866455078
0.102164983333333, 228.320428579972, 2.4016587141989E-05, 1.00874999999867,105.881866455078
0.102831685, 228.324316491516, -0.000113279016638503, 1.01499999999888,98.8885498046875
0.103498108333333, 228.327962391314, -9.27225491424199E-05, 1.02124999999909,105.258117675781
0.104166215, 228.331155584271, -3.95832182445394E-05, 1.0262499999989,105.455741882324
0.104831788333333, 228.334457749794, 2.29711397053938E-05, 1.0349999999999,105.960502624512
0.105499845, 228.337563142903, 1.70824354780068E-05, 1.04249999999873,105.960502624512
0.106166498333333, 228.341219083838, 0.000124196555251399, 1.04874999999893,102.07984161377
0.106833243333333, 228.345200760422, 5.9653297160172E-05, 1.05499999999914,109.57674407959
0.107499738333333, 228.349754013381, 0.000211718659047527, 1.06249999999974,108.577331542969
0.108165188333333, 228.354807633552, 0.000151889664227158, 1.06874999999995,107.173706054688
0.108831533333333, 228.359897957579, 0.000187734863779902, 1.07499999999838,107.173706054688
0.109498098333333, 228.365047953203, -5.77623051788849E-05, 1.08124999999859,106.029426574707
0.110164913333333, 228.369908336028, -0.000148881228352903, 1.08874999999919,103.721199035645
0.110831615, 228.374773069595, -0.000343905932491646, 1.0949999999994,111.041847229004
0.11149832, 228.379524354766, -0.000484154887953505, 1.10124999999961,104.261024475098
0.112165043333333, 228.384235852831, -0.00034986063341403, 1.10874999999844,104.261024475098
0.112831795, 228.388793421478, -0.000200225149421272, 1.11499999999864,100.452995300293
0.113498488333333, 228.393466830808, -0.00015371698547917, 1.12124999999885,103.0302734375
0.114164946666667, 228.398123241759, -7.91047331260372E-05, 1.12749999999906,97.0995941162109
0.11483153, 228.402711064196, -0.000325759843872918, 1.13499999999966,122.528121948242
0.115498711666667, 228.407534728006, -0.000451966504691018, 1.14124999999987,122.528121948242
0.1161651, 228.411826978425, -8.97017008841603E-05, 1.1474999999983,109.868988037109
0.116831605, 228.416725177819, 0.000242029136638324, 1.15499999999891,102.80738067627
0.117498143333333, 228.420338430943, 0.000188358832416674, 1.16124999999911,104.275047302246
0.118164831666667, 228.425112333546, 0.000134694527892636, 1.16749999999932,105.487083435059
0.118831538333333, 228.429819546037, -0.000157973771679509, 1.17374999999953,105.487083435059
0.119498105, 228.434882978061, -0.000161858576542824, 1.18124999999836,102.294486999512
0.1201649, 228.439843036401, -0.000390006116953554, 1.18749999999856,104.343292236328
0.120831606666667, 228.445017502595, -0.000150384152923779, 1.19374999999877,110.684982299805
0.121498223333333, 228.449522878432, 0.000108547841231685, 1.20124999999938,104.011108398438
0.12216503, 228.454212466651, 0.000577865267890147, 1.20749999999958,104.011108398438
0.122831473333333, 228.458232089612, 0.000242872094237971, 1.21374999999979,103.946266174316
0.123498155, 228.462358008964, 0.000367688324857948, 1.22,106.024375915527
0.12416506, 228.467510222024, -0.000210327141998796, 1.22874999999922,104.689949035645
0.124831586666667, 228.472282609771, -6.211658648669E-05, 1.23374999999903,109.109436035156
0.125498225, 228.476839314616, -0.000242070047607244, 1.23999999999924,109.109436035156
0.126165066666667, 228.481643682205, -2.50894462916378E-05, 1.24624999999945,111.102355957031
0.126831643333333, 228.48618637421, -6.08911479941791E-05, 1.25374999999828,107.729339599609
0.1274981, 228.490684933675, 0.000409236238012075, 1.26124999999888,100.538299560547
0.128165848333333, 228.494835399572, 0.000281879135049152, 1.26624999999869,106.913246154785
0.128831865, 228.499138301014, 0.000648451722507313, 1.2737499999993,106.913246154785
0.129498186666667, 228.503585595971, 0.000464337470369482, 1.2799999999995,101.438339233398
0.130165685, 228.508482151155, 0.000522839031901682, 1.28624999999971,105.776023864746
0.130832031666667, 228.513076300477, 0.000500164670786879, 1.29374999999854,106.773536682129
0.131498078333333, 228.517609610918, 0.000601325589541036, 1.29999999999875,132.318878173828
0.132164853333333, 228.522360336707, 0.000371460635391019, 1.30624999999895,132.318878173828
0.132831526666667, 228.526575050866, 0.000638172738722681, 1.31249999999916,107.420524597168
0.133498105, 228.53095154846, 0.000551976568269065, 1.32124999999839,110.25146484375
0.134164966666667, 228.535273322916, 0.000729990626838649, 1.32749999999859,100.896553039551
0.13483147, 228.540061431064, 0.000511628594935102, 1.3324999999984,107.002410888672
0.135498296666667, 228.544415394361, 0.000606716318802779, 1.33999999999901,107.002410888672
0.13616539, 228.54889855786, 0.000596831815284982, 1.34749999999961,106.817443847656
0.136831608333333, 228.553233590407, 0.000539867676499917, 1.35249999999942,105.974349975586
0.137498215, 228.557457683484, 0.000408525273674898, 1.35874999999963,105.704299926758
0.138165018333333, 228.56171805441, 0.000347055361281061, 1.36624999999846,102.442810058594
0.138831463333333, 228.565937370953, 0.00020009574291256, 1.37374999999906,102.442810058594
0.139498185, 228.570679837137, 0.000111034716359877, 1.37999999999927,100.993667602539
0.140165, 228.574736832321, 0.000237283375040014, 1.38499999999908,109.445335388184
0.140831575, 228.579124964537, 0.000373566529678274, 1.39249999999969,106.81616973877
0.141498333333333, 228.583200007504, 0.00044094914508995, 1.39999999999851,103.19376373291
