Time (min), Depth (µm), Load (N), Position (µm), Acoustic (aJ)
6.77166666666667E-06, 227.950295068966, 0.00120013632766767, 0,128.907333374023
0.000665496666666667, 227.950251616857, 0.000987818992108198, 0.00124999999862041,108.011940002441
0.00133148333333333, 227.951045115392, 0.000797219065745467, 0.00624999999843112,106.185111999512
0.00199903666666667, 227.953243264914, 0.000407592636319733, 0.0137499999990354,103.939651489258
0.00266493833333333, 227.956782523533, 0.000154963325633226, 0.0212499999996396,108.016647338867
0.003331625, 227.960481393674, -0.000113590685205703, 0.0287499999984675,108.016647338867
0.00399893833333333, 227.964974374398, 8.28569311629863E-06, 0.0362499999990717,108.162101745605
0.00466490166666667, 227.969759754457, -0.000363437635614069, 0.0424999999992792,101.801666259766
0.00533141666666667, 227.974590269968, -0.000641783154615284, 0.0487499999994867,103.646881103516
0.00599847333333333, 227.979232307025, -0.000816968355250226, 0.0562499999983146,98.6271820068359
0.006664875, 227.983759810283, -0.000761699131359653, 0.0637499999989188,98.6271820068359
0.00733135833333333, 227.988814338532, -0.000732416102240138, 0.0724999999999199,108.704681396484
0.00816497, 227.994193516059, -0.000544679532030816, 0.0799999999987477,99.4084701538086
0.00883152, 227.999560109329, -0.000373520129216858, 0.0862499999989552,103.611351013184
0.00949798833333333, 228.005491092969, -0.000200170836349061, 0.0912499999987659,105.093559265137
0.0101648516666667, 228.010859207428, -3.58471067273137E-06, 0.0999999999997669,105.573822021484
0.010831365, 228.016800295116, -0.000241991735723327, 0.106249999999974,105.573822021484
0.0114984316666667, 228.022185657785, -0.000203791654496148, 0.112499999998406,106.212799072266
0.0121648616666667, 228.027417279309, -1.83979666297975E-05, 0.118749999998613,107.226852416992
0.01283237, 228.032228148091, -0.000207829451712358, 0.126249999999217,100.892112731934
0.0134981916666667, 228.038444070315, -0.000431165233808527, 0.131249999999028,106.624984741211
0.0141650833333333, 228.043353432575, -0.000508315358613291, 0.138749999999632,106.624984741211
0.01483135, 228.048712242342, -0.000435807500601757, 0.14499999999984,107.996383666992
0.01549822, 228.054159498999, -0.000579336791264893, 0.152499999998668,99.6982269287109
0.016164925, 228.059971249615, -0.000797419837165673, 0.157499999998478,103.467102050781
0.0168313383333333, 228.065012344552, -0.000864415471996292, 0.164999999999083,108.28050994873
0.0174983716666667, 228.073162624881, -0.00117376893349958, 0.17124999999929,108.28050994873
0.0183313266666667, 228.078117816868, -0.00117089657773599, 0.179999999998515,103.885475158691
0.01899845, 228.082630793893, -0.00100524339836282, 0.186249999998722,105.428558349609
0.0196646883333333, 228.087683742533, -0.000964793430105678, 0.191249999998533,104.651359558105
0.0203314583333333, 228.092505822888, -0.000561516186347943, 0.19749999999874,108.741333007813
0.0209981733333333, 228.097408760481, -0.000356561980938051, 0.206249999999741,107.948890686035
0.0216647083333333, 228.102573957078, -6.45881465133926E-05, 0.212499999999949,107.948890686035
0.0223315583333333, 228.108192335327, -1.55046119245606E-05, 0.21874999999838,107.146286010742
0.0229983733333333, 228.113419532206, 0.000154979824780407, 0.224999999998587,101.154243469238
0.0236648366666667, 228.118952406148, 0.000412594885076016, 0.232499999999192,102.233528137207
0.0243313583333333, 228.1245669086, 0.00047921253893576, 0.239999999999796,102.233528137207
0.0251648516666667, 228.129904706805, 0.000424681278000369, 0.247499999998624,102.130516052246
0.0258313816666667, 228.135182026143, 0.000494268782709916, 0.253749999998831,102.130516052246
0.0264986466666667, 228.140588092535, 0.000446910161482388, 0.259999999999039,105.853790283203
0.02716526, 228.145977080805, 3.35099261204674E-05, 0.266249999999246,103.702087402344
0.0278313083333333, 228.151362426454, -4.13918116850022E-05, 0.273749999999851,103.717102050781
0.0285003016666667, 228.156746258151, 0.000132390959399099, 0.278749999999661,103.717102050781
0.0291649833333333, 228.16254482781, 3.67212647779408E-05, 0.286249999998489,108.484924316406
0.02983135, 228.16827715523, 9.12330267385973E-05, 0.293749999999093,81.9041748046875
0.0304981783333333, 228.174002545221, 0.000207016711029352, 0.299999999999301,103.47420501709
0.031164875, 228.179538005736, 0.000440256495660561, 0.306249999999508,104.039016723633
0.0318319066666667, 228.185418378145, 0.00013698822850274, 0.313749999998336,122.467971801758
0.0324980083333333, 228.190922974843, 0.000169464597229398, 0.319999999998544,122.467971801758
0.033164915, 228.196144820427, 0.000142944429328273, 0.326249999998751,106.243812561035
0.0338314716666667, 228.201362114282, 0.000110621052933256, 0.332499999998959,99.2437744140625
0.03449826, 228.206788789454, -6.58435834302063E-05, 0.339999999999563,103.701217651367
0.035164965, 228.212131353708, -0.000125284097808878, 0.34624999999977,104.317771911621
0.0358320266666667, 228.217115344652, -2.9051931451482E-05, 0.352499999999978,104.317771911621
0.0364980183333333, 228.222194882401, 0.000258605119796707, 0.358749999998409,106.642631530762
0.037164905, 228.227447022202, 0.000163817380852189, 0.366249999999013,106.419715881348
0.0378312683333333, 228.23248147843, 0.000367778636094583, 0.372499999999221,99.8540191650391
0.03849817, 228.23718995013, 0.000888135499125045, 0.378749999999428,103.944053649902
0.0391657433333333, 228.242684261553, 0.00116254221598443, 0.386249999998256,103.944053649902
0.03983136, 228.248872778196, 0.000953623709760357, 0.392499999998464,104.895164489746
0.04049824, 228.254394974812, 0.00137086225232909, 0.399999999999068,104.044044494629
0.0411648816666667, 228.260351766276, 0.001280322300081, 0.406249999999275,107.613754272461
0.041831715, 228.266313187133, 0.000867057057957883, 0.412499999999483,101.75513458252
0.0424985816666667, 228.271640920193, 0.000620410946714914, 0.41874999999969,101.75513458252
0.043165095, 228.27690596707, 0.00069768256543885, 0.424999999999898,95.3490295410156
0.04383149, 228.282184241578, 0.000459052051588407, 0.431249999998329,106.65991973877
0.044498125, 228.287078655286, 0.000779138973970516, 0.43999999999933,109.067161560059
0.0451649216666667, 228.291661458609, 0.00101823746425603, 0.446249999999537,102.783309936523
0.0458314933333333, 228.296303405197, 0.0010644591425946, 0.451249999999348,102.783309936523
0.04649858, 228.300848271783, 0.00131174422173963, 0.458749999999952,103.485824584961
0.047164705, 228.305387642764, 0.00146996227461311, 0.464999999998383,106.113258361816
0.0478315166666667, 228.310087529177, 0.00138124623069443, 0.472499999998988,103.547286987305
0.0484981883333333, 228.314987681763, 0.00146429855906746, 0.478749999999195,124.155410766602
0.0491646916666667, 228.319890312317, 0.00149724740410867, 0.484999999999403,124.155410766602
0.0498314016666667, 228.325107448085, 0.00110388466229304, 0.49124999999961,104.576835632324
0.0504988333333333, 228.329833315964, 0.00133282866268942, 0.498749999998438,107.077209472656
0.05116489, 228.334981897681, 0.00124900687299124, 0.504999999998645,104.987915039063
0.0518317083333333, 228.339743745109, 0.00100932491198534, 0.511249999998853,102.408950805664
0.0524982383333333, 228.344769538694, 0.000836076114116322, 0.51749999999906,102.408950805664
0.053164865, 228.34912548276, 0.00086818800117048, 0.524999999999665,100.760406494141
0.0538313483333333, 228.354362894139, 0.000595698188038526, 0.531249999999872,100.290863037109
0.0544982833333333, 228.358589083294, 0.00048436927996934, 0.537499999998303,102.86735534668
0.0551648583333333, 228.363585425737, 0.000710737909676487, 0.543749999998511,103.40934753418
0.0558315783333333, 228.368262207, 0.00101069434317805, 0.551249999999115,103.40934753418
0.0564983216666667, 228.372890029008, 0.00127735544905875, 0.558749999999719,102.014556884766
0.057164855, 228.377608799256, 0.000871817818757717, 0.56374999999953,104.648078918457
0.0578315766666667, 228.38192914432, 0.00103728200765607, 0.569999999999737,102.514205932617
0.0584982133333333, 228.38656671652, 0.000924361679518725, 0.578749999998962,107.391273498535
0.05916503, 228.391066383352, 0.000701072395121565, 0.58499999999917,107.391273498535
0.05983169, 228.396077882455, 0.000271859954022485, 0.591249999999377,109.022384643555
0.060498135, 228.400411643808, 0.000533893792311476, 0.596249999999188,105.965698242188
0.06116466, 228.405128703308, 0.000379961024201999, 0.604999999998412,106.93041229248
0.061831385, 228.40943315371, 0.000371306458907415, 0.61124999999862,107.997451782227
0.0624992183333333, 228.413944569152, 0.000197967665531695, 0.616249999998431,107.997451782227
0.06316488, 228.417789359147, 0.000500604464388219, 0.623749999999035,103.106552124023
0.0638315016666667, 228.422221796201, 0.00030066750706366, 0.631249999999639,104.745994567871
0.064498725, 228.42684605922, 0.000441460935147663, 0.637499999999847,109.844055175781
0.0651648416666667, 228.431165726724, 0.00035718316834588, 0.643749999998278,125.57145690918
0.0658316166666667, 228.435122417824, 0.000759848442904577, 0.649999999998485,125.57145690918
0.0664981933333333, 228.439619421478, 0.000717612064406847, 0.657499999999089,104.859184265137
0.067164845, 228.444039265001, 0.000910817359861864, 0.663749999999297,105.793884277344
0.0678313883333333, 228.448356240079, 0.000802023324501774, 0.668749999999108,106.672256469727
0.0684989683333333, 228.452774323975, 0.000905896107065866, 0.676249999999712,102.369537353516
0.0691655016666667, 228.457093765144, 0.000771114377010316, 0.68374999999854,102.369537353516
0.0698313783333333, 228.460929188211, 0.000728203032403595, 0.689999999998747,104.03401184082
0.0704979566666667, 228.464909983848, 0.000718506019499967, 0.696249999998955,110.558166503906
0.07116472, 228.46883161479, 0.000591148916494535, 0.703749999999559,106.888526916504
0.071831415, 228.472976632479, 0.000355041275936708, 0.709999999999766,102.919250488281
0.0724982666666667, 228.477432975625, 1.57748169370108E-05, 0.714999999999577,102.919250488281
0.07316467, 228.481437103893, -0.000269968330496318, 0.723749999998802,98.4842376708984
0.0738314816666667, 228.485705227973, -0.000341754724763614, 0.729999999999009,106.368881225586
0.07449818, 228.489450104995, -0.000387263938904368, 0.73499999999882,102.366493225098
0.0751648683333333, 228.493308286053, -0.000223733152859371, 0.743749999999821,104.806289672852
0.075831655, 228.496648927711, -6.29397293391631E-05, 0.749999999998252,104.806289672852
0.0764980283333333, 228.500562501655, 9.21719795638154E-05, 0.75624999999846,106.485580444336
0.0771649766666667, 228.503172762393, 7.98620979033768E-05, 0.76124999999827,103.575607299805
0.0778313833333333, 228.506584110376, 0.000118362164117477, 0.768749999998875,106.110511779785
0.07849817, 228.509177487686, -3.35712044436454E-05, 0.776249999999479,106.407249450684
0.0791652166666667, 228.512147541326, -1.46901528035588E-05, 0.782499999999686,106.407249450684
0.0798315083333333, 228.515144824017, 5.19724987882828E-05, 0.788749999999894,104.426330566406
0.08049822, 228.518717988618, -5.07378421719968E-05, 0.794999999998325,101.874092102051
0.08116544, 228.52193570007, -0.000110493340717861, 0.801249999998532,105.927200317383
0.0818313683333333, 228.525208172552, 1.98726111718588E-05, 0.809999999999533,129.922439575195
0.0824981633333333, 228.528772015727, -3.64020785439778E-06, 0.816249999999741,129.922439575195
0.08316501, 228.532073725673, 5.88361540053119E-05, 0.821249999999552,102.440895080566
0.08383145, 228.535310227097, 2.12585414692477E-05, 0.827499999999759,107.073028564453
0.0844981183333333, 228.538862897417, -0.000123214201856079, 0.834999999998587,101.421646118164
0.08516491, 228.542103150217, -8.7148513416056E-05, 0.841249999998794,101.418830871582
0.0858313166666667, 228.545492605003, 8.83616539354828E-06, 0.847499999999002,101.418830871582
0.086498055, 228.549020726392, -0.000352656177218107, 0.853749999999209,103.721366882324
0.0871647133333333, 228.55241678062, 0.000158944125637095, 0.861249999999814,103.672271728516
0.0878314566666667, 228.555897893992, 0.000123992881198725, 0.868749999998641,103.608055114746
0.088498405, 228.559446570257, -5.3017727753793E-05, 0.873749999998452,102.768272399902
0.0891648216666667, 228.562588499954, -0.000196389526333333, 0.87999999999866,102.768272399902
0.0898314366666667, 228.565787798851, -6.13978068188191E-05, 0.887499999999264,100.354888916016
0.0904982683333333, 228.569033754623, -0.000558997812892299, 0.893749999999471,104.646820068359
0.09116539, 228.571784044708, -0.000254910586861521, 0.899999999999679,104.110252380371
0.0918313666666667, 228.57464053959, -0.00010134980004656, 0.907499999998507,105.742630004883
0.0924980033333333, 228.577231090277, -0.000262530204126571, 0.913749999998714,105.742630004883
0.0931658283333333, 228.580145940041, -6.13048115058171E-05, 0.919999999998922,106.582817077637
0.0938314, 228.582574185957, 6.07950555522698E-05, 0.926249999999129,104.076934814453
0.0944982283333333, 228.585857535429, -0.000265297565139426, 0.933749999999733,101.229972839355
0.095164875, 228.589042388683, -0.000393901105536506, 0.939999999999941,104.532638549805
0.0958315033333333, 228.592111377606, -0.000142008257859522, 0.946249999998372,104.532638549805
0.0964987833333333, 228.595111879878, -0.000411294231892257, 0.953749999998976,99.967903137207
0.0971646883333333, 228.598351374958, -0.000452908141656365, 0.959999999999184,106.404991149902
0.0978318416666667, 228.600919732406, -0.00017789095547984, 0.966249999999391,119.703475952148
0.09849823, 228.603884427775, -0.000198414424617797, 0.972499999999599,104.237915039063
0.0991654683333333, 228.607158786257, -0.000206990993800904, 0.979999999998427,104.237915039063
0.0998314433333333, 228.610085263471, 0.000112411962947049, 0.986249999998634,113.428901672363
0.100498611666667, 228.613362369711, 0.000237657171988865, 0.992499999998842,108.63557434082
0.101165476666667, 228.616408205923, 6.66222628791232E-05, 0.998749999999049,102.196754455566
0.101832076666667, 228.619475896528, 0.000269664064313542, 1.00624999999965,102.196754455566
0.10249811, 228.62286845945, -1.72085263867271E-05, 1.01249999999986,102.249481201172
0.103165028333333, 228.62619584109, -0.000232248225163198, 1.01874999999829,107.245941162109
0.103831368333333, 228.629625710817, -0.000225558561176947, 1.02374999999988,101.441368103027
0.104498265, 228.633059175917, -0.000159954856362584, 1.02999999999831,98.796028137207
0.105164908333333, 228.637390170318, -0.000526813929424276, 1.03874999999931,103.513702392578
0.105831485, 228.641182657792, -0.000567532384170861, 1.04624999999992,103.513702392578
0.106498163333333, 228.64465652958, -0.000539102812185578, 1.05249999999835,107.355606079102
0.107164811666667, 228.648382793242, -0.000893882991944933, 1.05874999999855,104.444305419922
0.107831595, 228.652003553732, -0.000721636143704817, 1.06499999999876,99.0378036499023
0.10849831, 228.656186043536, -0.000616242437477011, 1.07249999999937,108.261123657227
0.109164815, 228.65968504714, -0.00047161820180821, 1.07874999999957,108.261123657227
0.109831511666667, 228.66389287587, -0.000287820433783229, 1.08499999999978,103.873718261719
0.11049816, 228.667817474858, -5.22412832179544E-06, 1.09124999999999,105.91284942627
0.111164716666667, 228.672328242935, -0.000307674936552316, 1.09874999999882,105.295684814453
0.111831448333333, 228.675409699128, -0.000178246437627174, 1.10499999999902,106.165260314941
0.11249835, 228.679127501003, -0.000268729392769194, 1.10999999999883,106.165260314941
0.113164823333333, 228.682464156133, -0.00038232168714547, 1.11749999999944,106.224937438965
0.113831383333333, 228.685803783695, -0.000480556252900026, 1.12499999999827,102.987915039063
0.114498225, 228.689412415916, -0.000569177801538792, 1.13124999999847,128.356643676758
0.11516493, 228.693134483817, -0.0007266173934982, 1.13749999999868,100.48698425293
0.115831343333333, 228.697191758536, -0.00055909680788166, 1.14499999999929,100.48698425293
0.116498691666667, 228.70075672755, -0.000648366323990158, 1.15124999999949,100.947479248047
0.117164818333333, 228.705084078065, -0.000764359997761131, 1.1574999999997,105.407989501953
0.11783169, 228.708700019349, -0.000862194083636256, 1.16374999999991,103.816589355469
0.118498476666667, 228.712466902107, -0.000992198553617265, 1.17124999999874,100.745735168457
0.119164658333333, 228.715983675445, -0.00121242949166734, 1.17749999999894,100.745735168457
0.119831338333333, 228.719797155632, -0.0013984411484941, 1.18374999999915,107.329460144043
0.120498066666667, 228.722971428285, -0.00118247299634198, 1.19124999999976,104.71794128418
0.12116466, 228.726349689645, -0.000929771689241609, 1.19749999999996,108.343284606934
0.121831386666667, 228.729144282664, -0.000862950045620514, 1.20374999999839,100.445724487305
0.122498198333333, 228.731842470424, -0.000214523615408056, 1.211249999999,100.445724487305
0.123164903333333, 228.735371359246, -0.000130475337061225, 1.21749999999921,104.924819946289
0.123831583333333, 228.738556351189, -0.000156571026292466, 1.22374999999941,103.205978393555
0.124498043333333, 228.741882475935, -5.87054419623646E-05, 1.23125000000002,109.399551391602
0.125164761666667, 228.745106045663, -7.39356769672987E-05, 1.23749999999845,105.822044372559
0.125831376666667, 228.748978902501, -0.000270451306196675, 1.24374999999866,105.822044372559
0.126498186666667, 228.751976683869, 6.74142231340762E-05, 1.24999999999886,105.871360778809
0.127164795, 228.755352330243, 0.000212788421153285, 1.25624999999907,104.257476806641
0.12783151, 228.758899789046, 0.000282053442052369, 1.2649999999983,109.014045715332
0.128498098333333, 228.762937655596, 0.000380854979358882, 1.26999999999988,101.921119689941
0.129164998333333, 228.766418561417, 0.000140741040018568, 1.27624999999831,101.921119689941
0.12983133, 228.770009568588, -0.000216133034569055, 1.28374999999892,98.3058853149414
0.130498723333333, 228.773319290486, -0.000397415428923437, 1.28999999999913,107.874504089355
0.131165505, 228.776779064486, -0.00032914035832179, 1.29624999999933,130.772796630859
0.131831388333333, 228.780101076651, -0.000517362904080275, 1.30374999999994,97.0017395019531
0.132498215, 228.783800519019, -0.000804401986431814, 1.31124999999876,97.0017395019531
0.133164855, 228.787552724302, -0.000684444011782899, 1.31624999999858,103.882080078125
0.133831476666667, 228.791199366639, -0.000677601355486261, 1.32249999999878,102.412132263184
0.134498088333333, 228.794624794325, -0.000800172198891987, 1.32999999999939,108.059097290039
0.135164785, 228.797407441126, -0.000342795672448254, 1.33749999999999,105.684577941895
0.135831365, 228.800753239543, -0.000210050840093648, 1.3424999999998,105.684577941895
0.136498121666667, 228.804367213116, -0.000264339113275711, 1.34875000000001,100.325492858887
0.13716486, 228.808021349629, -0.000269741841911426, 1.35749999999923,108.718040466309
0.137831365, 228.81178930437, -0.000608397831530219, 1.36374999999944,103.112998962402
0.138498241666667, 228.815946011782, -0.000807896810865265, 1.36874999999925,102.755867004395
0.139164821666667, 228.819583338662, -0.000493880083605846, 1.37499999999946,102.755867004395
0.139831536666667, 228.823375023929, -0.000457577407025092, 1.38374999999868,106.034828186035
0.140498695, 228.826798269545, -0.000434192081636874, 1.3887499999985,107.552917480469
0.141164886666667, 228.829728883547, -0.00028199922611148, 1.3949999999987,106.748046875
0.141831371666667, 228.833382415096, -8.08458298620829E-05, 1.4037499999997,102.535217285156
0.142498001666667, 228.836660616881, -0.000320464794043051, 1.40999999999991,102.535217285156
