Time (min), Depth (µm), Load (N), Position (µm), Acoustic (aJ)
8.35833333333333E-06, 227.627405477406, -0.000636836237534846, 0,101.302108764648
0.00066568, 227.626979414234, -0.00061356040664932, 0,106.753349304199
0.001332385, 227.626959245686, -0.000404874388729008, 0.00249999999901718,102.60546875
0.00199898666666667, 227.628463896548, -0.000550070095701722, 0.00999999999962142,104.819328308105
0.00266575666666667, 227.631329322882, -0.000759834559480517, 0.0199999999992428,103.792686462402
0.003332875, 227.635648290428, -0.000328358732053092, 0.0262499999994503,103.792686462402
0.00399925333333333, 227.640832243483, -6.69833606196394E-05, 0.0337499999982782,98.6676940917969
0.00466566, 227.646937617053, -2.64898945760519E-05, 0.0399999999984857,107.272026062012
0.00533240666666667, 227.652003045673, 0.000280454687910523, 0.0462499999986932,102.643348693848
0.00599934, 227.65661048819, 0.000320339184582626, 0.0537499999992974,102.680595397949
0.00666570666666667, 227.659937146281, 0.000225285958997477, 0.0612499999999017,102.680595397949
0.00733300333333333, 227.664109073212, 0.000140447220341351, 0.0674999999983328,132.718124389648
0.00799954166666667, 227.667706255456, 0.000183138076018285, 0.074999999998937,105.592056274414
0.00866562666666667, 227.671938707518, -0.000226330856802566, 0.0812499999991445,100.216987609863
0.00933263, 227.676377107617, -0.00018511292714468, 0.0887499999997488,100.919326782227
0.00999903, 227.68146744056, -0.00038412743087622, 0.0949999999999562,100.919326782227
0.01066631, 227.686185829528, -0.000330964101209141, 0.101249999998387,104.796730041504
0.01133251, 227.691353924425, -0.00076525228733901, 0.108749999998992,100.099044799805
0.0119992783333333, 227.696318607864, -0.000520608575578218, 0.114999999999199,105.392738342285
0.01266599, 227.701599275122, -0.000488894168554686, 0.11999999999901,105.747772216797
0.0133324, 227.706610075231, -0.000378735201690074, 0.127499999999614,105.747772216797
0.01399977, 227.711143620157, -0.000411828039452741, 0.133749999999822,101.891456604004
0.0146655866666667, 227.715892507444, -0.000194377961777661, 0.139999999998253,110.232864379883
0.0153324, 227.720125599244, -0.000270470639708096, 0.147499999998857,105.181678771973
0.0159995266666667, 227.72430078277, -0.000166017386314928, 0.153749999999064,104.799293518066
0.0166656383333333, 227.728842653641, -0.000369102685578295, 0.159999999999272,104.799293518066
0.0173324633333333, 227.733424166566, -0.000372659006933534, 0.166249999999479,103.238800048828
0.0179992833333333, 227.737914633306, -0.000459134163389918, 0.173749999998307,110.927154541016
0.0186657933333333, 227.742500580286, -0.00016998918683614, 0.179999999998515,106.316139221191
0.0193325116666667, 227.747030051681, -0.000380446615774256, 0.186249999998722,102.943534851074
0.019999435, 227.751137090904, -0.000279486686868882, 0.191249999998533,102.943534851074
0.0206656666666667, 227.754837959965, -3.96412340392591E-05, 0.198749999999137,105.733024597168
0.02133289, 227.759762255435, -1.32920575413601E-05, 0.206249999999741,103.606948852539
0.0219995416666667, 227.764328417628, -0.00026111860948098, 0.212499999999949,103.678337097168
0.02266566, 227.769070606472, -1.86602879158002E-05, 0.219999999998777,100.073249816895
0.02333272, 227.774444179352, 0.000209880232731091, 0.226249999998984,100.073249816895
0.02399919, 227.781005892435, -3.92242550338994E-05, 0.232499999999192,134.073669433594
0.0246659383333333, 227.786706228715, 0.000216892380485297, 0.239999999999796,103.769027709961
0.0253324516666667, 227.792221305071, 0.000192523104539764, 0.246250000000003,102.812652587891
0.0259991, 227.797758044231, -0.000223343006923686, 0.252499999998435,99.4758834838867
0.0266657533333333, 227.803292222923, -0.000225699388565032, 0.257500000000022,99.4758834838867
0.0273324866666667, 227.808765181023, -0.000301993056408012, 0.266249999999246,109.542854309082
0.0279991766666667, 227.813431091723, -0.000665502797703368, 0.272499999999454,100.904281616211
0.0286657666666667, 227.819415411802, -0.000293470484503422, 0.278749999999661,103.407928466797
0.0293324783333333, 227.824900871673, 3.9644783434556E-05, 0.284999999999869,105.750129699707
0.02999936, 227.83080574304, 0.000110507224099413, 0.292499999998697,105.750129699707
0.0306656516666667, 227.836270275868, 0.000266229402340788, 0.298749999998904,103.532531738281
0.0313325883333333, 227.841897721646, 0.000518120750114622, 0.304999999999112,101.397499084473
0.0320008616666667, 227.847209231023, 0.000606187326639166, 0.312499999999716,101.331336975098
0.0326658, 227.8523058717, 0.000846802240815185, 0.318749999999923,103.860893249512
0.0333326033333333, 227.857890089687, 0.000839511107058211, 0.324999999998354,103.860893249512
0.0339991133333333, 227.863230398807, 0.000835237821689436, 0.332499999998959,109.923286437988
0.034665675, 227.868760862557, 0.00102953506232257, 0.339999999999563,107.377906799316
0.0354991983333333, 227.87697979611, 0.000573067490258494, 0.34624999999977,103.247100830078
0.0361656466666667, 227.882719728827, 0.000237801330322416, 0.353749999998598,111.008773803711
0.0368325033333333, 227.887946254349, 6.64904351012204E-05, 0.359999999998806,106.312355041504
0.0374990966666667, 227.89279149643, -8.23920867135776E-05, 0.366249999999013,106.312355041504
0.0381657466666667, 227.897883790143, 0.000351813603595366, 0.373749999999617,108.928764343262
0.0388325866666667, 227.902982700212, 0.000523470981374969, 0.379999999999825,105.669136047363
0.0394991516666667, 227.908342005855, 0.000839224621412172, 0.386249999998256,106.251678466797
0.0401657616666667, 227.913768695547, 0.00122012748906328, 0.39374999999886,123.743240356445
0.0408326616666667, 227.919253887998, 0.00131740360299663, 0.399999999999068,123.743240356445
0.0414991333333333, 227.925218710894, 0.000954979807160519, 0.407499999999672,101.092842102051
0.042165695, 227.930720920043, 0.00076213749341109, 0.412499999999483,106.888069152832
0.0428343116666667, 227.936207127321, 0.000772093993321497, 0.419999999998311,106.020179748535
0.0434991633333333, 227.941750765616, 0.000781255533128145, 0.426249999998518,105.896789550781
0.0441656733333333, 227.946952793169, 0.00106425081858712, 0.433749999999122,105.896789550781
0.0448323083333333, 227.952374245094, 0.0010662127200679, 0.438749999998933,105.268280029297
0.0454992066666667, 227.958448292661, 0.00085868614390259, 0.446249999999537,106.01505279541
0.0461657483333333, 227.964017102766, 0.000633880435636179, 0.452499999999745,104.934196472168
0.0468324733333333, 227.96988344218, 0.000321336634395808, 0.458749999999952,106.060729980469
0.047499365, 227.976019032713, -0.000347011795183884, 0.46624999999878,106.060729980469
0.0481656533333333, 227.981579632874, -0.000383855944537976, 0.472499999998988,102.237533569336
0.0488334516666667, 227.987097539819, -0.000231708086765933, 0.479999999999592,104.395782470703
0.0494995133333333, 227.992207598937, -9.01106990530047E-05, 0.486249999999799,103.316673278809
0.05016572, 227.99735652227, -2.59484218664759E-05, 0.492500000000007,100.803161621094
0.0508322983333333, 228.001942989531, 0.000194416009476741, 0.498749999998438,100.803161621094
0.05149913, 228.007240404266, 0.000504024458149838, 0.506249999999042,103.326591491699
0.05216601, 228.011813213212, 0.00069994461728485, 0.511249999998853,108.032127380371
0.05283331, 228.01747532532, 0.000679130162791407, 0.518749999999457,104.357048034668
0.053499315, 228.022374499395, 0.000878605143357255, 0.524999999999665,103.867713928223
0.0541656683333333, 228.028403895155, 0.000992897902557377, 0.532499999998493,103.867713928223
0.05483245, 228.033523322432, 0.00106153745485278, 0.539999999999097,107.697334289551
0.0554991433333333, 228.039626010789, 0.000962251441857743, 0.544999999998907,105.551231384277
0.056332815, 228.044403979061, 0.00104088049242168, 0.553749999999908,131.763748168945
0.0569991383333333, 228.049982209858, 0.00109756864503153, 0.561249999998736,111.974884033203
0.0576658216666667, 228.05530158692, 0.00114388031883429, 0.566249999998547,103.82453918457
0.0583341366666667, 228.060978289389, 0.000783932898591788, 0.572499999998755,103.82453918457
0.0589991083333333, 228.066201993877, 0.000726364290229702, 0.579999999999359,102.242584228516
0.0596657183333333, 228.071500933753, 0.000904429346207744, 0.587499999999963,99.6001586914063
0.0603328083333333, 228.076668423799, 0.00101825712875784, 0.593749999998394,103.368209838867
0.0609991166666667, 228.082147857114, 0.000714268897737675, 0.599999999998602,104.732780456543
0.06166565, 228.087639801193, 0.000759458627895519, 0.606249999998809,104.732780456543
0.0623323333333333, 228.093191318373, 0.000430486151818216, 0.613749999999413,106.095222473145
0.06299951, 228.098958738983, 0.000219308759060265, 0.619999999999621,106.735420227051
0.0636664816666667, 228.104812326468, 2.82963534441302E-05, 0.624999999999432,112.305564880371
0.0643324516666667, 228.110284620613, 0.000285683425166681, 0.632499999998259,108.9638671875
0.0649991933333333, 228.115589614481, 5.23596447688906E-05, 0.638749999998467,108.9638671875
0.0656659533333333, 228.121016718408, 0.000141504667088156, 0.646249999999071,102.989967346191
0.06633246, 228.126406801712, -8.73978631859564E-06, 0.653749999999675,101.679901123047
0.0669994733333333, 228.132059237703, -0.000270941616204514, 0.659999999999883,101.460914611816
0.06766602, 228.137734316177, -0.000552409978344665, 0.664999999999694,103.427139282227
0.0683325266666667, 228.143151505101, -0.000487016262989266, 0.672499999998522,103.427139282227
0.0689991583333333, 228.148442740178, -0.000113755511469256, 0.679999999999126,103.824150085449
0.06966597, 228.154322583691, -0.000263603984727277, 0.686249999999333,103.465728759766
0.0703328733333333, 228.159983818837, -0.000167980787783874, 0.692499999999541,105.093307495117
0.0709992316666667, 228.16581498603, 0.000113448576321792, 0.698749999999748,107.642082214355
0.0716656666666667, 228.171603075802, 0.000440972125106736, 0.704999999999956,107.642082214355
0.0723330233333333, 228.177813024884, 0.000262628083147181, 0.712499999998784,105.477828979492
0.0729994183333333, 228.18360685013, 0.000391101130099923, 0.718749999998991,134.784378051758
0.0736664933333333, 228.189011911422, 0.000474666432703889, 0.724999999999199,109.548141479492
0.0743324533333333, 228.193992651533, 0.000762648967653855, 0.731249999999406,105.705619812012
0.0749995033333333, 228.199694429866, 0.000450448649144339, 0.73875000000001,105.705619812012
0.07566596, 228.20508884107, 0.000425473403654873, 0.744999999998441,100.558624267578
0.0763330366666667, 228.210733052529, 0.000247946820622618, 0.749999999998252,108.076881408691
0.0769993216666667, 228.216352577318, 0.000190925684731483, 0.757499999998856,101.528411865234
0.0776655883333333, 228.222108415176, -0.000282143053539658, 0.764999999999461,103.016426086426
0.0783337066666667, 228.227625805544, -0.000338682713591077, 0.771249999999668,103.016426086426
0.0789992133333333, 228.233273002175, -0.000400934086790298, 0.778749999998496,104.861320495605
0.0796656166666667, 228.238969642336, -0.000194520454723495, 0.783749999998307,104.777626037598
0.0803330733333333, 228.244392900406, -3.70206639375921E-07, 0.789999999998514,101.998664855957
0.0809993383333333, 228.249653955273, 4.6662930928883E-05, 0.797499999999118,102.09196472168
0.0816659783333333, 228.255634014149, -6.30955559925346E-05, 0.804999999999723,102.09196472168
0.08233313, 228.261012079404, -0.000104817460313677, 0.809999999999533,106.36604309082
0.08299919, 228.266139512366, 9.24901291281439E-05, 0.817499999998361,103.800621032715
0.08366627, 228.271627685596, -0.000130281681328638, 0.823749999998569,103.518424987793
0.0843328283333333, 228.27703683158, -0.000225058920759824, 0.831249999999173,103.585411071777
0.0849991683333333, 228.282501063566, -2.16886358598384E-05, 0.836249999998984,103.585411071777
0.08566569, 228.287994671923, 0.000132710608802814, 0.843749999999588,107.836791992188
0.0863329616666667, 228.293025929647, 0.000357523816648733, 0.849999999999795,100.255828857422
0.0869993833333333, 228.298471493362, 0.000316764863964514, 0.856250000000003,105.432975769043
0.087665635, 228.304124575568, 0.000381629105856784, 0.863749999998831,101.218399047852
0.0883326133333333, 228.30968563078, 0.000181567654764246, 0.869999999999038,101.218399047852
0.0889991683333333, 228.314586727183, 0.000498942713357674, 0.876249999999246,104.254539489746
0.08966575, 228.32060260555, 6.38190691864115E-05, 0.882499999999453,122.008865356445
0.090332695, 228.32614659275, 0.000143778552908576, 0.889999999998281,106.53050994873
0.09099946, 228.33125462028, 0.000362119585891733, 0.896249999998489,102.553215026855
0.09166597, 228.336068636211, 0.000773853404922822, 0.902499999998696,102.553215026855
0.092332555, 228.341339614161, 0.00046112211311079, 0.9099999999993,104.04296875
0.0929992366666667, 228.345941471633, 0.000615432862212396, 0.916249999999508,105.337249755859
0.0936659216666667, 228.35079579362, 0.00106042301082987, 0.922499999999715,104.34300994873
0.0943324266666667, 228.355945970938, 0.00110802911962644, 0.928749999999923,107.419990539551
0.09499953, 228.361260753369, 0.000810238577303247, 0.934999999998354,107.419990539551
0.0956659283333333, 228.366675819542, 0.000994171338545776, 0.942499999998958,105.808822631836
0.0963332583333333, 228.372235787834, 0.000795918796559869, 0.948749999999166,105.867034912109
0.0969992466666667, 228.377520544973, 0.000542814009731259, 0.954999999999373,106.445350646973
0.0976664466666667, 228.383000290529, 0.000250306202070262, 0.962499999999977,106.968910217285
0.0983324983333333, 228.387941957741, 0.000369179731205589, 0.968749999998408,106.968910217285
0.0989992433333333, 228.392902213677, 0.000319598221651113, 0.974999999998616,107.138313293457
0.099665745, 228.397768319682, 0.000493332995175563, 0.98249999999922,106.204132080078
0.10033252, 228.402570822203, 0.000402509557151496, 0.988749999999428,109.86547088623
0.100999445, 228.408091977113, 0.000501453587318826, 0.994999999999635,104.715522766113
0.10166565, 228.412698070561, 0.000536617821022458, 1.00124999999984,104.715522766113
0.102333026666667, 228.417778861309, 0.000274096507196138, 1.00749999999827,102.751983642578
0.102999146666667, 228.422188680683, 0.000285416438601647, 1.01374999999848,101.316688537598
0.103665956666667, 228.427609407975, 6.05267345474E-05, 1.02124999999909,103.612266540527
0.10433257, 228.431792301549, 0.000132035642736332, 1.0249999999985,106.526023864746
0.104999308333333, 228.436132369533, 6.6119953646091E-05, 1.0337499999995,106.526023864746
0.10566564, 228.440142415209, -4.56004347348533E-05, 1.04124999999833,100.004364013672
0.106332546666667, 228.444641194577, -0.000272851020203656, 1.04749999999854,120.012222290039
0.1069997, 228.448941725504, -0.000411751543371937, 1.05499999999914,105.674644470215
0.107665661666667, 228.453480622471, -0.000711445490039172, 1.06124999999935,104.066528320313
0.108333058333333, 228.45837345687, -0.0006727534334802, 1.06749999999955,104.066528320313
0.108999206666667, 228.462865005627, -0.000481972016243421, 1.07499999999838,105.057609558105
0.109665656666667, 228.46753264526, -0.000508358690872656, 1.08124999999859,101.126686096191
0.110332478333333, 228.471671647202, -0.000443473449974978, 1.0874999999988,100.895622253418
0.110999643333333, 228.476329548577, -0.000438190715355286, 1.09374999999901,103.904151916504
0.111665641666667, 228.479780953158, -0.000112825558147949, 1.09999999999921,103.904151916504
0.112332398333333, 228.484250878167, -1.82133104011212E-05, 1.10749999999982,106.256217956543
0.112998973333333, 228.488319805008, 7.40155570651025E-05, 1.11375000000002,101.921569824219
0.113666256666667, 228.492819848812, 0.000457273306411899, 1.11999999999846,102.922897338867
0.114334448333333, 228.496356982157, 0.000757810210763798, 1.12749999999906,111.451522827148
0.114999131666667, 228.500895887664, 0.000584373922301866, 1.13374999999927,111.451522827148
0.11566718, 228.504472753096, 0.000654817883973198, 1.13999999999947,108.272674560547
0.116334285, 228.508367586341, 0.000682157010726025, 1.14624999999968,104.96321105957
0.116999166666667, 228.511636804032, 0.00055135008101924, 1.15249999999989,107.706413269043
0.117667308333333, 228.515820292307, 0.000497951263178342, 1.15999999999872,102.763870239258
0.118332433333333, 228.519568833316, 0.000550933101950118, 1.16624999999893,102.763870239258
0.119000671666667, 228.523622867269, 0.00064289048303559, 1.17374999999953,110.426277160645
0.11966571, 228.527795928157, 0.000645314361275082, 1.17999999999974,101.965133666992
0.12033248, 228.532052609386, 0.000499392690742413, 1.18624999999994,107.139015197754
0.121000198333333, 228.535366486493, 0.000227073869034939, 1.19374999999877,96.8531112670898
0.121667195, 228.538899506027, 0.000322268087513994, 1.19999999999898,96.8531112670898
0.122332491666667, 228.5423125716, 0.000241624638136419, 1.20749999999958,103.440902709961
0.122999253333333, 228.545809971361, 0.000245656435655015, 1.21249999999939,123.416526794434
0.123665646666667, 228.548531496212, 0.000231122165721971, 1.22,105.773063659668
0.124332993333333, 228.552151765869, 0.000209574248025302, 1.22624999999843,101.366600036621
0.125000161666667, 228.555183801444, -0.000174314969580283, 1.23249999999864,101.366600036621
0.125666061666667, 228.558640714834, -0.000344895401510821, 1.23999999999924,101.121437072754
0.12633246, 228.561685373558, -0.000321613570927683, 1.24624999999945,107.529876708984
0.126999131666667, 228.565088073313, -0.000247172310062792, 1.25249999999966,102.37784576416
0.127665593333333, 228.568116959924, -0.000170223175128064, 1.25999999999848,107.981521606445
0.128333103333333, 228.572088179448, -6.96387546381865E-06, 1.2649999999983,107.981521606445
0.128999473333333, 228.575048669292, 3.12122070154159E-05, 1.2724999999989,104.908332824707
0.129665798333333, 228.578558291875, -0.000234326955262866, 1.27874999999911,101.096664428711
0.130332611666667, 228.582133163854, -9.32545411760938E-05, 1.28624999999971,106.752647399902
0.130999176666667, 228.584725643699, -1.46824877607375E-05, 1.29374999999854,103.528526306152
0.131665975, 228.587700022833, -0.000208469754032998, 1.29874999999835,103.528526306152
0.132332748333333, 228.590512728971, -0.00031264852126037, 1.30499999999856,110.96996307373
0.132999483333333, 228.592926923055, -4.61029095587234E-05, 1.31249999999916,99.3578109741211
0.133665945, 228.595276470494, -0.000255972368024493, 1.31999999999977,105.611877441406
0.134333088333333, 228.598440918224, -0.000376152331527598, 1.32499999999958,104.922187805176
0.134999175, 228.600333118986, -3.07541804834238E-05, 1.33124999999978,104.922187805176
0.135665836666667, 228.603977753253, -5.07631754660471E-05, 1.33874999999861,101.709548950195
0.136333296666667, 228.606675082008, -8.91027497052368E-05, 1.34499999999882,112.19465637207
0.136999163333333, 228.609541029608, 0.000216157417400176, 1.35249999999942,108.707962036133
0.137665623333333, 228.611854872252, 0.000642711992010348, 1.35874999999963,105.990852355957
0.138333025, 228.615410109098, 0.00049794376357758, 1.36499999999984,105.990852355957
0.138999548333333, 228.617484586779, 0.000569287680039645, 1.37124999999827,125.373115539551
0.139665815, 228.620661441548, 0.000255143459205949, 1.37874999999887,103.214706420898
0.14033247, 228.623372307751, 0.000166014936033865, 1.38624999999948,103.461761474609
0.140999148333333, 228.626927141976, -0.000364295427015689, 1.39124999999929,98.9377670288086
0.141665945, 228.629465173718, -0.000345544868841194, 1.3974999999995,98.9377670288086
0.142333365, 228.633009518038, -0.000627356713712199, 1.40499999999832,100.605697631836
