Time (min), Depth (µm), Load (N), Position (µm), Acoustic (aJ)
8.66166666666667E-06, 228.012392247532, 0.000345890256366157, 0,103.896179199219
0.000663208333333333, 228.012364018203, 0.000366176737427145, 0.00124999999862041,104.442909240723
0.00132991833333333, 228.012660084598, 0.000365108791081993, 0.00624999999843112,109.918655395508
0.001996395, 228.014386560184, 0.000407871643172792, 0.0137499999990354,122.603736877441
0.00266337166666667, 228.017389905542, 0.000596574164825336, 0.0212499999996396,122.603736877441
0.00333, 228.021786927702, 0.000568983050708998, 0.0299999999988643,101.62686920166
0.00399648333333333, 228.026647096528, 0.000690097467221604, 0.0362499999990717,104.223472595215
0.004663175, 228.031897336721, 0.000689798982180339, 0.0424999999992792,109.467651367188
0.00532991166666667, 228.036902824845, 0.000704784729465034, 0.0499999999998835,101.797706604004
0.0059964, 228.04079899765, 0.0002689951187312, 0.0574999999987114,101.797706604004
0.00666338833333333, 228.044909457261, 6.6607284485381E-05, 0.0637499999989188,104.32048034668
0.00733007833333333, 228.049508929378, -0.000120395822520715, 0.0712499999995231,105.123886108398
0.00799641166666667, 228.054476614244, 0.000110807064430804, 0.078749999998351,102.027061462402
0.00866322166666667, 228.059868952921, 0.00026281092943888, 0.0849999999985585,104.54857635498
0.00933049833333333, 228.06579308581, 0.00059407079059247, 0.0899999999983692,104.54857635498
0.00999641166666667, 228.071174086159, 0.000608624559585265, 0.0974999999989734,103.131523132324
0.0106631983333333, 228.076738358781, 0.000631061932601844, 0.104999999999578,101.173416137695
0.0113304916666667, 228.082796499434, 0.000421861440504944, 0.109999999999388,109.757789611816
0.0119963783333333, 228.087591817765, 0.000266688234658924, 0.117499999999993,99.4637832641602
0.0126632766666667, 228.092484887544, 0.000144117391274452, 0.12499999999882,99.4637832641602
0.013330015, 228.097546625496, 0.000296674728472346, 0.129999999998631,105.542442321777
0.013996445, 228.102638954352, 0.000166145284843926, 0.136249999998839,106.08723449707
0.0146633283333333, 228.107980451074, 0.000155227333242252, 0.143749999999443,100.53108215332
0.01533001, 228.113051102025, -5.83559387261153E-05, 0.14999999999965,104.581581115723
0.0159964666666667, 228.118321067525, 6.14235448550498E-05, 0.156249999999858,104.581581115723
0.0166633133333333, 228.123720861384, -9.76809634895322E-05, 0.162499999998289,105.853858947754
0.0173303166666667, 228.128811219094, 0.000148150688632435, 0.169999999998893,102.558197021484
0.0179966633333333, 228.133395484767, 0.0002936388809488, 0.176249999999101,103.586776733398
0.01866305, 228.139035748718, 0.000600410972107746, 0.182499999999308,124.81746673584
0.0193300016666667, 228.143864849836, 0.000440088524977686, 0.188749999999516,124.81746673584
0.0199964816666667, 228.149601553222, 0.000453632844655801, 0.194999999999723,108.526161193848
0.02066372, 228.154146412736, 0.000284859821928745, 0.201249999999931,103.175354003906
0.0213298616666667, 228.159439071123, 0.000305237798335824, 0.208749999998759,102.658630371094
0.021996515, 228.164144906208, 0.000331115998486084, 0.214999999998966,104.118804931641
0.0226633716666667, 228.16964031461, 0.000765842162647974, 0.22249999999957,104.118804931641
0.0233300083333333, 228.17435026875, 0.00132723246457096, 0.228749999999778,103.659729003906
0.0239964633333333, 228.180470443738, 0.00152527501711916, 0.234999999999985,107.79923248291
0.0246633983333333, 228.185799652233, 0.00177788332888527, 0.242499999998813,107.811538696289
0.0253300633333333, 228.19137880112, 0.00176737785660076, 0.248749999999021,104.856018066406
0.0259967483333333, 228.196767228274, 0.00159097321723469, 0.254999999999228,104.856018066406
0.0266630833333333, 228.20234489482, 0.00142164972220913, 0.261249999999436,103.360084533691
0.02733024, 228.20747507953, 0.00143221669143668, 0.267499999999643,102.889556884766
0.02799643, 228.212836699906, 0.00109008237648911, 0.274999999998471,108.123626708984
0.0286638333333333, 228.218009532395, 0.00107506063101873, 0.281249999998678,99.1563873291016
0.0293299883333333, 228.222834027105, 0.00119880591544475, 0.288749999999283,99.1563873291016
0.029996425, 228.228318307849, 0.00121756847299322, 0.29499999999949,104.311424255371
0.0306635016666667, 228.233737137502, 0.00143112624622547, 0.301249999999698,106.564758300781
0.0313299516666667, 228.238999659819, 0.00122938637938563, 0.308749999998525,99.3600006103516
0.0319963983333333, 228.244500674829, 0.00163047673302334, 0.314999999998733,109.173805236816
0.0326633383333333, 228.249911956735, 0.00174218512205157, 0.32124999999894,109.173805236816
0.0333298066666667, 228.254904104826, 0.00182449648764187, 0.327499999999148,106.38402557373
0.0339966333333333, 228.260489695016, 0.00151684244078503, 0.334999999999752,103.542671203613
0.0346632366666667, 228.265635888959, 0.00193641636601096, 0.34124999999996,124.178886413574
0.0353299283333333, 228.270625887367, 0.00186871426661637, 0.347499999998391,106.447166442871
0.0359964733333333, 228.276128506626, 0.00169992324481773, 0.354999999998995,106.447166442871
0.0366632566666667, 228.280722480708, 0.00185264107396928, 0.361249999999202,93.450569152832
0.0373301683333333, 228.285390690475, 0.00232660976698865, 0.36749999999941,101.53483581543
0.0379968166666667, 228.289861325257, 0.00225783522143319, 0.375000000000014,105.502021789551
0.03866335, 228.294953752373, 0.00189310604138545, 0.381249999998445,107.577239990234
0.0393302183333333, 228.299358594795, 0.00180919875599628, 0.387499999998653,107.577239990234
0.0399966916666667, 228.304814325241, 0.00143605799844979, 0.394999999999257,104.825691223145
0.04066366, 228.30987314093, 0.00111447265133378, 0.401249999999465,111.209625244141
0.0413298966666667, 228.31488004998, 0.00103066886074969, 0.407499999999672,103.757400512695
0.04199693, 228.319507353476, 0.00112874593446316, 0.413749999999879,100.200828552246
0.0426634116666667, 228.324714443578, 0.00120224374272962, 0.419999999998311,100.200828552246
0.0433302983333333, 228.32921598726, 0.00125400764269467, 0.427499999998915,100.951461791992
0.0439970116666667, 228.333619719478, 0.00137815640684892, 0.433749999999122,101.555770874023
0.044663085, 228.338162210389, 0.00134271618692757, 0.441249999999727,101.766967773438
0.0453305483333333, 228.343281241437, 0.00122413364319024, 0.446249999999537,100.220405578613
0.04599669, 228.347967008881, 0.00141948533087014, 0.453749999998365,100.220405578613
0.0466632433333333, 228.352830090027, 0.00129428511958168, 0.459999999998573,104.476470947266
0.047331295, 228.357666204945, 0.00109514912195222, 0.467499999999177,101.435409545898
0.0479964766666667, 228.362717546942, 0.00146162571422732, 0.473749999999384,100.452758789063
0.04866309, 228.367284564479, 0.00120092080917216, 0.479999999999592,105.008277893066
0.0493303716666667, 228.372251867201, 0.000779086497466692, 0.48749999999842,105.008277893066
0.04999642, 228.37668087454, 0.00107849095868159, 0.492500000000007,104.70783996582
0.0506637983333333, 228.380838530683, 0.00119419814684903, 0.499999999998835,105.566955566406
0.0513299083333333, 228.385405107105, 0.000752084853747105, 0.506249999999042,124.557136535645
0.051996695, 228.389108820742, 0.00136083377689762, 0.513749999999646,104.381790161133
0.052663405, 228.393610739018, 0.00160061173310784, 0.519999999999854,104.381790161133
0.0533299183333333, 228.398534637895, 0.00137575652735738, 0.526249999998285,101.50659942627
0.0539964116666667, 228.403469437768, 0.00100120884048683, 0.532499999998493,108.439247131348
0.0546633433333333, 228.408108330369, 0.00129317067555877, 0.539999999999097,102.22940826416
0.05533, 228.41327105335, 0.000953091257404983, 0.547499999999701,105.640914916992
0.0559964416666667, 228.417973388949, 0.000799531970556934, 0.552499999999512,105.640914916992
0.0566633616666667, 228.422036405068, 0.000923623737520104, 0.558749999999719,109.49690246582
0.057330655, 228.426469648405, 0.00133065079296612, 0.566249999998547,106.455520629883
0.057996575, 228.430623178266, 0.00147678545276405, 0.573749999999151,104.965538024902
0.058664005, 228.435139001813, 0.00134637750303354, 0.578749999998962,101.453842163086
0.0593307183333333, 228.439018974284, 0.00148775590174109, 0.586249999999566,101.453842163086
0.0599967533333333, 228.443540569737, 0.001273226177368, 0.592499999999774,99.8775787353516
0.0606632783333333, 228.447300201313, 0.00119332819054636, 0.598749999999981,110.482192993164
0.0613303316666667, 228.451633790046, 0.000940343397691269, 0.606249999998809,107.910629272461
0.0619967766666667, 228.455428235745, 0.000961444337830751, 0.612499999999017,103.036888122559
0.0626634433333333, 228.459314257782, 0.000737676577463935, 0.618749999999224,103.036888122559
0.0633300766666667, 228.463240369446, 0.00089047690247892, 0.626249999999828,102.595344543457
0.0639965616666667, 228.466939394955, 0.000725768675607332, 0.632499999998259,106.44181060791
0.0646638766666667, 228.470905999846, 0.000927490543333088, 0.638749999998467,111.749557495117
0.065330165, 228.474903537771, 0.00102037637773045, 0.646249999999071,107.807495117188
0.065996845, 228.479174168454, 0.000978442984025937, 0.651249999998882,107.807495117188
0.0666634683333333, 228.483357223157, 0.00116957838348565, 0.658749999999486,103.205169677734
0.0673300783333333, 228.48789090048, 0.000937363047413151, 0.666249999998314,101.672264099121
0.06799683, 228.492071218329, 0.000601468419067092, 0.672499999998522,131.172821044922
0.0686634733333333, 228.496485073174, 0.000391399470613181, 0.678749999998729,103.989814758301
0.06933062, 228.500325982544, 0.000444873284695497, 0.684999999998936,103.989814758301
0.0699966166666667, 228.504339507741, 0.000223959880956925, 0.692499999999541,102.46541595459
0.0706635583333333, 228.508256956009, 0.000267259706069107, 0.698749999999748,104.109794616699
0.0713304516666667, 228.512064071912, 0.00026347989591402, 0.704999999999956,109.229278564453
0.071996725, 228.516270138398, 0.000226151270871405, 0.709999999999766,105.693786621094
0.0726635966666667, 228.520185040272, 0.000206536756113108, 0.717499999998594,105.693786621094
0.0733300483333333, 228.524069503419, -6.42746412927885E-05, 0.724999999999199,104.461006164551
0.0739969233333333, 228.52801349044, 0.000412012935279096, 0.729999999999009,98.6210174560547
0.074663635, 228.531000692094, 0.000461889930004776, 0.737499999999613,102.226844787598
0.07533106, 228.534560711958, 0.000576850155691872, 0.744999999998441,105.963851928711
0.0759974533333333, 228.537634122088, 0.000734969213533481, 0.751249999998649,105.963851928711
0.0766634216666667, 228.540935434823, 0.0012327012129757, 0.757499999998856,103.18367767334
0.0773299216666667, 228.543911895797, 0.00105919742789437, 0.763749999999064,105.791557312012
0.0779967266666667, 228.547641942758, 0.000935416145303927, 0.771249999999668,108.06787109375
0.07866392, 228.550503798069, 0.0014722406811633, 0.777499999999876,103.599807739258
0.0793307166666667, 228.553988701461, 0.0014876614065887, 0.783749999998307,103.599807739258
0.0799965516666667, 228.557188498463, 0.00126978535027682, 0.789999999998514,103.209861755371
0.080663455, 228.561068813432, 0.00110463764549132, 0.797499999999118,101.048599243164
0.0813307066666667, 228.564874661425, 0.00105141431886936, 0.803749999999326,108.274345397949
0.0819969016666667, 228.568252956767, 0.000856278620282273, 0.809999999999533,104.606369018555
0.0826635216666667, 228.572364716773, 0.000720946417885711, 0.817499999998361,104.606369018555
0.0833301466666667, 228.576152080357, 0.0006354567119323, 0.823749999998569,106.126022338867
0.0839969216666667, 228.580288167261, 0.000759909960782926, 0.829999999998776,107.364433288574
0.08466344, 228.583989745086, 0.000850893890760651, 0.836249999998984,126.700225830078
0.0853299716666667, 228.588908805853, 0.000689209512017383, 0.843749999999588,102.855323791504
0.0859966366666667, 228.592958894924, 0.000535003757602751, 0.849999999999795,102.855323791504
0.0866634166666667, 228.596950286851, 0.000673311810504221, 0.856250000000003,105.402069091797
0.0873300833333333, 228.601202587041, 0.000608186581659513, 0.862499999998434,104.827629089355
0.0879968933333333, 228.605616599091, 0.000926089613727905, 0.868749999998641,101.125991821289
0.0886635416666667, 228.609062746087, 0.00102626958179481, 0.876249999999246,103.883575439453
0.0893307583333333, 228.613039058569, 0.00135049029653368, 0.88374999999985,103.883575439453
0.0899965883333333, 228.617067549346, 0.00117788946607063, 0.888749999999661,105.638916015625
0.0906635983333333, 228.620645440903, 0.00110053235163446, 0.894999999999868,103.894012451172
0.0913306333333333, 228.62427637431, 0.0011595738860581, 0.902499999998696,102.618270874023
0.091996625, 228.627745828767, 0.00105246876585238, 0.908749999998903,104.567588806152
0.0926635066666667, 228.631041260465, 0.00107280024462421, 0.914999999999111,104.567588806152
0.0933299433333333, 228.634421972995, 0.00106467665269591, 0.922499999999715,107.877639770508
0.0939969616666667, 228.638291572324, 0.000920607389183834, 0.928749999999923,101.452583312988
0.09466341, 228.641668392587, 0.000657879085747355, 0.934999999998354,104.550285339355
0.0953302683333333, 228.645151888925, 0.000686125666955441, 0.941249999998561,103.267555236816
0.0959965966666667, 228.648473548635, 0.000833805249165031, 0.948749999999166,103.267555236816
0.096663565, 228.652236960601, 0.000998020000801676, 0.954999999999373,104.804405212402
0.09733023, 228.655184522547, 0.00141939083576026, 0.961249999999581,109.885231018066
0.0979968833333333, 228.659253819766, 0.00146783840229584, 0.968749999998408,109.610565185547
0.0986634466666667, 228.662479333001, 0.00152604747854815, 0.974999999998616,104.327766418457
0.0993302883333333, 228.666729453535, 0.00107387569063389, 0.981249999998823,104.327766418457
0.0999971066666667, 228.670267933739, 0.000966784069747799, 0.987499999999031,103.603462219238
0.100663768333333, 228.673762247941, 0.000672522850161837, 0.994999999999635,98.9421920776367
0.101329868333333, 228.677123401939, 0.000256142264521799, 1.00124999999984,120.059272766113
0.101997945, 228.680841277048, 0.000209554604543816, 1.00749999999827,104.333076477051
0.10266385, 228.683858396309, 0.000479488546088791, 1.01374999999848,104.333076477051
0.103330081666667, 228.688091847731, 0.000420292519451612, 1.02124999999909,112.626419067383
0.103996666666667, 228.692154887643, 0.000615795699538757, 1.0249999999985,108.59162902832
0.104664033333333, 228.695660861236, 0.000931439845073268, 1.03124999999871,106.938346862793
0.10533008, 228.699616424241, 0.000836026637567576, 1.03999999999971,103.500526428223
0.105997935, 228.703493686263, 0.000745261696616489, 1.04749999999854,103.500526428223
0.106663378333333, 228.706962909869, 0.00101512814154206, 1.05374999999874,103.368766784668
0.107330933333333, 228.710812830479, 0.000493361349317489, 1.05999999999895,105.413940429688
0.10799666, 228.714948487472, 0.000578630566298605, 1.06749999999955,106.081611633301
0.108663913333333, 228.718941607308, 0.000409481062482569, 1.07374999999976,102.323783874512
0.109330491666667, 228.723302257903, 0.000236460253101594, 1.07874999999957,102.323783874512
0.109996623333333, 228.727313116705, 2.02491131536374E-05, 1.0874999999988,105.429733276367
0.110663526666667, 228.730619842578, 0.000618203078588559, 1.09374999999901,103.193717956543
0.11133071, 228.734356372219, 0.00059283035302596, 1.09999999999921,105.991928100586
0.111996786666667, 228.738021415225, 0.000503353847349813, 1.10624999999942,108.986869812012
0.112664225, 228.741638172727, 0.000481787930624067, 1.11375000000002,108.986869812012
0.113330126666667, 228.745535342556, 0.000468432601420762, 1.11999999999846,103.235748291016
0.113996635, 228.750095716075, -8.30566978797519E-05, 1.12624999999866,105.059288024902
0.11466414, 228.753537279754, -1.15897875953656E-05, 1.13249999999887,103.379508972168
0.115330781666667, 228.757422673081, 0.000219668596559073, 1.13999999999947,109.797622680664
0.115997051666667, 228.761100761764, 0.000376337227226429, 1.14624999999968,109.797622680664
0.116663413333333, 228.764563313242, 0.00037410083962236, 1.15249999999989,104.791168212891
0.11733045, 228.768310164544, 0.000613551812291418, 1.15999999999872,128.065338134766
0.117996551666667, 228.771964399938, 0.00041077549749763, 1.16624999999893,103.163993835449
0.11866406, 228.776334796617, 0.000437907634661554, 1.17249999999913,104.306465148926
0.119330668333333, 228.780010866338, 0.000277204206626796, 1.17999999999974,104.306465148926
0.119996665, 228.7840492467, 0.00022185398677594, 1.18624999999994,106.167686462402
0.120663811666667, 228.787758920652, 0.000246169265421702, 1.19249999999838,102.184516906738
0.12133013, 228.791841346286, 0.000242851432067835, 1.19874999999858,100.650856018066
0.121996613333333, 228.795290063422, 1.65817973713032E-05, 1.20624999999919,107.947799682617
0.12266406, 228.79937187813, -3.51806026480834E-05, 1.21249999999939,107.947799682617
0.123330436666667, 228.802582478473, 0.000111954506939362, 1.2187499999996,108.52416229248
0.123997033333333, 228.806149257341, 0.000114484879853994, 1.22499999999981,101.169204711914
0.124664946666667, 228.809449033462, -0.000102308230847443, 1.23374999999903,105.679672241211
0.125330548333333, 228.813112293925, 1.95081504134117E-05, 1.23999999999924,106.063529968262
0.125996685, 228.816642009695, 7.33224473565205E-05, 1.24499999999905,106.063529968262
0.126664553333333, 228.820175468426, -0.000197199464618294, 1.25249999999966,104.262535095215
0.12733055, 228.823488353368, -7.03808346011561E-05, 1.25999999999848,106.947998046875
0.127996686666667, 228.827591087761, 0.000378071140134152, 1.26624999999869,107.202186584473
0.12866351, 228.831495536452, 0.00056105444908064, 1.2712499999985,103.548980712891
0.1293301, 228.835385185787, 0.000700239957928048, 1.27874999999911,103.548980712891
0.12999666, 228.839766539691, 0.00067445025331758, 1.28499999999931,104.264953613281
0.130663518333333, 228.843743607999, 0.000538864563675614, 1.29124999999952,107.042259216309
0.131330651666667, 228.848066088983, 0.000337106697742925, 1.29874999999835,104.323799133301
0.131996665, 228.852153568449, 0.000220082575736881, 1.30499999999856,105.186172485352
0.132663571666667, 228.856415485629, 2.84821996271442E-05, 1.31124999999876,105.186172485352
0.133330533333333, 228.860049207171, 5.53023524514285E-05, 1.31749999999897,102.697135925293
0.133997071666667, 228.863943813142, 0.000242525948408565, 1.32624999999997,125.448699951172
0.134663521666667, 228.867296578608, 0.000212975932660253, 1.3324999999984,102.742576599121
0.135330131666667, 228.870504348088, 0.000237297211024882, 1.33749999999999,102.655723571777
0.135996903333333, 228.873831992873, 0.000344307835993195, 1.34499999999882,102.655723571777
0.136663305, 228.87720080705, 0.000552887359280876, 1.35124999999903,104.722640991211
0.137330535, 228.88070169638, 0.000327589675746435, 1.35874999999963,105.655464172363
0.137996971666667, 228.884785292088, 0.000365470273075719, 1.36499999999984,102.063980102539
0.138663366666667, 228.888354456586, 0.000454402306129721, 1.36999999999965,110.016967773438
0.139330261666667, 228.891833957661, 0.000528915563408477, 1.37749999999848,110.016967773438
0.13999656, 228.895912191285, 0.000554010802913966, 1.38374999999868,110.075157165527
0.140663958333333, 228.899668370352, 0.000555069749712698, 1.39124999999929,98.6200866699219
0.14133035, 228.903117134364, 0.000522662377487336, 1.39874999999989,105.596748352051
0.141996523333333, 228.906503033047, 4.15555429576197E-05, 1.40499999999832,102.891502380371
0.142663446666667, 228.909997945508, -8.51565924268866E-05, 1.40999999999991,102.891502380371
