Time (min), Depth (µm), Load (N), Position (µm), Acoustic (aJ)
7.95833333333333E-06, 228.03979185831, 0.00078585144694166, 0,104.792213439941
0.000664178333333333, 228.039002860992, 0.000887777327332765, 0.00124999999862041,111.012924194336
0.00133132833333333, 228.040676514877, 0.000697363391596039, 0.00499999999981071,111.012924194336
0.00199753666666667, 228.042681256679, 0.000563628608922741, 0.0137499999990354,111.381538391113
0.00266468833333333, 228.047155549994, 0.000180294363410124, 0.0212499999996396,106.642349243164
0.00333073833333333, 228.051231460223, 5.72225451686934E-05, 0.0299999999988643,103.801864624023
0.00399742833333333, 228.057153877416, -9.07240236484388E-05, 0.0362499999990717,109.641777038574
0.00466449166666667, 228.062273270445, -0.000101012006851966, 0.0424999999992792,109.641777038574
0.00533241666666667, 228.067118803833, -0.000376954646512826, 0.0499999999998835,103.844436645508
0.00599758833333333, 228.070784885664, -1.1514502170411E-05, 0.0574999999987114,100.955635070801
0.00666459833333333, 228.075627351907, -0.000278448594313755, 0.0649999999993156,102.083526611328
0.00733077333333333, 228.080527867732, -0.000340600972481107, 0.0712499999995231,101.073547363281
0.00799739666666667, 228.08578901867, -0.000444586249417951, 0.0774999999997306,101.073547363281
0.00866413333333333, 228.091459872606, -1.26919430395094E-05, 0.0849999999985585,105.697708129883
0.00933080166666667, 228.097036194202, -0.000186495713044002, 0.0912499999987659,102.26050567627
0.00999746666666667, 228.102445836781, 0.000369800844755356, 0.0974999999989734,98.9459762573242
0.0106640816666667, 228.107093304197, 0.000425686537660683, 0.104999999999578,104.117012023926
0.0113307966666667, 228.112063981801, 0.000516302986095847, 0.111249999999785,104.117012023926
0.01199766, 228.11728976832, 0.000151290320314631, 0.118749999998613,109.015869140625
0.01283085, 228.122550200379, 7.02568905497008E-05, 0.12499999999882,104.358749389648
0.01349758, 228.127909424014, 5.1443335550269E-05, 0.131249999999028,80.633186340332
0.0141644716666667, 228.13324096778, -8.094751460266E-05, 0.139999999998253,106.680511474609
0.0148307483333333, 228.138699057871, 0.000129974890964229, 0.14499999999984,106.83292388916
0.0154981233333333, 228.144046544929, 0.000310115842656445, 0.151249999998271,106.83292388916
0.0161642066666667, 228.148970975691, 0.000320618315134654, 0.157499999998478,125.814918518066
0.0168309466666667, 228.154226714523, 4.10773561502476E-05, 0.164999999999083,107.858001708984
0.0174974616666667, 228.159143750226, 0.000269707872282589, 0.169999999998893,105.391990661621
0.0181641983333333, 228.164181955938, -4.75936899725715E-05, 0.177499999999498,103.965812683105
0.0188311783333333, 228.16905434029, -8.31554037493375E-05, 0.183749999999705,103.965812683105
0.019498135, 228.174311370488, -0.000274473793986245, 0.189999999999912,103.055717468262
0.0201641333333333, 228.179623448379, -0.000198109629675058, 0.196249999998344,108.245674133301
0.02083083, 228.185053516549, -0.000523068307326604, 0.203749999998948,104.468650817871
0.02149768, 228.190302092933, -0.000496272153250263, 0.209999999999155,100.256828308105
0.02216431, 228.19858397496, -0.00052761457897928, 0.21874999999838,100.256828308105
0.0229981666666667, 228.203626842376, -0.000360062494929017, 0.224999999998587,99.8512802124023
0.023664085, 228.209237549413, -0.000273903822606737, 0.231249999998795,100.823066711426
0.0243308916666667, 228.214345132994, -1.06250467867381E-05, 0.238749999999399,112.005836486816
0.024997435, 228.22014481045, -8.96535428134066E-07, 0.244999999999607,100.952629089355
0.0256645266666667, 228.225100869059, 0.000284239142473097, 0.251249999999814,101.93775177002
0.0263309, 228.230308950259, 0.000570024287747208, 0.258749999998642,101.93775177002
0.0269976983333333, 228.235605063047, 0.000481908213717357, 0.264999999998849,105.923034667969
0.0276641766666667, 228.240620392742, 0.000407372457530044, 0.271249999999057,102.586212158203
0.0283309733333333, 228.246107106379, 0.000297023000266219, 0.277499999999264,107.785667419434
0.0289974233333333, 228.25135722341, 9.29042529402283E-05, 0.284999999999869,99.3753128051758
0.0296642633333333, 228.257364461278, -0.000165117286868663, 0.2912499999983,99.3753128051758
0.0303308216666667, 228.26224715112, -0.000312373890332772, 0.298749999998904,108.480911254883
0.0309979366666667, 228.267749492522, -0.000332727867991907, 0.304999999999112,107.100875854492
0.03166408, 228.272848727051, -0.000480281456509115, 0.311249999999319,121.622833251953
0.0323307316666667, 228.277853578714, -0.000434172272522042, 0.317499999999526,105.218376159668
0.0329983616666667, 228.282617964221, -0.00053852203115264, 0.324999999998354,105.218376159668
0.0336646683333333, 228.287538096216, -9.34943844038297E-05, 0.331249999998562,102.692085266113
0.034330805, 228.292738680757, -7.7872669044629E-05, 0.337499999998769,104.860038757324
0.034997755, 228.297386315957, -0.000114797814359006, 0.344999999999374,106.937507629395
0.0356640983333333, 228.302217727198, -0.000298484587956892, 0.351249999999581,107.96955871582
0.0363312683333333, 228.30671674413, -0.000298762074035256, 0.357499999999789,107.96955871582
0.036998115, 228.31182590598, -0.000927013017635075, 0.363749999999996,110.076622009277
0.0376640916666667, 228.315639165179, -0.00076827449090865, 0.371249999998824,105.529899597168
0.03833084, 228.320134168173, -0.000528118553663791, 0.377499999999031,103.939682006836
0.0389975783333333, 228.324343515035, -0.000250695488361866, 0.383749999999239,97.6087799072266
0.039664275, 228.328815221292, -2.07315392224878E-05, 0.389999999999446,97.6087799072266
0.0403307616666667, 228.333214893137, 0.000727807362458725, 0.397499999998274,101.723457336426
0.0409981566666667, 228.337967626692, 0.00058430357048919, 0.404999999998878,108.241874694824
0.0416643566666667, 228.342859456363, 0.000717535878381125, 0.409999999998689,101.528945922852
0.0423311616666667, 228.347312035698, 0.000729038800627595, 0.416249999998897,106.909248352051
0.0429974866666667, 228.351373329895, 0.00095091515600309, 0.423749999999501,106.909248352051
0.0436642116666667, 228.355518190035, 0.000895828922953478, 0.429999999999708,106.970458984375
0.044331075, 228.359744654433, 0.00101187209425101, 0.437499999998536,106.640808105469
0.0449973916666667, 228.363975283192, 0.00112759128179243, 0.444999999999141,106.138107299805
0.04566408, 228.369053124391, 0.000894101009785876, 0.449999999998951,107.937515258789
0.04633075, 228.373575235628, 0.000735720965034338, 0.456249999999159,107.937515258789
0.046997435, 228.377885625496, 0.000588852842075689, 0.463749999999763,99.6457672119141
0.047664635, 228.381980052466, 0.000468453889588454, 0.471249999998591,108.308387756348
0.0483307466666667, 228.38582920805, 0.000263213198596286, 0.476249999998402,128.644607543945
0.0489974233333333, 228.38923824778, 0.000547978395169912, 0.482499999998609,101.798408508301
0.0496640816666667, 228.3932679454, 0.000476320994443803, 0.489999999999213,101.798408508301
0.0503314966666667, 228.397924109723, 0.000323432173867773, 0.496249999999421,103.480506896973
0.05099748, 228.402299892172, 0.0004010427755281, 0.503750000000025,106.621124267578
0.0516646066666667, 228.40664221171, 0.000486914962246849, 0.509999999998456,103.937995910645
0.05233075, 228.411097133204, 0.000486629976588976, 0.516249999998664,107.387687683105
0.0529974183333333, 228.415127794157, 0.000149736398399061, 0.522499999998871,107.387687683105
0.0536647283333333, 228.418822864506, 0.000205085118325514, 0.528749999999079,106.412261962891
0.0543309016666667, 228.4222030988, 0.000107985995514256, 0.537499999998303,105.087341308594
0.054997415, 228.425856187486, -6.53167996545314E-05, 0.543749999998511,103.410263061523
0.0556643383333333, 228.429264421836, -0.000205601753344577, 0.548749999998321,100.839630126953
0.0563307833333333, 228.433245930781, 3.48946667610762E-05, 0.554999999998529,100.839630126953
0.056998065, 228.436453264603, 0.000167333514516164, 0.56374999999953,102.644798278809
0.05766412, 228.440433198585, 0.00030942887721599, 0.569999999999737,105.449440002441
0.058331115, 228.444114787419, 0.000346508514701394, 0.574999999999548,102.655319213867
0.0589974166666667, 228.448146770456, 0.000502392684820829, 0.583749999998773,106.681358337402
0.0596640983333333, 228.451274275466, 0.000735285986851123, 0.58999999999898,106.681358337402
0.06033076, 228.455029520773, 0.000852332607701962, 0.594999999998791,103.445320129395
0.0609974466666667, 228.459147084535, 0.000723685569518441, 0.602499999999395,106.143501281738
0.0616646066666667, 228.462842537878, 0.00055779090225259, 0.609999999999999,104.631530761719
0.0623307383333333, 228.467229202353, 0.000442152710607697, 0.61499999999981,105.439842224121
0.0629974133333333, 228.471356300825, 0.000133429217438793, 0.621250000000018,105.439842224121
0.063664295, 228.475594557275, -0.000152919899559723, 0.628749999998846,105.509719848633
0.0643307783333333, 228.47903254568, -0.000216587201586906, 0.634999999999053,100.743446350098
0.0649979233333333, 228.482885540512, 5.56686232743774E-05, 0.64124999999926,127.030891418457
0.0656641033333333, 228.485781898638, 0.000225544090586606, 0.648749999999865,103.300338745117
0.0663307416666667, 228.489417187497, 7.54211310990272E-05, 0.654999999998296,103.300338745117
0.066997405, 228.493116149234, 7.79950018213537E-05, 0.661249999998503,98.2276000976563
0.067664195, 228.497174435476, 0.00010879145494006, 0.668749999999108,107.30061340332
0.0683314516666667, 228.500876819299, 8.81247676444879E-06, 0.674999999999315,105.590347290039
0.068997575, 228.5045111326, -2.01720673563103E-05, 0.681249999999523,103.361183166504
0.0696643616666667, 228.50828981321, 0.000224114662396507, 0.68749999999973,103.361183166504
0.07033103, 228.511835058803, 0.000139226426256327, 0.694999999998558,107.828468322754
0.0709974183333333, 228.515773722754, 0.000120391872315249, 0.702499999999162,103.984512329102
0.0716646466666667, 228.519957572325, 0.000264914113103375, 0.707499999998973,103.78165435791
0.0723307833333333, 228.524582840425, 6.51609216299554E-06, 0.71374999999918,108.333503723145
0.0729981083333333, 228.529597010984, -0.000270837976637633, 0.721249999999785,108.333503723145
0.07366411, 228.534359258872, -0.000213102876624278, 0.728749999998612,106.216506958008
0.0743310583333333, 228.539329494654, -0.000364800757011581, 0.73499999999882,104.573226928711
0.07499741, 228.544534031115, -0.000759567428281206, 0.739999999998631,105.159614562988
0.0756643483333333, 228.549187099809, -0.000668884983151044, 0.747499999999235,108.560653686523
0.0763314333333333, 228.55273432599, -0.000131967451978672, 0.754999999999839,108.560653686523
0.0769982066666667, 228.557684826992, -5.18219775879946E-05, 0.75999999999965,105.344352722168
0.0776648633333333, 228.56186356597, 0.000240678330450986, 0.766249999999857,102.969970703125
0.07833103, 228.565491652529, 0.00057665245485418, 0.773749999998685,104.231475830078
0.0789974466666667, 228.56999399621, 0.000501413234036723, 0.781249999999289,104.089057922363
0.0796642116666667, 228.575192037694, 0.00022316820999178, 0.7862499999991,104.089057922363
0.080330865, 228.579383819695, -4.01720626862435E-05, 0.792499999999308,106.073020935059
0.08099762, 228.583175575424, -0.000222447407208123, 0.799999999999912,107.977958679199
0.0816642216666667, 228.587704499766, -0.000255918226047936, 0.80749999999874,127.140663146973
0.082330935, 228.591516637579, -0.000316524181879226, 0.813749999998947,103.587539672852
0.0829975416666667, 228.595429314188, -4.43658520829E-05, 0.819999999999155,103.587539672852
0.0836642, 228.599226169052, 0.000222019267643836, 0.826249999999362,103.82657623291
0.08433156, 228.60343352151, 0.000406036024652947, 0.83249999999957,102.089942932129
0.0849975966666667, 228.607426922744, 0.00026366467586292, 0.839999999998398,104.540031433105
0.08566437, 228.611134700263, 0.000345571061779325, 0.846249999998605,106.166702270508
0.0863310083333333, 228.614918253051, 3.10353605701086E-05, 0.852499999998813,106.166702270508
0.08699754, 228.618639783787, -9.40778551242217E-05, 0.85874999999902,103.683609008789
0.0876648533333333, 228.621909423806, -0.000394973241429753, 0.866249999999624,102.077766418457
0.08833091, 228.625143081263, -0.000282108410516582, 0.872499999999832,109.070907592773
0.088997555, 228.628763768159, -0.000108211645156579, 0.87999999999866,102.567276000977
0.0896641966666667, 228.632272847141, -0.000129102595815843, 0.886249999998867,102.567276000977
0.0903308833333333, 228.635497158865, -2.16914909468432E-05, 0.892499999999075,105.74861907959
0.0909976633333333, 228.639270460158, 6.8351986260006E-05, 0.898749999999282,102.69856262207
0.0916642883333333, 228.64308777815, 5.99914061909681E-05, 0.90499999999949,106.543846130371
0.0923308816666667, 228.647187375813, -3.64537494741985E-05, 0.911249999999697,105.552436828613
0.0929979666666667, 228.650921827239, 2.21318078245833E-05, 0.918749999998525,105.552436828613
0.09366444, 228.654449825661, 6.66135735578187E-05, 0.924999999998732,103.74683380127
0.0943330316666667, 228.657449461146, 0.000375955035665881, 0.932499999999337,103.261283874512
0.0949975433333333, 228.660911302212, 0.000516694466492622, 0.938749999999544,108.544357299805
0.0956642066666667, 228.663984015367, 0.000549664310454223, 0.944999999999752,101.474159240723
0.096331115, 228.666943083197, 0.000803972036866787, 0.951249999999959,101.474159240723
0.0969975483333333, 228.669788362249, 0.000850064721727933, 0.95749999999839,100.770393371582
0.0976642183333333, 228.673053989462, 0.000541959197540695, 0.964999999998994,105.620796203613
0.0983310666666667, 228.675571284826, 0.000679892269277588, 0.971249999999202,128.63818359375
0.0989976183333333, 228.678673013675, 0.000696767921629199, 0.977499999999409,104.361236572266
0.0996642266666667, 228.681770693572, 0.000282544227642366, 0.985000000000014,104.361236572266
0.100330925, 228.685587907978, -3.2600443002098E-05, 0.991249999998445,102.550163269043
0.100998178333333, 228.689171524052, 2.58426214571202E-05, 0.997499999998652,110.936653137207
0.101665141666667, 228.692754313882, -0.000356783659609635, 1.00499999999926,102.445724487305
0.102331416666667, 228.696004197785, -0.000664527701951925, 1.01124999999946,103.54207611084
0.102997746666667, 228.699096498499, -0.000544035754130433, 1.01749999999967,103.54207611084
0.103664201666667, 228.70159272817, -0.000421124427778897, 1.02249999999948,104.576950073242
0.104330895, 228.704391572554, -0.000519200001546708, 1.02874999999969,102.99543762207
0.104997746666667, 228.706880515659, -0.000631991336185374, 1.03624999999852,105.56005859375
0.10566478, 228.709698670928, -0.000460473451332766, 1.04374999999912,106.195640563965
0.106330901666667, 228.712238507353, -0.000613543762761591, 1.04999999999933,106.195640563965
0.106997543333333, 228.716049788301, -0.000862642250807715, 1.05749999999993,107.822303771973
0.10766446, 228.719684136554, -0.000701610339286135, 1.06374999999836,108.278793334961
0.108331531666667, 228.723535030907, -0.000370327979245241, 1.06999999999857,103.084846496582
0.10899821, 228.727072690103, -0.00021485028874536, 1.07624999999878,101.811668395996
0.109664225, 228.730966847672, 3.0756374694865E-05, 1.08374999999938,101.811668395996
0.1103309, 228.734876335997, -4.88146285643479E-05, 1.08999999999959,102.553840637207
0.110998031666667, 228.738909874335, -0.000204431812076241, 1.0962499999998,104.753105163574
0.111664926666667, 228.742929650652, -0.000508342046984927, 1.10374999999863,100.711112976074
0.112330941666667, 228.747220980156, -0.000628424515359312, 1.10999999999883,105.173301696777
0.112998015, 228.752104378016, -0.00102596004758745, 1.11624999999904,105.173301696777
0.113664206666667, 228.755932706239, -0.000492748830231896, 1.12249999999925,103.402320861816
0.114330885, 228.760243667652, -0.000188739600291341, 1.12999999999985,130.506790161133
0.114998223333333, 228.764484935541, -7.40223624425891E-05, 1.13624999999828,107.5712890625
0.115664265, 228.768545450034, -3.83796527693013E-05, 1.14249999999849,101.743774414063
0.116331203333333, 228.772581996935, 0.000162746744862091, 1.1499999999991,101.743774414063
0.11699753, 228.776640879343, -0.000323455333694402, 1.1562499999993,105.907508850098
0.117664223333333, 228.780368190901, -0.000409525510498144, 1.16249999999951,101.989501953125
0.118331096666667, 228.783981924495, -0.000294335796334841, 1.16874999999972,107.609382629395
0.118997568333333, 228.787688218296, -0.000291389944296744, 1.17624999999855,99.9897079467773
0.119664711666667, 228.791001636241, 1.51901564960765E-05, 1.18249999999875,99.9897079467773
0.120331298333333, 228.794815105683, 3.26747782404268E-05, 1.18874999999896,104.513938903809
0.120997536666667, 228.798530782689, -0.000300037009948058, 1.19624999999957,102.753959655762
0.121664213333333, 228.802624713744, -0.000561851859295428, 1.20249999999977,105.036933898926
0.122331585, 228.806729470804, -0.000625492162704607, 1.20874999999998,104.107032775879
0.122997558333333, 228.81123111454, -0.000877391010057949, 1.21499999999841,104.107032775879
0.123664451666667, 228.815070886512, -0.000615997639574165, 1.22249999999902,102.343406677246
0.124330865, 228.819141666438, -0.000544511230251282, 1.22874999999922,108.320114135742
0.124997538333333, 228.822921786228, -0.000551944856869074, 1.23624999999983,100.137916564941
0.125665003333333, 228.826544636235, -0.000352847857316609, 1.24249999999826,106.496810913086
0.126330923333333, 228.829601173298, -0.000594100239470283, 1.24874999999847,106.496810913086
0.126997595, 228.833298773304, -0.000649402461697727, 1.25499999999867,105.199851989746
0.127664251666667, 228.836720581292, -0.00088899142739063, 1.26124999999888,101.429008483887
0.12833086, 228.840302965014, -0.00103336217581403, 1.26874999999949,109.454193115234
0.12899761, 228.842887047573, -0.000939703880157704, 1.27624999999831,99.7201995849609
0.129664681666667, 228.847005550495, -0.000729279449535204, 1.2812499999999,99.7201995849609
0.13033087, 228.850339936106, -0.000500744928564672, 1.28749999999833,106.961402893066
0.130997598333333, 228.85373078351, -0.000141695963252259, 1.29499999999894,128.148300170898
0.131664216666667, 228.857369507553, -0.000143132891064375, 1.30249999999954,106.574279785156
0.13233087, 228.861929061632, -0.00047437625304953, 1.30874999999975,102.70873260498
0.132998225, 228.865636890888, -0.000478133564359822, 1.31499999999996,102.70873260498
0.1336642, 228.869582633523, -0.000461427403487033, 1.32124999999839,102.587181091309
0.13433095, 228.873608354989, -0.000629585457081229, 1.32874999999899,104.616600036621
0.13499761, 228.877454539267, -0.000301676427639631, 1.3349999999992,104.302421569824
0.135665138333333, 228.88138651767, -0.00042727261909808, 1.3424999999998,110.685691833496
0.136332428333333, 228.884694997709, -0.000550141947502563, 1.34749999999961,110.685691833496
0.136997836666667, 228.888305914582, -0.000857143527116462, 1.35374999999982,109.038230895996
0.137664215, 228.891726490398, -0.00085572909814914, 1.36124999999865,100.556121826172
0.138330875, 228.89499855728, -0.00100607704629721, 1.36874999999925,97.136833190918
0.138997703333333, 228.897940145957, -0.000906357555085869, 1.37499999999946,103.344818115234
0.139664278333333, 228.901455472987, -0.00082913093409403, 1.37999999999927,103.344818115234
0.140330871666667, 228.905102828805, -0.000679303459777655, 1.3887499999985,105.288864135742
0.140997933333333, 228.908756665591, -0.00071436569864312, 1.39374999999831,110.992012023926
0.141664678333333, 228.912669372367, -0.000723978715801419, 1.39999999999851,106.038116455078
0.142330865, 228.916423962205, -0.000524772221703754, 1.40749999999912,107.279685974121
