Time (min), Depth (µm), Load (N), Position (µm), Acoustic (aJ)
7.47333333333333E-06, 228.270670350147, -0.000144214096260059, 0,104.526153564453
0.000664636666666667, 228.270808318368, -0.000222837147105126, 0.00124999999862041,104.683143615723
0.00133062, 228.270850423301, 0.000168563693229728, 0.00499999999981071,104.683143615723
0.001997275, 228.271692430582, 0.000564846788389858, 0.0137499999990354,100.121910095215
0.00266499666666667, 228.27491002459, 0.000369669091940729, 0.02249999999826,111.727729797363
0.00333140333333333, 228.278354827, 0.000523561362112572, 0.0287499999984675,100.60424041748
0.00399738833333333, 228.281627801745, 0.000837834576487456, 0.0362499999990717,102.437232971191
0.00466512833333333, 228.284984297049, 0.000826697635901652, 0.043749999999676,102.437232971191
0.005331575, 228.287006539334, 0.000973820746008855, 0.0499999999998835,106.416000366211
0.00599735833333333, 228.289351424544, 0.00130761098009833, 0.0574999999987114,116.820770263672
0.00666592333333333, 228.292193798396, 0.00113691205411868, 0.0649999999993156,103.30778503418
0.00733075333333333, 228.295477171882, 0.00117403518945429, 0.0712499999995231,106.786117553711
0.00799726666666667, 228.298844814807, 0.000928523021272723, 0.0774999999997306,106.786117553711
0.00866490333333333, 228.303613786586, 0.000723945297058082, 0.0849999999985585,105.673843383789
0.00933156333333333, 228.308306202055, 0.000509289578971352, 0.0912499999987659,104.283889770508
0.00999747166666667, 228.312781302497, 0.000304002390322683, 0.0974999999989734,112.432464599609
0.010664675, 228.317555141702, 0.000207528736115109, 0.104999999999578,104.612770080566
0.01133061, 228.32283747812, -6.66709911128623E-05, 0.109999999999388,104.612770080566
0.01199879, 228.327789022306, -0.000117264949852078, 0.117499999999993,105.699058532715
0.012663955, 228.331950100926, -0.000215777001706254, 0.12499999999882,104.236526489258
0.0133326116666667, 228.336812724427, 6.96886596699639E-05, 0.129999999998631,104.500679016113
0.0139973366666667, 228.340955083899, -1.74149651751474E-05, 0.136249999998839,98.1130447387695
0.0146644266666667, 228.345453217149, 0.000364293361986781, 0.143749999999443,98.1130447387695
0.0153306933333333, 228.349484946149, 0.000363168418535559, 0.14999999999965,99.5391235351563
0.0159972983333333, 228.353896952751, 0.000615200759224553, 0.156249999999858,104.847145080566
0.0166650016666667, 228.357822400659, 0.000613273356026301, 0.162499999998289,104.719413757324
0.0173306316666667, 228.362701232457, 0.000415805274609569, 0.169999999998893,104.935501098633
0.0179981, 228.366853730021, 0.000104545408870928, 0.176249999999101,104.935501098633
0.018664765, 228.371569543235, 0.000260819559377718, 0.182499999999308,104.617218017578
0.019330685, 228.375549598559, 1.51678981841419E-05, 0.188749999999516,104.425849914551
0.0199985083333333, 228.380032018815, 6.03816271536917E-05, 0.193749999999326,107.82201385498
0.02066445, 228.38343710341, 0.000241424033582298, 0.202499999998551,103.442840576172
0.021330565, 228.38751291315, 0.000586298710903465, 0.208749999998759,103.442840576172
0.0219979133333333, 228.392238844275, 0.000404086363227776, 0.214999999998966,108.081787109375
0.02266434, 228.397418355004, 0.000447086203395544, 0.22249999999957,123.071144104004
0.0233322066666667, 228.402792952233, 0.000150954577802416, 0.228749999999778,104.647148132324
0.0239983633333333, 228.408141464133, 0.000107734248704861, 0.234999999999985,105.819709777832
0.02466424, 228.41322242025, 0.000347167222259826, 0.242499999998813,105.819709777832
0.0253311883333333, 228.417467451616, 0.000399351101142798, 0.248749999999021,104.933135986328
0.0259972833333333, 228.421972605119, 0.000510614012538241, 0.254999999999228,99.1212768554688
0.0266646, 228.426179148792, 0.000874035258251297, 0.261249999999436,106.410179138184
0.0273307916666667, 228.431139283476, 0.000977651553742431, 0.268749999998263,107.733627319336
0.0279973616666667, 228.436121258219, 0.000525379270893148, 0.274999999998471,107.733627319336
0.0286648866666667, 228.44124474823, 0.000761153928148436, 0.281249999998678,102.289588928223
0.029331045, 228.446061419071, 0.000744321773625774, 0.288749999999283,106.354774475098
0.02999849, 228.450898765927, 0.000632896870394779, 0.29499999999949,100.905578613281
0.030664535, 228.455236942832, 0.000780013980846877, 0.301249999999698,109.430252075195
0.0313307016666667, 228.45903559434, 0.0010414238504991, 0.307499999999905,109.430252075195
0.031997265, 228.463300909968, 0.000951774853495321, 0.314999999998733,103.698303222656
0.03266435, 228.467651650384, 0.000575859235356463, 0.32124999999894,105.198226928711
0.0333306133333333, 228.472244479063, 0.000485224787785951, 0.327499999999148,103.757347106934
0.03399827, 228.476473391818, 0.000435533783686275, 0.334999999999752,101.770011901855
0.0346639483333333, 228.481338583683, 0.000579807037002206, 0.34124999999996,101.770011901855
0.035330685, 228.485989623351, 0.000721273931249543, 0.347499999998391,104.734703063965
0.03599726, 228.490526838612, 0.00110805650356036, 0.354999999998995,107.505294799805
0.036663885, 228.494853274648, 0.00114420468788508, 0.361249999999202,105.859237670898
0.0373316483333333, 228.499330645676, 0.00119454365941198, 0.36749999999941,109.637985229492
0.0379973866666667, 228.503559290532, 0.000769337517074127, 0.375000000000014,109.637985229492
0.0386656516666667, 228.508442520288, 0.000632695880439726, 0.381249999998445,112.495132446289
0.0393305933333333, 228.512417737437, 0.000708877053909953, 0.38874999999905,120.949111938477
0.0399972883333333, 228.517246311863, 0.000442667425317145, 0.39374999999886,106.498321533203
0.0406640166666667, 228.522012778092, 0.000486091744176051, 0.399999999999068,102.768028259277
0.0413307083333333, 228.527232432038, 0.000802130369871127, 0.407499999999672,102.768028259277
0.04199732, 228.531403858825, 0.00110549313228761, 0.413749999999879,110.21068572998
0.0426639166666667, 228.537455588818, 0.000953397771890933, 0.419999999998311,106.710601806641
0.0433305666666667, 228.541687264393, 0.00145130376260644, 0.427499999998915,100.523559570313
0.0439974866666667, 228.546918655124, 0.00163534751827606, 0.434999999999519,105.139762878418
0.0446647266666667, 228.551593391512, 0.00146175073783922, 0.441249999999727,105.139762878418
0.0453306033333333, 228.557060689536, 0.00129963588066469, 0.447499999999934,101.860733032227
0.04599744, 228.561355619532, 0.00128257273776268, 0.453749999998365,106.323631286621
0.0466646733333333, 228.566736634235, 0.00102176283793552, 0.459999999998573,103.140327453613
0.0473315783333333, 228.571569380363, 0.000661611427974173, 0.46624999999878,103.08716583252
0.047998085, 228.576275521763, 0.00075034697088884, 0.473749999999384,103.08716583252
0.04866511, 228.581105261985, 0.000584045823982181, 0.479999999999592,101.957847595215
0.0493315966666667, 228.586253741585, 0.000323426414639257, 0.486249999999799,103.77857208252
0.0499972933333333, 228.590478255316, 0.000342784442303342, 0.493749999998627,98.3644714355469
0.050666005, 228.595206467434, 0.00024762172225801, 0.501249999999231,102.002571105957
0.0513307133333333, 228.600582909547, -0.000228982338426724, 0.507499999999439,102.002571105957
0.0519972516666667, 228.605107520054, -0.000285126018350666, 0.51249999999925,106.015586853027
0.05266449, 228.60988030992, 2.30755010196336E-05, 0.519999999999854,102.630393981934
0.0533307216666667, 228.614879505654, -0.000117255950284405, 0.527499999998682,109.1064453125
0.0539981833333333, 228.619867352487, 0.000132616498860071, 0.533749999998889,106.956123352051
0.0546645966666667, 228.623849020332, 0.000582697391794874, 0.539999999999097,106.956123352051
0.0553316666666667, 228.62850348276, 0.000594717788002976, 0.547499999999701,101.643836975098
0.05599936, 228.632962985699, 0.000868767522726859, 0.552499999999512,120.945533752441
0.0566638633333333, 228.638293162565, 0.00099727206809207, 0.55999999999834,104.624984741211
0.0573327433333333, 228.642711087857, 0.00105449419389575, 0.566249999998547,103.369697570801
0.0579983616666667, 228.648092967442, 0.00101992843007153, 0.572499999998755,103.369697570801
0.0586639283333333, 228.652320566324, 0.00125576758413992, 0.579999999999359,106.421630859375
0.0593314483333333, 228.656874567079, 0.000890981406986099, 0.586249999999566,101.387191772461
0.0599972483333333, 228.661049416849, 0.000671048953934783, 0.592499999999774,105.50422668457
0.0606639783333333, 228.665348166971, 0.00035072504349696, 0.598749999999981,101.102577209473
0.0613308083333333, 228.669579917142, 0.000436798220149508, 0.606249999998809,101.102577209473
0.0619997616666667, 228.674518592341, 0.000244725367746475, 0.612499999999017,106.154434204102
0.0626661533333333, 228.679226086608, 5.63213310926875E-05, 0.618749999999224,102.221290588379
0.0633311316666667, 228.683644321089, 0.000222171000626441, 0.624999999999432,106.492485046387
0.0639992533333333, 228.687879644526, 0.000125013380742203, 0.632499999998259,106.492485046387
0.0648306933333333, 228.694120401317, -4.87993888299634E-05, 0.64124999999926,103.623374938965
0.0654987216666667, 228.698281580115, 0.000249087148633788, 0.646249999999071,103.623374938965
0.0661644116666667, 228.702260870577, 0.000440986009763535, 0.653749999999675,107.24227142334
0.066830775, 228.706977613669, 0.000601053469723787, 0.661249999998503,106.517585754395
0.067498025, 228.711329926832, 0.000503237382941502, 0.667499999998711,102.338081359863
0.0681651616666667, 228.716034638875, 0.000328014684217733, 0.673749999998918,104.367752075195
0.0688314866666667, 228.719889404812, 0.000361232015769633, 0.679999999999126,104.367752075195
0.069499275, 228.724245295546, -0.000146936459477054, 0.68749999999973,108.08723449707
0.07016419, 228.727969406027, -0.00026001427971925, 0.693749999999937,105.75553894043
0.07083172, 228.731945934804, -6.38331336955625E-05, 0.699999999998369,104.43034362793
0.0714987983333333, 228.735274004628, 7.72827182622897E-06, 0.706249999998576,123.633354187012
0.0721639283333333, 228.738642394718, -0.000157915908064278, 0.71374999999918,123.633354187012
0.07283193, 228.742247577134, 0.000119607652215173, 0.719999999999388,98.537727355957
0.0734988466666667, 228.745516833868, -2.0687800860679E-05, 0.726249999999595,98.8192291259766
0.0741653433333333, 228.749041018109, -0.000107446443071787, 0.732499999999803,106.969223022461
0.074831625, 228.752928959435, -0.000450555709009, 0.73875000000001,103.862609863281
0.075497555, 228.756697017341, -0.000518875777385253, 0.746249999998838,103.862609863281
0.07616572, 228.760939581531, -0.00073301702127414, 0.752499999999046,107.422012329102
0.0768305566666667, 228.764260181918, -0.000396871905510228, 0.758749999999253,104.498512268066
0.0774991783333333, 228.767883339993, -0.000125709525708953, 0.766249999999857,106.559020996094
0.0781646433333333, 228.771744215538, 0.000247983204081704, 0.771249999999668,100.588752746582
0.078833365, 228.776308974572, 0.000185598337589338, 0.778749999998496,100.588752746582
0.07949859, 228.780092138483, 0.000518089636911799, 0.7862499999991,103.164390563965
0.0801644533333333, 228.784834885018, 0.000142243015316745, 0.792499999999308,104.014068603516
0.0808306033333333, 228.789188537738, -9.25206927419684E-05, 0.798749999999515,100.439468383789
0.0814972483333333, 228.793052438948, 0.000170993571209342, 0.804999999999723,109.187156677246
0.0821640366666667, 228.796203475541, 0.00051317288388901, 0.81124999999993,109.187156677246
0.0828307466666667, 228.800061841447, 0.00057537775943173, 0.818749999998758,101.82982635498
0.083497245, 228.803730662479, 0.000828245558119609, 0.826249999999362,101.973625183105
0.0841639166666667, 228.807832956632, 0.000804354758122478, 0.831249999999173,103.638061523438
0.0848307366666667, 228.811757863179, 0.00060825460803782, 0.83749999999938,109.283706665039
0.08549731, 228.815991562683, 8.9177180735878E-05, 0.844999999999985,109.283706665039
0.08616391, 228.819639166771, -0.000147633924494602, 0.852499999998813,107.979705810547
0.0868305833333333, 228.82383531049, -0.000219096334984524, 0.857499999998623,105.478012084961
0.08749749, 228.827779810866, -0.000459811744095561, 0.863749999998831,109.672401428223
0.0881649816666667, 228.831924414164, -0.000389604770543707, 0.871249999999435,109.672401428223
0.088830625, 228.835380400849, -5.6117521226196E-05, 0.877499999999642,139.336242675781
0.089497895, 228.839043738842, -0.000192793656121872, 0.88374999999985,112.741714477539
0.090163915, 228.841975274176, -0.000187671413434583, 0.891249999998678,107.957183837891
0.0908311133333333, 228.845679764744, 0.000123364963546719, 0.897499999998885,107.665145874023
0.0914974033333333, 228.849814767787, -0.000153437132988495, 0.90499999999949,105.222038269043
0.0921662166666667, 228.853957513069, 3.27545147879137E-05, 0.9099999999993,105.222038269043
0.0928305733333333, 228.858422958665, 8.9223678392379E-05, 0.917499999999905,111.226776123047
0.0934974516666667, 228.863120244579, 8.53028753221319E-05, 0.923749999998336,109.105392456055
0.0941639183333333, 228.866729614884, -0.00045377004762155, 0.929999999998543,98.3149490356445
0.0948305733333333, 228.869989526423, -0.000273141620413259, 0.936249999998751,110.059097290039
0.0954983983333333, 228.873632260244, -0.000643579513717494, 0.943749999999355,110.059097290039
0.09616465, 228.87719186364, -0.000374166046067974, 0.949999999999562,101.812431335449
0.0968306133333333, 228.880265544309, -0.000478358312593721, 0.95624999999977,101.190093994141
0.0974992533333333, 228.883032753943, -0.000348025359062128, 0.963749999998598,99.4985427856445
0.098164895, 228.8858099051, -0.000376804413497132, 0.969999999998805,107.23583984375
0.09883163, 228.888859395148, -0.000381269689210778, 0.976249999999013,107.23583984375
0.0994983933333333, 228.891645851841, -0.000654572461475568, 0.983749999999617,108.226760864258
0.100164616666667, 228.8951033099, -0.000762520539344696, 0.989999999999824,103.956527709961
0.100830848333333, 228.898771779137, -0.000570725173041282, 0.996249999998255,103.274856567383
0.101497376666667, 228.902418573878, -0.000553045561060746, 1.00249999999846,103.777221679688
0.102164493333333, 228.905841967051, -0.000480080226042456, 1.00874999999867,103.777221679688
0.102830726666667, 228.909370181657, -0.000118701877706703, 1.01624999999927,104.060752868652
0.103497251666667, 228.913225285042, -0.000106595985765107, 1.02249999999948,103.879722595215
0.104164178333333, 228.916118121373, 0.000190420595374722, 1.0262499999989,102.473327636719
0.104831805, 228.918582035699, 0.000441729972395076, 1.0349999999999,123.549659729004
0.10549867, 228.92166757935, 0.000406315251252337, 1.04249999999873,123.549659729004
0.10616487, 228.924671068819, 0.000122887987522721, 1.04874999999893,103.761558532715
0.106830751666667, 228.927879372872, 0.000434225849330331, 1.05624999999954,102.477920532227
0.107499023333333, 228.932167395948, 0.000107218274582616, 1.06249999999974,101.885940551758
0.108163935, 228.935994217703, -0.000142585178103072, 1.06874999999995,102.141983032227
0.108831851666667, 228.939456775346, 0.000209952614312093, 1.07499999999838,102.141983032227
0.109497475, 228.942914806946, 0.000501165986936775, 1.08124999999859,102.053985595703
0.110163916666667, 228.946141665195, 0.000293613912056613, 1.08874999999919,105.903114318848
0.110830883333333, 228.94916238427, 0.00038417186344005, 1.0949999999994,101.771995544434
0.111497233333333, 228.952778692242, 0.000269109642914787, 1.10124999999961,101.280670166016
0.112164715, 228.956393078678, -4.7261966061575E-05, 1.10874999999844,101.280670166016
0.112832525, 228.960400222718, -0.00026426206637317, 1.11499999999864,105.147407531738
0.113497338333333, 228.964040588127, -0.00032583397369019, 1.12124999999885,108.809509277344
0.114163916666667, 228.967444917592, -0.000270158270201319, 1.12874999999946,103.344841003418
0.114830728333333, 228.97098892054, -0.00025038026364056, 1.13499999999966,102.058990478516
0.115498091666667, 228.974682263961, -2.41601264280815E-05, 1.14124999999987,102.058990478516
0.116164905, 228.978215021715, -0.000400350230817752, 1.1474999999983,113.486083984375
0.116831821666667, 228.981650092349, -0.000476832889156797, 1.15499999999891,108.652076721191
0.117498761666667, 228.985718675049, -0.000464670000087877, 1.16124999999911,107.473358154297
0.118165431666667, 228.989456386048, -0.000607750813290677, 1.16749999999932,107.296348571777
0.118832246666667, 228.99299402833, -0.000488710792546589, 1.17374999999953,107.296348571777
0.119500226666667, 228.996509197961, -6.40746215882493E-05, 1.18124999999836,103.782081604004
0.120164501666667, 228.999912147114, 0.000122052529438819, 1.18749999999856,105.936302185059
0.12083179, 229.002855477534, 0.000138626696921613, 1.19374999999877,99.8034210205078
0.12149927, 229.006602211321, 0.000401921971910048, 1.20124999999938,126.276054382324
0.122163951666667, 229.010321835819, -1.45951068719408E-05, 1.20749999999958,126.276054382324
0.122830573333333, 229.013694044848, -4.13747617373372E-05, 1.21374999999979,104.497299194336
0.123497851666667, 229.017028602536, 5.92746827315464E-05, 1.22249999999902,101.457725524902
0.12416391, 229.020857124845, -0.000171859207654914, 1.22749999999883,108.971710205078
0.124830591666667, 229.024700503364, -0.000200992244334104, 1.23374999999903,101.401504516602
0.125497851666667, 229.027935878619, 2.03005806181809E-06, 1.23999999999924,101.401504516602
0.126163928333333, 229.031394761461, 6.25010206543064E-05, 1.24749999999985,101.507698059082
0.1268306, 229.034746139355, 9.09935895282888E-05, 1.25374999999828,100.923500061035
0.127497395, 229.037813633064, 0.000259372132031017, 1.25999999999848,101.759628295898
0.128164195, 229.040889798193, 5.62973323022354E-05, 1.26749999999909,104.217788696289
0.128831668333333, 229.044177702359, -0.000244325067740649, 1.2737499999993,104.217788696289
0.129498321666667, 229.047081605696, -0.000192736658973294, 1.2812499999999,105.121803283691
0.130164273333333, 229.050744690397, -0.000605029949934323, 1.28624999999971,102.887367248535
0.130831266666667, 229.053945077067, -0.000835629867169462, 1.29374999999854,100.926628112793
0.131498948333333, 229.057244281057, -0.000802382537172004, 1.29999999999875,102.009223937988
0.132164406666667, 229.060390427632, -0.000488842785936584, 1.30749999999935,102.009223937988
0.132831471666667, 229.064129810202, -0.000578188798168393, 1.31374999999956,103.176582336426
0.133497275, 229.067519699323, -0.000293843580491442, 1.31999999999977,103.99698638916
0.134163903333333, 229.071066202084, 0.000108707699812608, 1.32749999999859,106.94465637207
0.134831188333333, 229.075031113079, 0.000108271221726244, 1.3337499999988,99.1737747192383
0.135498043333333, 229.078548873152, 1.28805130866E-05, 1.33999999999901,99.1737747192383
0.136164048333333, 229.082090761321, -4.45636015500157E-05, 1.34624999999922,106.902809143066
0.136832523333333, 229.08568267868, -0.000154691069980905, 1.35374999999982,99.3045349121094
0.137498638333333, 229.089158036448, -0.000398799308665972, 1.35999999999825,106.404685974121
0.138164225, 229.09189877315, -6.40191243428206E-05, 1.36624999999846,126.594116210938
0.138831873333333, 229.09541568073, -5.29796788432282E-05, 1.37249999999867,126.594116210938
0.13949853, 229.098590355715, -0.000212240179368257, 1.37999999999927,100.700103759766
0.140164491666667, 229.101907832693, -0.000214262077825168, 1.38624999999948,102.625526428223
0.140831131666667, 229.105645073402, -0.000390194240940457, 1.39249999999969,110.692543029785
0.141497918333333, 229.109127413906, -0.000532730581478604, 1.39874999999989,108.744079589844
0.142164035, 229.113093293172, -0.000561197651595223, 1.40624999999872,108.744079589844
