Time (min), Depth (µm), Load (N), Position (µm), Acoustic (aJ)
8.31166666666667E-06, 228.011379012945, -0.000391572569893618, 0,130.99153137207
0.000659411666666667, 228.011891767776, -0.000422893996659735, 0.00124999999862041,130.99153137207
0.00132582166666667, 228.013302026386, -7.90047698627956E-05, 0.00499999999981071,101.743751525879
0.00199274, 228.016179116019, -0.000476106823874629, 0.0137499999990354,107.372825622559
0.00265912, 228.018963644175, -0.000388760211191174, 0.0212499999996396,105.416198730469
0.00332622666666667, 228.022600066344, -0.000389034697399478, 0.0299999999988643,106.006156921387
0.00399267333333333, 228.026343072924, -0.00019861626193205, 0.0362499999990717,106.006156921387
0.00465913, 228.030346826308, -9.3204556675167E-05, 0.0424999999992792,110.522171020508
0.00532677833333333, 228.033776972892, -7.90557673350146E-05, 0.0499999999998835,108.934959411621
0.00599305333333333, 228.037670814536, 0.00014157265072443, 0.0574999999987114,103.079948425293
0.00665965333333333, 228.041513058784, 0.000521365574104586, 0.0649999999993156,103.703643798828
0.0073264, 228.046168368882, 0.000679441134117246, 0.0712499999995231,103.703643798828
0.00799248, 228.051459839415, 0.000278124291852127, 0.0774999999997306,106.209587097168
0.00865914, 228.055981058843, 0.000505049393619153, 0.0849999999985585,101.620704650879
0.009326275, 228.060753919786, 0.00024018369758922, 0.0899999999983692,102.19994354248
0.00999246, 228.065458494269, 4.24381301791398E-05, 0.0974999999989734,106.934532165527
0.01065926, 228.070471652069, -0.000275104919947453, 0.104999999999578,106.934532165527
0.011325805, 228.074961731086, -2.15576553348651E-05, 0.109999999999388,99.205940246582
0.0119924566666667, 228.079673260359, -0.000192261081066471, 0.116249999999596,105.505477905273
0.0126593883333333, 228.084261106952, -0.000238865240170382, 0.12499999999882,104.88907623291
0.0133258916666667, 228.089216529942, -0.000860573512460485, 0.129999999998631,107.325347900391
0.0139927833333333, 228.093389138634, -0.000780878015497056, 0.136249999998839,107.325347900391
0.0146593466666667, 228.09756443957, -0.000994063807392289, 0.142499999999046,99.8015594482422
0.0153259133333333, 228.102125826497, -0.00114237335795752, 0.14999999999965,101.351615905762
0.0159931933333333, 228.105952206803, -0.00129403374021349, 0.156249999999858,122.565788269043
0.016659585, 228.10984677977, -0.000676376764480475, 0.162499999998289,107.106506347656
0.0173262866666667, 228.113627654982, -0.000838455623405561, 0.168749999998496,107.106506347656
0.0179926283333333, 228.117860482957, -0.000468079227044369, 0.176249999999101,105.201583862305
0.0186598533333333, 228.121457110507, -7.79053250839207E-05, 0.182499999999308,99.9362945556641
0.0193259166666667, 228.126316972939, 7.30365932553617E-05, 0.188749999999516,106.778938293457
0.0199925916666667, 228.130990787604, 2.30726028717846E-05, 0.193749999999326,102.131446838379
0.020659915, 228.135972587203, -2.65944024161853E-05, 0.201249999999931,102.131446838379
0.0213260033333333, 228.140411756369, -0.00034987166455663, 0.208749999998759,102.661560058594
0.02199307, 228.145438687412, -0.000324312948325518, 0.214999999998966,105.745483398438
0.0226593566666667, 228.149749299938, -0.000252753042685621, 0.22249999999957,107.388320922852
0.02332595, 228.154456333886, -5.99617263659031E-05, 0.228749999999778,102.193031311035
0.0239927716666667, 228.159146743526, -9.1793127535398E-05, 0.234999999999985,102.193031311035
0.0246593, 228.16347643139, 0.000204677481079137, 0.241249999998416,107.09789276123
0.025326205, 228.167396367649, 0.000260623170939341, 0.248749999999021,107.066841125488
0.0259927633333333, 228.171958121429, 0.000141320663403428, 0.254999999999228,103.536209106445
0.0266597666666667, 228.175518995428, 0.000260444679935353, 0.261249999999436,103.67650604248
0.0273262366666667, 228.179164481839, 0.000598367206435937, 0.267499999999643,103.67650604248
0.0279925616666667, 228.182667533563, 0.000769700600501927, 0.274999999998471,106.207778930664
0.0286592683333333, 228.186899813604, 0.000867342696074689, 0.281249999998678,111.814514160156
0.0293262533333333, 228.189851149783, 0.00109071297636837, 0.288749999999283,104.613418579102
0.0299925816666667, 228.193373601869, 0.00095466081013072, 0.29499999999949,104.38850402832
0.0306598716666667, 228.196453940039, 0.000974431317090717, 0.301249999999698,104.38850402832
0.0313265466666667, 228.200113765005, 0.000868595133121442, 0.307499999999905,104.885467529297
0.0319930766666667, 228.203610320801, 0.000937890152487337, 0.314999999998733,106.758224487305
0.0326592883333333, 228.207391798578, 0.000924684815809375, 0.32124999999894,126.242027282715
0.033326205, 228.211547799544, 0.000893090402759357, 0.327499999999148,101.907073974609
0.0339925816666667, 228.215925233455, 0.000896075252853192, 0.334999999999752,101.907073974609
0.0346592966666667, 228.220486834998, 0.000695883308273808, 0.34124999999996,105.879570007324
0.0353266816666667, 228.224434130653, 0.000421109109871864, 0.347499999998391,110.055511474609
0.0359926116666667, 228.228097577854, 0.000301640110684682, 0.353749999998598,104.970184326172
0.036659285, 228.231705391369, 0.000380284160492649, 0.361249999999202,107.619430541992
0.0373259183333333, 228.235136726805, 8.94187703720305E-05, 0.36749999999941,107.619430541992
0.03799333, 228.238415636797, 0.000168787283773041, 0.373749999999617,107.019630432129
0.0386594033333333, 228.241932202533, 0.000241374637777948, 0.379999999999825,109.528038024902
0.0393260216666667, 228.246419292767, 8.91472840125327E-05, 0.387499999998653,109.123580932617
0.039992595, 228.250703086669, -0.000114579983001699, 0.39374999999886,103.247657775879
0.0406592633333333, 228.255335732684, 0.000295142437022048, 0.399999999999068,103.247657775879
0.0413262616666667, 228.259854344019, 0.000331008635495183, 0.407499999999672,103.06379699707
0.041993205, 228.264630388695, 0.000462733519128049, 0.4149999999985,110.487060546875
0.0426592816666667, 228.269338903045, 0.000599682640286372, 0.419999999998311,106.924980163574
0.043325975, 228.273377555764, 0.000866351245831594, 0.426249999998518,111.927963256836
0.0439925966666667, 228.277749744002, 0.000568388212223276, 0.433749999999122,111.927963256836
0.0446594883333333, 228.281867300881, 0.000526844798906122, 0.43999999999933,107.356338500977
0.0453264866666667, 228.286234554148, 0.000175692936873362, 0.446249999999537,104.606033325195
0.045992865, 228.290069266978, 0.000404495944397094, 0.453749999998365,105.48250579834
0.0466592766666667, 228.294542522104, -7.99257235951745E-05, 0.461249999998969,103.771469116211
0.0473259633333333, 228.299107100098, 0.000183788030344277, 0.46624999999878,103.771469116211
0.04799267, 228.303350691228, 0.000107546859876665, 0.472499999998988,101.694366455078
0.0486593083333333, 228.307370076624, 0.000457048804768284, 0.481249999999989,106.302528381348
0.0493259633333333, 228.311555045817, -3.99227328739605E-05, 0.48749999999842,123.52001953125
0.0499926466666667, 228.316010059367, 0.000313669506566728, 0.492500000000007,107.755813598633
0.0506592483333333, 228.319529014594, 0.000137687845967385, 0.499999999998835,107.755813598633
0.0513259616666667, 228.323758304469, 0.000351881587210386, 0.506249999999042,107.86971282959
0.0519933516666667, 228.327226682934, 0.00021814530463394, 0.513749999999646,102.951332092285
0.0526595916666667, 228.33171619225, 0.000422259552165466, 0.519999999999854,102.06534576416
0.0533259133333333, 228.334741643091, 0.000264944453952783, 0.526249999998285,100.042709350586
0.0539930583333333, 228.338764336657, 0.000180158212672024, 0.532499999998493,100.042709350586
0.0546608516666667, 228.34167324848, -0.000306787828537263, 0.539999999999097,108.150596618652
0.0553259716666667, 228.345823713365, -0.000580777566327524, 0.546249999999304,105.894454956055
0.0559932166666667, 228.348625980989, -0.000460177623927744, 0.552499999999512,106.422401428223
0.0566592916666667, 228.352633311063, -0.000307713282064106, 0.558749999999719,106.763031005859
0.0573259233333333, 228.355746916053, -0.000182195086738388, 0.566249999998547,106.763031005859
0.0579927483333333, 228.360100359258, 0.000136942383326425, 0.572499999998755,109.75471496582
0.0586592616666667, 228.36346103445, 0.000226825368622126, 0.578749999998962,100.360862731934
0.0593259333333333, 228.367112864361, 0.00013147065816816, 0.58499999999917,104.012367248535
0.059992625, 228.37088570134, -0.000319196705272079, 0.592499999999774,109.211822509766
0.0606592683333333, 228.374932579008, -0.000566859765387982, 0.599999999998602,109.211822509766
0.06132783, 228.378122105561, -0.000448812694811391, 0.604999999998412,107.937232971191
0.0619933183333333, 228.380854572511, -0.000304672934809858, 0.612499999999017,103.882705688477
0.0626596116666667, 228.384404553112, -8.61834093532876E-05, 0.619999999999621,109.32071685791
0.0633259583333333, 228.388002208075, -9.29840677878881E-05, 0.624999999999432,107.995628356934
0.0639932083333333, 228.39088005731, 3.82338412904064E-05, 0.631249999999639,107.995628356934
0.064660875, 228.39388869476, 3.97127670283219E-05, 0.638749999998467,107.458229064941
0.0653266666666667, 228.397849980062, 0.000153165568413841, 0.646249999999071,103.065773010254
0.0659931266666667, 228.40126031859, -0.000218905742799337, 0.651249999998882,126.665504455566
0.0666592433333333, 228.404324270757, 7.39980449678828E-05, 0.657499999999089,104.624900817871
0.067325915, 228.407738207619, -3.99947293090792E-05, 0.664999999999694,104.624900817871
0.067992815, 228.411450984632, -0.000147366836101086, 0.672499999998522,102.288925170898
0.0686594116666667, 228.414669134281, -0.000501863530126971, 0.678749999998729,107.236862182617
0.069325915, 228.417938499833, -0.000435601358393308, 0.68374999999854,106.779960632324
0.0699928416666667, 228.421228309977, -0.000225139429681981, 0.691249999999144,106.883239746094
0.0706594333333333, 228.423951902825, -7.74703469644678E-05, 0.698749999999748,106.883239746094
0.0713259116666667, 228.426930465278, -0.000103530037988776, 0.704999999999956,106.573738098145
0.0719927383333333, 228.429398191784, 0.000294549966882761, 0.709999999999766,103.693664550781
0.0726599566666667, 228.432143178276, 0.000326781847931688, 0.717499999998594,106.400924682617
0.07332638, 228.434688021016, 0.000107255874499925, 0.724999999999199,106.745864868164
0.0739931883333333, 228.438228082434, -0.000237182324756131, 0.729999999999009,106.745864868164
0.0746602, 228.44085527158, -0.000400414625759864, 0.736249999999217,97.7619476318359
0.0753260283333333, 228.44460976046, -0.000572587977682966, 0.743749999999821,105.45923614502
0.07599322, 228.447316482731, -0.000775904265325689, 0.751249999998649,102.081817626953
0.076659415, 228.450886219019, -0.000975434743136966, 0.75624999999846,99.5366668701172
0.0773261733333333, 228.45339508499, -0.000612962949741205, 0.763749999999064,99.5366668701172
0.0779926033333333, 228.456631320614, -0.000650320073304973, 0.769999999999271,106.561386108398
0.078659295, 228.459533183662, -0.000605217338741265, 0.777499999999876,105.832260131836
0.079326695, 228.462455306367, -0.000250852638147882, 0.784999999998703,103.008628845215
0.07999262, 228.465423540248, -0.000227353318483763, 0.789999999998514,100.773223876953
0.0806592816666667, 228.468235409253, -0.000191704609070354, 0.796249999998722,100.773223876953
0.0813259466666667, 228.471169750429, -0.000111854619850881, 0.803749999999326,103.542144775391
0.0819942566666667, 228.47402783229, -0.000359357188076889, 0.809999999999533,102.210113525391
0.082659855, 228.477743770064, -0.000715209813975861, 0.816249999999741,120.707382202148
0.0833259216666667, 228.480665218134, -0.000795484281907726, 0.823749999998569,107.95426940918
0.0839928616666667, 228.484470711064, -0.000718911628061978, 0.828749999998379,107.95426940918
0.0846592566666667, 228.48751333338, -0.000699819087059778, 0.836249999998984,106.863121032715
0.0853259283333333, 228.49096493189, -0.000718929627154817, 0.842499999999191,111.737480163574
0.0859930483333333, 228.493890045553, -0.000345947861616322, 0.849999999999795,101.692016601563
0.0866592783333333, 228.496978177211, -1.71058789833566E-05, 0.856250000000003,105.856185913086
0.0873259166666667, 228.500439753316, -0.000267906781524735, 0.862499999998434,105.856185913086
0.08799306, 228.504191754238, -0.000160822660239408, 0.868749999998641,103.855773925781
0.0886598916666667, 228.507414434108, 0.000141154171752158, 0.874999999998849,106.298973083496
0.08932661, 228.511100648834, -4.75903477836768E-05, 0.882499999999453,104.469345092773
0.0899928566666667, 228.514421290581, 6.93992759185844E-05, 0.888749999999661,107.692665100098
0.09065975, 228.517576751068, 0.000143648546438604, 0.894999999999868,107.692665100098
0.0913274666666667, 228.521138409874, -0.00010857428462835, 0.902499999998696,107.271354675293
0.0919941416666667, 228.524412617232, -0.000295611889959483, 0.908749999998903,105.084953308105
0.0926609033333333, 228.527277971465, -0.000289312206403095, 0.914999999999111,103.344604492188
0.0933274766666667, 228.530486117551, -0.000438475214060048, 0.921249999999318,104.468254089355
0.0939941483333333, 228.533583418775, -0.000334575432835444, 0.928749999999923,104.468254089355
0.0946608416666667, 228.536357937584, 0.000198551788732273, 0.934999999998354,108.139686584473
0.0953273883333333, 228.53971363208, 0.000274795959112454, 0.941249999998561,102.296203613281
0.0959943233333333, 228.543530306265, 0.000277306832988589, 0.948749999999166,101.392646789551
0.09665935, 228.546981417579, 3.25686259053754E-05, 0.954999999999373,110.038055419922
0.0973259433333333, 228.550925131532, -0.000676486258983167, 0.961249999999581,110.038055419922
0.0979931616666667, 228.554645869747, -0.00110701113419015, 0.967499999999788,102.10578918457
0.0986595666666667, 228.558177566269, -0.00136272878975431, 0.974999999998616,130.311126708984
0.0993286616666667, 228.561714470142, -0.00151538812183288, 0.981249999998823,103.36109161377
0.0999943833333333, 228.564476145042, -0.00132466070187462, 0.987499999999031,103.183059692383
0.100659781666667, 228.567153087094, -0.000491151068168543, 0.993749999999238,103.183059692383
0.10132754, 228.569880095909, -0.000561506534278828, 1.00124999999984,104.303207397461
0.101992861666667, 228.572328475221, -7.59785653328551E-06, 1.00749999999827,106.265350341797
0.102660946666667, 228.574672105448, 0.000225541433120396, 1.01374999999848,111.264762878418
0.103327808333333, 228.577808119695, 0.000317732802455284, 1.02124999999909,104.304466247559
0.103993181666667, 228.580595368642, -4.61609195510688E-05, 1.0249999999985,104.304466247559
0.104659236666667, 228.583361655269, -7.20187640580903E-06, 1.03124999999871,106.020202636719
0.105325981666667, 228.585677456862, -0.000337069807500635, 1.03874999999931,105.613082885742
0.105993293333333, 228.58848704402, -0.000376922805717761, 1.04749999999854,99.1434631347656
0.106659928333333, 228.591293650478, -0.000547437240974557, 1.05374999999874,107.126113891602
0.107326405, 228.593807013631, -0.000331826070936682, 1.05999999999895,107.126113891602
0.107992581666667, 228.597169204886, -0.000384623418985604, 1.06624999999916,101.869026184082
0.108659261666667, 228.600485415431, -0.00025399498030406, 1.07374999999976,101.793418884277
0.109325923333333, 228.603271587683, -0.000173216537751446, 1.07999999999997,109.227897644043
0.109992665, 228.606334364412, 6.63589286218283E-05, 1.0862499999984,105.466453552246
0.11065933, 228.609707771075, 0.000155028474862752, 1.09374999999901,105.466453552246
0.111325918333333, 228.612810519336, 0.000410758129885908, 1.09999999999921,103.340744018555
0.111992608333333, 228.616793720097, 0.000191053665386396, 1.10624999999942,101.841270446777
0.112659573333333, 228.620552107273, -1.34115645192555E-05, 1.11375000000002,109.501770019531
0.113326096666667, 228.62456449328, -0.000290360653645988, 1.11999999999846,107.910011291504
0.113992758333333, 228.628369205412, -0.000537443242932814, 1.12624999999866,107.910011291504
0.114659866666667, 228.632119024408, -0.000573987407427509, 1.13249999999887,99.2144546508789
0.115326281666667, 228.635819556085, -0.000646481766076905, 1.13999999999947,122.873947143555
0.11599417, 228.639603907085, -0.00027211257027411, 1.14624999999968,109.134880065918
0.116659305, 228.643464243263, -8.10986647123173E-05, 1.15249999999989,96.7017059326172
0.117325958333333, 228.647307232232, -0.00020254306469991, 1.15874999999832,96.7017059326172
0.117992633333333, 228.651101261207, -0.00013783181503301, 1.16624999999893,106.214508056641
0.118659371666667, 228.65451961363, -2.27140972623179E-05, 1.17249999999913,102.921546936035
0.119326015, 228.658696593082, -0.000545299848359849, 1.17874999999934,102.968322753906
0.11999275, 228.662694522027, -0.000437114782371244, 1.18624999999994,106.053955078125
0.120659271666667, 228.666938207193, -0.00010117365634743, 1.19249999999838,106.053955078125
0.121325915, 228.671143465244, -0.000266643844943397, 1.19874999999858,107.447364807129
0.121993426666667, 228.676260271167, -0.000342987010334193, 1.20499999999879,101.156188964844
0.122659935, 228.680234392681, -8.28370773507422E-05, 1.21249999999939,103.899070739746
0.123326061666667, 228.684680985314, -0.000246937834711486, 1.2187499999996,101.897926330566
0.12399275, 228.689478819185, -0.000394822906585576, 1.22624999999843,101.897926330566
0.124659538333333, 228.693894378156, -0.000206919844788747, 1.23125000000002,102.923225402832
0.125326156666667, 228.69820066803, -2.93782624912055E-05, 1.23874999999884,102.364028930664
0.125993066666667, 228.703061979082, -0.000270720640130329, 1.24499999999905,107.543876647949
0.12665948, 228.708050233207, -0.000429573161111401, 1.25124999999926,100.923751831055
0.12732592, 228.712290958355, -0.000107332346924895, 1.25999999999848,100.923751831055
0.127992621666667, 228.717264825386, -0.00047572884277623, 1.2649999999983,101.309013366699
0.128659323333333, 228.721686927417, -0.000440315621557894, 1.2712499999985,104.608604431152
0.129325953333333, 228.726591958419, -7.49759721504974E-05, 1.27874999999911,103.60033416748
0.129993295, 228.730542444046, 6.28506049537641E-05, 1.28499999999931,103.753944396973
0.130659296666667, 228.73524037538, -0.000265460404334177, 1.29249999999992,103.753944396973
0.131325996666667, 228.739483693826, -0.00026306202480954, 1.29874999999835,104.598777770996
0.131993296666667, 228.743694723028, -0.000473654446965204, 1.30499999999856,126.924957275391
0.132659206666667, 228.747720257618, -0.000569333141132782, 1.31124999999876,99.3284378051758
0.133325906666667, 228.75220702685, -0.000721184013830471, 1.31874999999937,104.315757751465
0.133993356666667, 228.756447673584, -0.000692461956501536, 1.32499999999958,104.315757751465
0.134659283333333, 228.760639556301, -0.00052205101604982, 1.33124999999978,106.595268249512
0.13532592, 228.765049065908, -8.92537550105841E-05, 1.33749999999999,99.7996139526367
0.135993358333333, 228.769323758916, -0.000255757391711683, 1.34499999999882,104.514526367188
0.13665924, 228.773566877701, 5.79503510781569E-05, 1.35249999999942,102.033409118652
0.13732657, 228.777827483666, 7.27936055657964E-05, 1.35749999999923,102.033409118652
0.137992871666667, 228.782446544266, 1.81813486701215E-05, 1.36374999999944,102.910530090332
0.138659378333333, 228.787335658659, -0.000205085436860989, 1.36999999999965,111.381523132324
0.13932615, 228.792038970614, -3.24306091406794E-05, 1.37874999999887,98.8071670532227
0.139992593333333, 228.796719267568, -0.000226001886235108, 1.38374999999868,97.500373840332
0.140659505, 228.801787754517, -0.000355749869164415, 1.38999999999889,97.500373840332
0.141326191666667, 228.806371244589, -0.000512049518428569, 1.3974999999995,104.608451843262
