Time (min), Depth (µm), Load (N), Position (µm), Acoustic (aJ)
7.235E-06, 228.216611620305, -0.000772731124357611, 0,106.872535705566
0.000673578333333333, 228.216646585605, -0.000630332776864563, 0.00124999999862041,102.203842163086
0.00133857666666667, 228.21731101138, -0.000493166166604006, 0.00624999999843112,109.621597290039
0.00200554, 228.218686445784, -0.000642068187393538, 0.0149999999994321,105.10334777832
0.00267201833333333, 228.222169287798, -0.000261093323349819, 0.02249999999826,98.1432800292969
0.00333855333333333, 228.226724056569, -0.000119366942095702, 0.0299999999988643,98.1432800292969
0.00400525833333333, 228.232084524047, -0.000247339014255248, 0.0362499999990717,104.426910400391
0.00467206833333333, 228.238024179377, -0.000384306134570172, 0.043749999999676,123.06689453125
0.00533856, 228.243427400124, -0.000407721458446455, 0.0499999999998835,100.338691711426
0.00600534666666667, 228.248384480805, -0.000454499608844906, 0.0562499999983146,106.246940612793
0.00667212166666667, 228.253304954555, -0.000463256169020166, 0.0649999999993156,106.246940612793
0.00733866, 228.258174980116, -0.000388511923340801, 0.0699999999991263,104.267974853516
0.00800521666666667, 228.263593644238, -0.00057790741017392, 0.078749999998351,97.787467956543
0.00867188333333333, 228.269082954028, -0.000818046848207836, 0.083749999999938,98.5798873901367
0.00933848166666667, 228.274570058359, -0.000998330292739615, 0.0912499999987659,101.333435058594
0.0100055466666667, 228.279832250933, -0.000978436791978551, 0.0987499999993702,101.333435058594
0.0106718816666667, 228.285479698447, -0.000753668581822221, 0.104999999999578,105.859298706055
0.011505215, 228.29053287499, -0.000569933810622177, 0.112499999998406,104.474281311035
0.0121720433333333, 228.29547137287, -0.000327373494155067, 0.11999999999901,102.507453918457
0.012838745, 228.300531157481, -0.000506522995667951, 0.12499999999882,98.5409393310547
0.0135052266666667, 228.306007501374, -0.000847175385071308, 0.131249999999028,103.996421813965
0.0141724516666667, 228.310246728745, -0.00108430297439338, 0.138749999999632,103.996421813965
0.0148384866666667, 228.315509498119, -0.00147324693815187, 0.14499999999984,103.602920532227
0.015505745, 228.319931227561, -0.0014715355241102, 0.151249999998271,105.187278747559
0.0161721733333333, 228.324564060699, -0.00129558236205326, 0.158749999998875,103.71272277832
0.0168384516666667, 228.329061297621, -0.00117806176498472, 0.164999999999083,102.815734863281
0.0175054766666667, 228.333821866495, -0.00113394898073971, 0.17124999999929,102.815734863281
0.0181722916666667, 228.337756553404, -0.000628303378785636, 0.177499999999498,104.146430969238
0.0188384883333333, 228.342750281241, -0.000625747507177402, 0.184999999998325,81.9251708984375
0.0195052516666667, 228.347644800864, -0.001037508324869, 0.189999999999912,105.488189697266
0.0201721433333333, 228.352012808325, -0.0010282987874602, 0.196249999998344,106.403015136719
0.020838635, 228.356364622376, -0.00130637581992947, 0.203749999998948,106.403015136719
0.0215052983333333, 228.361674891912, -0.00127242052546489, 0.211249999999552,124.076667785645
0.0221721283333333, 228.366094019984, -0.0012916075617045, 0.21749999999976,100.079940795898
0.0228385466666667, 228.371222736604, -0.00121094161346088, 0.223749999999967,102.762901306152
0.0235052816666667, 228.376707842151, -0.000976165905985682, 0.231249999998795,102.351531982422
0.0241721583333333, 228.382411797822, -0.000917467854335402, 0.237499999999002,102.351531982422
0.0248389733333333, 228.387629518341, -0.00114146660310283, 0.24374999999921,106.210723876953
0.0255053766666667, 228.393467351764, -0.00124683331067012, 0.249999999999417,99.9928131103516
0.0261720183333333, 228.398066174183, -0.000912737091981125, 0.256249999999625,103.240531921387
0.0268385016666667, 228.403658566949, -0.000912365110686609, 0.262499999999832,105.724960327148
0.0275052333333333, 228.409284931295, -0.000931283660458031, 0.26999999999866,105.724960327148
0.0281721533333333, 228.414707937245, -0.000778384340432432, 0.276249999998868,105.449165344238
0.02883891, 228.420453758201, -0.000540649281620767, 0.283749999999472,104.768417358398
0.0295052233333333, 228.426576626092, -0.000826911402961385, 0.289999999999679,105.781440734863
0.0301719716666667, 228.432191739273, -0.000983883018400706, 0.296249999999887,108.937492370605
0.030839, 228.437874727151, -0.000855757953994536, 0.303749999998715,108.937492370605
0.03150554, 228.443592789397, -0.00115372548735481, 0.309999999998922,104.92879486084
0.0321721133333333, 228.449037017219, -0.00125488640615147, 0.31624999999913,104.310821533203
0.0328387266666667, 228.454347470623, -0.000830541220548621, 0.323749999999734,104.864814758301
0.03350541, 228.459319409613, -0.000864606009515887, 0.329999999999941,105.54475402832
0.03417221, 228.463762159575, -0.00095433300263114, 0.336249999998373,105.54475402832
0.0348386083333333, 228.468443609464, -0.000973662531710309, 0.343749999998977,106.707321166992
0.0355052433333333, 228.472800066531, -0.000872353120376467, 0.349999999999184,104.385887145996
0.0361719983333333, 228.477388928918, -0.00110763130259051, 0.356249999999392,107.119941711426
0.0368388666666667, 228.481543787475, -0.000675826991697522, 0.362499999999599,106.13451385498
0.037505415, 228.486293107008, -0.000502933675912078, 0.369999999998427,106.13451385498
0.038172555, 228.490337241559, -0.000324255150746834, 0.376249999998635,123.234039306641
0.038838575, 228.495410647591, -0.000617770907776853, 0.382499999998842,105.581176757813
0.0395058216666667, 228.500225416092, -0.000599470327008352, 0.389999999999446,104.578552246094
0.0401721516666667, 228.505589583303, -0.000921867133375305, 0.394999999999257,103.293746948242
0.04083912, 228.510926525234, -0.00091091768340367, 0.402499999999861,103.293746948242
0.0415071183333333, 228.515808507884, -0.000648136882634332, 0.408749999998292,105.95768737793
0.0421725083333333, 228.520872706321, -0.000550457288972743, 0.416249999998897,103.948295593262
0.0428391816666667, 228.525655970481, -0.000525467044196737, 0.422499999999104,102.765808105469
0.0435052433333333, 228.530519350676, -0.000549720825963219, 0.428749999999312,105.390060424805
0.0441723233333333, 228.535453866984, -0.000500202313212426, 0.436249999999916,105.390060424805
0.0448385383333333, 228.541024089591, -0.00051488957547711, 0.442499999998347,103.951599121094
0.04550556, 228.545272915613, -0.000114171203155161, 0.448749999998554,96.7276611328125
0.0461718883333333, 228.550395587878, 0.000165803234024296, 0.454999999998762,99.149543762207
0.046838575, 228.555025290364, 0.000331657403352513, 0.461249999998969,106.967895507813
0.04750534, 228.559952790419, 0.000200773977522416, 0.468749999999574,106.967895507813
0.04817212, 228.564680810178, 5.5528773044395E-05, 0.474999999999781,106.60701751709
0.0488386633333333, 228.569863065838, -0.000126113603209277, 0.482499999998609,105.504623413086
0.0495053966666667, 228.57443464935, -0.000112047309732558, 0.488749999998817,102.657371520996
0.0501720933333333, 228.579134509612, -0.000412308227951748, 0.494999999999024,112.670524597168
0.0508385766666667, 228.583100076616, -0.000307973468586437, 0.501249999999231,112.670524597168
0.0515055483333333, 228.58778560571, -0.000644129083842425, 0.509999999998456,102.901313781738
0.0521723216666667, 228.591928093258, -0.000938210312457489, 0.514999999998267,102.04271697998
0.0528389666666667, 228.596646905359, -0.00117667133482911, 0.521249999998474,109.342155456543
0.0535052333333333, 228.601284046504, -0.000890532207310813, 0.528749999999079,124.871635437012
0.0541720083333333, 228.606585865262, -0.000986507886552744, 0.534999999999286,124.871635437012
0.0548385716666667, 228.611829693407, -0.00051111276517083, 0.54249999999989,104.318725585938
0.0555053683333333, 228.617545535486, -0.000468366412269721, 0.547499999999701,106.855499267578
0.0561720833333333, 228.622941357336, -0.000837617865137183, 0.553749999999908,104.804649353027
0.0568385516666667, 228.628582063617, -0.000883737548573825, 0.562499999999133,101.636856079102
0.0575056833333333, 228.633356215782, -0.00104245207648854, 0.568749999999341,101.636856079102
0.05817192, 228.638057842326, -0.0012559243539448, 0.573749999999151,103.964584350586
0.0588395316666667, 228.642394490631, -0.00123358447609945, 0.581249999999756,101.181854248047
0.0595052566666667, 228.646441272003, -0.00101695935695243, 0.588749999998583,109.330543518066
0.0601723916666667, 228.650696910237, -0.000953109064126795, 0.594999999998791,104.31608581543
0.06083865, 228.655761361778, -0.000864396020099431, 0.599999999998602,104.31608581543
0.0615053416666667, 228.66011005618, -0.000877068883571728, 0.607499999999206,105.337524414063
0.0621721016666667, 228.664366706532, -0.000737467895558347, 0.61499999999981,104.308959960938
0.0628386316666667, 228.668604074736, -0.000325791073675835, 0.621250000000018,106.574935913086
0.0635052133333333, 228.673498258181, -0.000440148329625297, 0.626249999999828,99.8194274902344
0.0641728083333333, 228.677485299351, -0.000504805581949918, 0.633749999998656,99.8194274902344
0.0648385533333333, 228.682275510541, -0.000727574392515384, 0.64124999999926,105.869613647461
0.0655055066666667, 228.68708999144, -0.000996233398083795, 0.647499999999468,110.536895751953
0.06617211, 228.6920197876, -0.00120919420125478, 0.653749999999675,103.68628692627
0.0668385233333333, 228.695967940991, -0.00118688732170379, 0.659999999999883,105.547462463379
0.0675052233333333, 228.700646275333, -0.00114128811209884, 0.667499999998711,105.547462463379
0.0681718983333333, 228.704899020159, -0.00118995166776974, 0.673749999998918,103.893989562988
0.0688387783333333, 228.709726485087, -0.00134401492934481, 0.679999999999126,105.036811828613
0.0695052033333333, 228.714157593005, -0.00170007604475709, 0.686249999999333,111.96622467041
0.0701723483333333, 228.718742862087, -0.00168317339378747, 0.693749999999937,123.948219299316
0.0708385466666667, 228.723040451285, -0.00153419637675653, 0.699999999998369,123.948219299316
0.0715058633333333, 228.727602527608, -0.00138544584833172, 0.706249999998576,102.37060546875
0.0721723066666667, 228.731758463136, -0.00115430745819331, 0.712499999998784,109.857917785645
0.0728390583333333, 228.735835673689, -0.000989294746604095, 0.719999999999388,104.758522033691
0.0735052266666667, 228.740121595521, -0.000998727772791495, 0.727499999999992,101.522598266602
0.0741720933333333, 228.744516666235, -0.00117277453059182, 0.732499999999803,101.522598266602
0.0748385366666667, 228.748296503351, -0.0012260968522669, 0.739999999998631,105.717163085938
0.0755056533333333, 228.752718668777, -0.00131337446840655, 0.746249999998838,109.650924682617
0.0761720983333333, 228.75698887584, -0.00145812319782208, 0.752499999999046,103.792182922363
0.0768386033333333, 228.761057724248, -0.00136699977487485, 0.758749999999253,107.512901306152
0.0775052183333333, 228.76492088859, -0.00125343897891104, 0.766249999999857,107.512901306152
0.0781718766666667, 228.769271886301, -0.00115898272336592, 0.772499999998288,106.912559509277
0.07883856, 228.773541053059, -0.00131974614839806, 0.778749999998496,105.114082336426
0.0795056133333333, 228.778342703645, -0.00113507092444839, 0.784999999998703,104.309448242188
0.0801719166666667, 228.782372239107, -0.0015110975370356, 0.791249999998911,106.349433898926
0.0808385466666667, 228.787160333874, -0.00142710625583735, 0.799999999999912,106.349433898926
0.081505345, 228.791497239258, -0.00168748417728758, 0.804999999999723,103.895370483398
0.0821718833333333, 228.795916326656, -0.00143335344199711, 0.81124999999993,112.333343505859
0.0828387583333333, 228.799924215717, -0.00138455339318426, 0.818749999998758,104.136047363281
0.083507015, 228.805031860221, -0.00116063564033461, 0.824999999998965,105.075057983398
0.0841721483333333, 228.809754401085, -0.00124404795062819, 0.831249999999173,105.075057983398
0.084838885, 228.814217621486, -0.00105941472456181, 0.83749999999938,105.330978393555
0.0855053283333333, 228.818613988326, -0.000906009929927301, 0.844999999999985,101.174072265625
0.08617204, 228.823155332782, -0.000960844175677166, 0.851249999998416,108.506072998047
0.08683858, 228.827170676098, -0.00106536492571099, 0.857499999998623,122.727355957031
0.0875053266666667, 228.831284465339, -0.00111407497905965, 0.864999999999228,122.727355957031
0.0881718883333333, 228.83605204191, -0.00118903221408929, 0.872499999999832,107.049850463867
0.08883857, 228.840514844782, -0.00103756682200575, 0.878749999998263,103.88941192627
0.0895061633333333, 228.845498391097, -0.00118747679218556, 0.88374999999985,107.613059997559
0.090174025, 228.850087785122, -0.00108931722262991, 0.891249999998678,105.750205993652
0.0908391283333333, 228.85476167527, -0.000843734557958882, 0.897499999998885,105.750205993652
0.091506445, 228.859106341296, -0.000837554868333501, 0.903749999999093,101.016288757324
0.0921735983333333, 228.863500169458, -0.000922906581199304, 0.9099999999993,106.834396362305
0.0928400566666667, 228.867673761595, -0.000748481842364338, 0.917499999999905,105.20777130127
0.0935052, 228.871915944072, -0.00082987225422226, 0.923749999998336,99.4964828491211
0.0941722783333333, 228.875880134849, -0.00110966970030088, 0.929999999998543,99.4964828491211
0.09483854, 228.880622150037, -0.000980715177529673, 0.937499999999147,106.465179443359
0.0955052833333333, 228.884631606229, -0.00102962772071528, 0.943749999999355,101.039161682129
0.09617224, 228.888780656878, -0.000971441143371527, 0.949999999999562,107.560920715332
0.0968387533333333, 228.893101100478, -0.000935616942781682, 0.95624999999977,103.597023010254
0.0975054333333333, 228.897518336362, -0.000759039812066722, 0.963749999998598,103.597023010254
0.0981721516666667, 228.901546807208, -0.000979998213558646, 0.969999999998805,103.890663146973
0.0988388433333333, 228.905424596261, -0.000989663728071059, 0.976249999999013,109.82674407959
0.0995053283333333, 228.908822389585, -0.00104666836481501, 0.98249999999922,102.849548339844
0.100172536666667, 228.912241475715, -0.00113216557039044, 0.989999999999824,104.738891601563
0.100838556666667, 228.915617976607, -0.000876192927656463, 0.996249999998255,104.738891601563
0.10150588, 228.918737706475, -0.000487250463843631, 1.00249999999846,107.278678894043
0.10217194, 228.922323224759, -0.000573401636501386, 1.00999999999907,104.081489562988
0.102838666666667, 228.925570802921, -0.00022317372809232, 1.01624999999927,107.853828430176
0.103505331666667, 228.930073618888, 4.36418700231668E-05, 1.02249999999948,124.082862854004
0.104172078333333, 228.933239602537, -0.000394225136391752, 1.0262499999989,124.082862854004
0.104839105, 228.936295503086, -0.000192741756667368, 1.0349999999999,103.227668762207
0.105506073333333, 228.93917590206, -1.34017647340168E-05, 1.04249999999873,102.178695678711
0.106171893333333, 228.943041474252, -0.000146992554600839, 1.04874999999893,108.22087097168
0.106838688333333, 228.945964390281, -0.000198381473337544, 1.05624999999954,105.899620056152
0.107505428333333, 228.949827377877, -0.000216478064344694, 1.06249999999974,105.899620056152
0.108172136666667, 228.953831017294, -0.000633368624409364, 1.06874999999995,97.6427536010742
0.108838783333333, 228.957997429916, -0.000664721549587949, 1.07499999999838,106.033973693848
0.109505995, 228.961741175943, -0.000941879128249243, 1.08249999999899,103.977523803711
0.110172481666667, 228.965310300544, -0.000902357613388999, 1.08874999999919,104.900825500488
0.110838935, 228.968726144121, -0.00053219270638992, 1.0949999999994,104.900825500488
0.111505368333333, 228.972569102559, -0.000714741037153192, 1.10124999999961,107.36531829834
0.112172035, 228.976545643271, -0.00092533945900647, 1.10874999999844,103.501342773438
0.112838865, 228.980108280871, -0.000870004238442154, 1.11499999999864,106.818649291992
0.113505315, 228.983884833445, -0.000977254851357497, 1.12124999999885,107.187561035156
0.114173038333333, 228.987908450128, -0.00127326198322515, 1.12874999999946,107.187561035156
0.114839066666667, 228.99134525398, -0.00102356652516026, 1.13499999999966,102.192260742188
0.115505678333333, 228.994625422428, -0.000431381270021722, 1.14124999999987,104.244255065918
0.116171893333333, 228.998530593752, -0.000434487614013476, 1.1474999999983,102.339706420898
0.116841875, 229.002168533411, 4.23174365625492E-05, 1.15499999999891,104.831024169922
0.117506525, 229.006030063709, 0.000137363162504427, 1.16124999999911,104.831024169922
0.118172361666667, 229.009999630416, -3.56216486483618E-05, 1.16749999999932,101.798110961914
0.118838513333333, 229.013398838572, -0.000483983627919474, 1.17499999999993,104.017578125
0.11950535, 229.017282516266, -0.000595413030923679, 1.18124999999836,102.895469665527
0.12017208, 229.020735254094, -0.00110186559235548, 1.18749999999856,120.938781738281
0.120838595, 229.024335594427, -0.000971864122244533, 1.19374999999877,120.938781738281
0.121505423333333, 229.027239721433, -0.000766555934632964, 1.20124999999938,105.45223236084
0.12217195, 229.031477965881, -0.000810145245176228, 1.20749999999958,100.231437683105
0.122838546666667, 229.034765119999, -0.00087162115733144, 1.21374999999979,103.468269348145
0.123505361666667, 229.038139181256, -0.000651861195629007, 1.22124999999862,107.285903930664
0.124171916666667, 229.041527697786, -0.000924375007530159, 1.22874999999922,107.285903930664
0.124838838333333, 229.044812795598, -0.000599810810060432, 1.23374999999903,103.166046142578
0.125505633333333, 229.047841713595, -0.000319384895529325, 1.24124999999964,110.286514282227
0.126171981666667, 229.051529523243, -3.52061695248971E-05, 1.24749999999985,109.130165100098
0.126838853333333, 229.054839367748, -9.10258657989895E-05, 1.25499999999867,102.681793212891
0.127505433333333, 229.057657657519, 0.000234423287259946, 1.25999999999848,102.681793212891
0.1281721, 229.061289749982, 3.55242777287109E-05, 1.26624999999869,106.641860961914
0.12883854, 229.064421624593, -0.000205386121597258, 1.27499999999969,103.428855895996
0.129505713333333, 229.067782233075, -0.000131957309853345, 1.2799999999995,102.530311584473
0.130173935, 229.070858937362, -0.000226550058540422, 1.28624999999971,103.538368225098
0.130839191666667, 229.074886335317, -0.000454061630812884, 1.29374999999854,103.538368225098
0.131505336666667, 229.078491854874, -0.000591217741602619, 1.30124999999914,104.122787475586
0.13217262, 229.081813785763, -0.000254072176070448, 1.30624999999895,106.395156860352
0.13283852, 229.08437455831, -0.00020703303882583, 1.31374999999956,105.446296691895
0.133505223333333, 229.087746779865, -0.000248619949971933, 1.31999999999977,102.104072570801
0.134172966666667, 229.090284673462, -0.000115050159110519, 1.32749999999859,102.104072570801
0.134838876666667, 229.093220154558, -0.000119960912435695, 1.3337499999988,102.036178588867
0.135505333333333, 229.096577096881, -0.000374519126244858, 1.33999999999901,107.065711975098
0.136171988333333, 229.10012103603, -0.000648727853019249, 1.34624999999922,130.265045166016
0.136838838333333, 229.103351884971, -0.00048758794691938, 1.35374999999982,99.6052932739258
0.137505233333333, 229.106358140706, -0.000417757454435251, 1.35999999999825,99.6052932739258
0.138172028333333, 229.110277373651, -0.00039387115421133, 1.36749999999886,101.502227783203
0.138838631666667, 229.113932846464, -0.000548979863265502, 1.37249999999867,110.456886291504
0.139506236666667, 229.117585061931, -0.00025461964864767, 1.37874999999887,106.289199829102
0.140172003333333, 229.121503361747, -0.000351993257667232, 1.38624999999948,101.668937683105
0.140838555, 229.125773220213, -0.000389654865969878, 1.39249999999969,101.668937683105
