Time (min), Depth (µm), Load (N), Position (µm), Acoustic (aJ)
8.65166666666667E-06, 227.988471068459, -0.000343876315918838, 0,102.134773254395
0.00066464, 227.988726099388, -0.00038636768160763, 0.00124999999862041,102.134773254395
0.001331235, 227.98920432565, -0.000107608183386099, 0.00624999999843112,105.232055664063
0.00199783666666667, 227.990115647856, -0.000477062126069256, 0.0137499999990354,100.085189819336
0.00266447166666667, 227.990629416152, -0.00028665868984586, 0.0212499999996396,104.047630310059
0.00333115333333333, 227.991590309577, -0.000111707477481588, 0.0299999999988643,102.899787902832
0.00399787, 227.992587929431, -6.38418817207426E-05, 0.0362499999990717,102.899787902832
0.00466450166666667, 227.994123551196, -0.000298757082186693, 0.043749999999676,105.696990966797
0.005331175, 227.995244219447, -0.000276499700183521, 0.0499999999998835,100.597961425781
0.005997875, 227.997684760582, -0.000397969598885969, 0.0574999999987114,105.377807617188
0.00666440166666667, 228.000283581956, -0.000538847022757809, 0.0649999999993156,100.345878601074
0.007331395, 228.003633609345, -0.000551471888627948, 0.0737499999985403,100.345878601074
0.00816446, 228.006614992499, -0.000891824293086891, 0.078749999998351,128.931274414063
0.00883125333333333, 228.010206963671, -0.000592203842672908, 0.0862499999989552,103.763442993164
0.00949801166666667, 228.013397741892, -0.00029552024479311, 0.0924999999991627,102.354522705078
0.0101644633333333, 228.016946347807, -0.000267522651057219, 0.0999999999997669,107.37865447998
0.0108313566666667, 228.020295426772, -0.000355706221685217, 0.106249999999974,107.37865447998
0.01149777, 228.023676687085, 0.000298854900378016, 0.111249999999785,102.954048156738
0.0121644983333333, 228.027237805004, 0.000230500333740488, 0.11999999999901,99.308952331543
0.0128312466666667, 228.030980242151, 0.000149387408003439, 0.126249999999217,101.701118469238
0.0134981166666667, 228.034992042129, 0.00022872292302507, 0.131249999999028,103.390182495117
0.0141649483333333, 228.038316891719, 0.00058929131205554, 0.138749999999632,103.390182495117
0.0148313, 228.041836789943, 0.000679427784596645, 0.14499999999984,107.763481140137
0.0154978933333333, 228.044824238281, 0.000901770616589078, 0.151249999998271,105.807525634766
0.0161645, 228.048309031022, 0.00129013410949724, 0.157499999998478,99.833740234375
0.01683135, 228.051185954829, 0.00139108653875934, 0.164999999999083,107.629081726074
0.017497875, 228.054469895909, 0.00126258799309174, 0.17124999999929,101.520370483398
0.0181655133333333, 228.057629451161, 0.0011271282970784, 0.177499999999498,101.520370483398
0.018831215, 228.060876855011, 0.00116443742308252, 0.183749999999705,105.286010742188
0.0194980933333333, 228.064011103264, 0.000928431777384109, 0.188749999999516,107.42138671875
0.0201644716666667, 228.066338035279, 0.00136433988216705, 0.194999999999723,107.977226257324
0.020831165, 228.069267021732, 0.00162197594140431, 0.203749999998948,100.17724609375
0.0214981683333333, 228.071660953901, 0.00190807607090937, 0.209999999999155,100.17724609375
0.0221644266666667, 228.074652999934, 0.00232043085874968, 0.21749999999976,105.97046661377
0.0228311533333333, 228.077154403699, 0.00274825586954196, 0.223749999999967,105.393402099609
0.023497865, 228.080718179346, 0.00296445201024588, 0.229999999998398,107.095626831055
0.0241644933333333, 228.083483622945, 0.00285394356097405, 0.237499999999002,122.442481994629
0.02483168, 228.087087276881, 0.00317164710303305, 0.24374999999921,122.442481994629
0.0254979383333333, 228.089578150678, 0.00345316796252731, 0.249999999999417,110.35912322998
0.02616455, 228.092992403949, 0.00344640930201851, 0.256249999999625,104.766761779785
0.02683145, 228.095814897785, 0.00329172957140744, 0.263749999998453,102.294319152832
0.0274978283333333, 228.099079218444, 0.00374394785693569, 0.268749999998263,97.1937637329102
0.0281653166666667, 228.101600352917, 0.00398936252998854, 0.276249999998868,97.1937637329102
0.0288313416666667, 228.105111226035, 0.00386252590083605, 0.283749999999472,110.463981628418
0.02949781, 228.107732625248, 0.00440233528678926, 0.289999999999679,107.74439239502
0.0301645233333333, 228.111098715003, 0.00449470364722499, 0.296249999999887,105.256858825684
0.0308317166666667, 228.113689747625, 0.0047428676822191, 0.302499999998318,105.622009277344
0.0314985183333333, 228.116647274052, 0.00484730293654068, 0.309999999998922,105.622009277344
0.0321645033333333, 228.119323217363, 0.00521489247291429, 0.31624999999913,100.883743286133
0.0328312933333333, 228.121861319424, 0.0050990982891102, 0.322499999999337,108.10279083252
0.0334980883333333, 228.124316037577, 0.00545958268237409, 0.329999999999941,105.861427307129
0.034164485, 228.126548785065, 0.00558843071047015, 0.336249999998373,105.383941650391
0.03483116, 228.129010488576, 0.00544933969690266, 0.34249999999858,105.383941650391
0.0354984316666667, 228.131391937913, 0.00543281352700077, 0.348749999998788,103.694869995117
0.0361644616666667, 228.134148823751, 0.00561549385117529, 0.356249999999392,100.937088012695
0.0368314133333333, 228.136203726103, 0.00583412436954702, 0.362499999999599,109.642608642578
0.0374978116666667, 228.138990749777, 0.00569516384940261, 0.368749999999807,103.920776367188
0.0381644866666667, 228.141615197999, 0.00583214596894031, 0.376249999998635,103.920776367188
0.0388314466666667, 228.144382701066, 0.00604853260004345, 0.382499999998842,107.970741271973
0.0394978216666667, 228.14636572401, 0.00618578920581071, 0.38874999999905,103.612846374512
0.0401647916666667, 228.148391796514, 0.00628247434944416, 0.394999999999257,100.344451904297
0.040831155, 228.150343516286, 0.00664942341797005, 0.403749999998482,123.683723449707
0.0414984966666667, 228.152082739378, 0.00698794891418701, 0.408749999998292,123.683723449707
0.0421647966666667, 228.154299123852, 0.00681809294589203, 0.4149999999985,107.16886138916
0.04283172, 228.156425633446, 0.00675448114104651, 0.421249999998707,104.152412414551
0.0434980083333333, 228.159102232829, 0.00673512761315564, 0.428749999999312,106.195442199707
0.0441644583333333, 228.161417646474, 0.00684865841061012, 0.434999999999519,102.598480224609
0.0448312466666667, 228.163774246884, 0.00695278768031093, 0.442499999998347,102.598480224609
0.04549842, 228.165645712387, 0.00723245763275151, 0.448749999998554,108.790161132813
0.0461645083333333, 228.167640046391, 0.00791768621441352, 0.454999999998762,102.270637512207
0.0468311483333333, 228.169797856879, 0.00837782110230243, 0.461249999998969,99.3147048950195
0.0474983516666667, 228.17222827741, 0.00858033493026189, 0.468749999999574,101.375099182129
0.0481660533333333, 228.174580893248, 0.00886984738837948, 0.476249999998402,101.375099182129
0.048831345, 228.176919708009, 0.0093621811590017, 0.482499999998609,100.540481567383
0.0494978533333333, 228.179711039647, 0.00897492161064563, 0.48749999999842,102.614082336426
0.05016452, 228.181839939217, 0.00917781041974841, 0.494999999999024,102.063339233398
0.0508313083333333, 228.184890870816, 0.00923063026666338, 0.501249999999231,105.219573974609
0.0514978333333333, 228.187657290677, 0.00916459758338467, 0.508749999999836,105.219573974609
0.052164835, 228.190444334203, 0.00903447011951757, 0.513749999999646,100.441062927246
0.05283114, 228.19287009249, 0.00960742934036077, 0.521249999998474,102.747734069824
0.0534979383333333, 228.195670442482, 0.00962936573852039, 0.528749999999079,103.877426147461
0.05416464, 228.197845393124, 0.00980376947841371, 0.534999999999286,108.763725280762
0.0548311616666667, 228.200466726522, 0.00996524986741688, 0.541249999999494,108.763725280762
0.0554982516666667, 228.202579977707, 0.0100991481418501, 0.547499999999701,102.791641235352
0.05616468, 228.205636857611, 0.00982284402032307, 0.548749999998321,101.192855834961
0.0568311416666667, 228.208101095935, 0.00980874472853074, 0.549999999998718,126.811347961426
0.057497895, 228.210133663999, 0.0100655633287769, 0.549999999998718,103.40657043457
0.0581650033333333, 228.21193928354, 0.00965099915190805, 0.551249999999115,103.40657043457
0.0588318366666667, 228.213577085934, 0.00953020271941144, 0.556249999998926,102.066589355469
0.05949811, 228.214523292307, 0.00980624435412542, 0.561249999998736,103.270202636719
0.0601649083333333, 228.215371828091, 0.00987339298128768, 0.56374999999953,104.154510498047
0.0608319233333333, 228.216374815822, 0.00988225603613808, 0.568749999999341,102.827415466309
0.0614978116666667, 228.217194156335, 0.0105764751662248, 0.574999999999548,102.827415466309
0.0621645533333333, 228.21923077506, 0.0108374320586009, 0.582499999998376,103.962463378906
0.062832105, 228.220988246408, 0.0110741141702902, 0.588749999998583,107.813987731934
0.0634979483333333, 228.223146758294, 0.0113757610188918, 0.594999999998791,105.503456115723
0.064164535, 228.225831653416, 0.0114218852021229, 0.603749999999792,103.240119934082
0.0648311433333333, 228.229642444497, 0.0116496592612722, 0.612499999999017,103.240119934082
0.06549782, 228.232435720862, 0.0119634285010051, 0.622499999998638,104.908157348633
0.0661646416666667, 228.236610460762, 0.0120412370927929, 0.631249999999639,101.650993347168
0.0668311783333333, 228.240649708224, 0.0123947993337243, 0.642499999999657,107.534736633301
0.0674984883333333, 228.244678075743, 0.0129873160722197, 0.653749999999675,105.665184020996
0.06816469, 228.24934289156, 0.0131639561997596, 0.664999999999694,105.665184020996
0.0688314683333333, 228.253994863761, 0.0136311002355752, 0.678749999998729,106.01180267334
0.06949825, 228.259295714437, 0.0141280792728182, 0.691249999999144,107.523773193359
0.0701657783333333, 228.26502058654, 0.0144889461468474, 0.704999999999956,100.482154846191
0.0708312483333333, 228.271191275988, 0.0150944852312649, 0.718749999998991,106.989402770996
0.07149935, 228.277745489073, 0.0151280085474163, 0.733749999998423,106.989402770996
0.072164505, 228.285396915998, 0.0154323687597097, 0.748749999999632,102.193428039551
0.0728317333333333, 228.292903344497, 0.0160823596113511, 0.764999999999461,103.073471069336
0.0734992233333333, 228.301435563282, 0.0167533479083056, 0.779999999998893,124.82829284668
0.0741645233333333, 228.309838989981, 0.0175331812380924, 0.798749999999515,98.1322174072266
0.074831265, 228.318395752649, 0.0187770507598424, 0.814999999999344,98.1322174072266
0.075498355, 228.327670111634, 0.0200953855412265, 0.833749999999966,108.603729248047
0.076165505, 228.33767804473, 0.0209106245926096, 0.849999999999795,101.690055847168
0.0768317433333333, 228.348214219973, 0.0217775300488503, 0.869999999999038,105.148529052734
0.0774978516666667, 228.359222255614, 0.0225764604194125, 0.889999999998281,102.665580749512
0.0781644733333333, 228.370698344864, 0.02365865006215, 0.907499999998507,102.665580749512
0.0788313666666667, 228.382074369049, 0.0245713212196469, 0.928749999999923,99.1984558105469
0.07949786, 228.393270925121, 0.0259142037680655, 0.948749999999166,105.750869750977
0.0801645416666667, 228.405400921494, 0.0270367788822895, 0.969999999998805,104.291839599609
0.08083129, 228.417626182222, 0.0286888529003121, 0.991249999998445,106.863067626953
0.0814985666666667, 228.430375166887, 0.0299724914245126, 1.01249999999986,106.863067626953
0.08216453, 228.444090168155, 0.0315929965282213, 1.0324999999991,100.08479309082
0.0828312016666667, 228.457117330838, 0.0330491773857694, 1.05624999999954,102.50121307373
0.0834979183333333, 228.470345863565, 0.0347464771321568, 1.08124999999859,102.31201171875
0.0841661766666667, 228.485023677608, 0.0359178507952904, 1.10374999999863,103.612724304199
0.084831205, 228.499287971734, 0.0377900267578432, 1.12874999999946,103.612724304199
0.085498205, 228.513926241843, 0.0393581499926476, 1.15374999999851,101.470367431641
0.0861645716666667, 228.529996819294, 0.040885551772878, 1.17749999999894,103.542404174805
0.08683119, 228.546419755465, 0.0423359744196855, 1.20249999999977,106.69327545166
0.0874978166666667, 228.562391165491, 0.0436007753900537, 1.22874999999922,102.86775970459
0.0881649166666667, 228.57881019823, 0.0449896951260243, 1.25499999999867,102.86775970459
0.088831165, 228.59564331413, 0.0464143730659747, 1.2799999999995,106.500381469727
0.0894978583333333, 228.61254288776, 0.0482001008707315, 1.30749999999935,106.99715423584
0.0901646166666667, 228.629188258279, 0.04996578068245, 1.3349999999992,118.182609558105
0.0908311433333333, 228.646162488441, 0.0519087590886915, 1.36124999999865,110.233299255371
0.0914988783333333, 228.663440789872, 0.0537915845163565, 1.3887499999985,110.233299255371
0.092164485, 228.681226146087, 0.0558509630758609, 1.41749999999874,104.399856567383
0.0928318833333333, 228.698761448135, 0.0574672143932393, 1.44624999999898,109.537017822266
0.0934996766666667, 228.716616908302, 0.0597011676841253, 1.47499999999923,100.228950500488
0.0941645016666667, 228.734449769305, 0.0618601352414181, 1.50374999999947,103.878440856934
0.094832615, 228.752923558836, 0.0640235710742732, 1.53124999999932,103.878440856934
0.0954986266666667, 228.770853644918, 0.0660550405357091, 1.56124999999996,104.652893066406
0.0961645066666667, 228.788697122407, 0.0686553474250054, 1.58999999999843,103.600746154785
0.0968311833333333, 228.806603435751, 0.0705382193503056, 1.61874999999867,100.90941619873
0.0974981933333333, 228.824958971723, 0.073000542170414, 1.64999999999971,102.883178710938
0.0981644783333333, 228.843009963713, 0.075253565503415, 1.67874999999995,102.883178710938
0.0988319866666667, 228.861156627088, 0.0777592271466275, 1.70749999999842,104.546157836914
0.099498025, 228.880158076777, 0.0799260678084732, 1.73499999999827,103.267707824707
0.100164501666667, 228.898093323724, 0.082390537020764, 1.76499999999891,109.739448547363
0.100831398333333, 228.916581077702, 0.0844575336977154, 1.79624999999994,109.224006652832
0.101498138333333, 228.935323040675, 0.0868362912151774, 1.8287499999996,109.224006652832
0.102164973333333, 228.953486391058, 0.0890630643667335, 1.85874999999847,105.868988037109
0.102831166666667, 228.971661044581, 0.0911862497213197, 1.8899999999995,98.2791900634766
0.103497845, 228.990102471845, 0.0934647057768593, 1.92124999999876,105.362716674805
0.10416489, 229.008985295309, 0.0959493654749643, 1.9512499999994,112.25025177002
0.104831198333333, 229.027168889273, 0.0981821743233181, 1.98624999999986,112.25025177002
0.105499486666667, 229.044551049804, 0.100826566998199, 2.01874999999951,104.32950592041
0.106164483333333, 229.062172323851, 0.103392764100796, 2.05124999999917,105.996620178223
0.106831225, 229.079622933623, 0.106104233406489, 2.08499999999923,125.773704528809
0.107498183333333, 229.097051119595, 0.108916046172051, 2.11624999999849,106.153816223145
0.108164466666667, 229.115013853779, 0.111582634732077, 2.14874999999992,106.153816223145
0.108831343333333, 229.133929527701, 0.113984372595296, 2.18249999999998,105.646224975586
0.109499115, 229.153163761977, 0.116352893127005, 2.21749999999865,100.186592102051
0.110164536666667, 229.172718948334, 0.118950878132921, 2.25124999999871,102.711135864258
0.110831193333333, 229.192232924259, 0.12120644683806, 2.28374999999836,106.388549804688
0.111497841666667, 229.211558318191, 0.123786719233659, 2.31874999999881,106.388549804688
0.11216449, 229.231147122726, 0.126147890134495, 2.35124999999847,104.432327270508
0.112832055, 229.250179739181, 0.129109924854577, 2.38624999999892,105.675132751465
0.113498086666667, 229.269837974472, 0.131842847582708, 2.41999999999898,108.448486328125
0.114164448333333, 229.289151146012, 0.134782693917309, 2.45374999999903,108.637809753418
0.114831596666667, 229.309675788322, 0.13732217286192, 2.48624999999869,108.637809753418
0.11549802, 229.329594147366, 0.140535521458774, 2.52124999999914,103.978492736816
0.116164585, 229.350742302802, 0.143445192309023, 2.55624999999959,101.701461791992
0.116831908333333, 229.37169325414, 0.146454204669449, 2.58999999999965,101.469924926758
0.11749932, 229.392469546891, 0.149115768481853, 2.62249999999931,106.055892944336
0.118164581666667, 229.412276896351, 0.151935613343997, 2.65374999999857,106.055892944336
0.118831226666667, 229.433038355845, 0.154917216081181, 2.69249999999843,100.280212402344
0.119497835, 229.453914774823, 0.157902300143542, 2.72749999999888,105.177139282227
0.12016501, 229.474839457953, 0.160906485746409, 2.76249999999933,103.749877929688
0.12083128, 229.495663015589, 0.164136717495216, 2.79749999999979,100.242256164551
0.12149791, 229.517613564864, 0.167671484947535, 2.83249999999846,100.242256164551
0.122164535, 229.538790108857, 0.170733609640198, 2.86749999999891,105.928924560547
0.12283115, 229.558769446139, 0.173919971592513, 2.90374999999976,98.8904266357422
0.123498705, 229.580089751166, 0.176562727849636, 2.93874999999844,122.826171875
0.124164986666667, 229.600756842896, 0.179927861322514, 2.97499999999928,104.731117248535
0.124831218333333, 229.621404658122, 0.183152922831009, 3.01124999999836,104.731117248535
0.12549992, 229.642226113364, 0.186546448377763, 3.0474999999992,106.374176025391
0.126164886666667, 229.663980395038, 0.189872534311956, 3.08374999999828,104.997444152832
0.126831673333333, 229.685103642637, 0.193436218811776, 3.11999999999912,105.959281921387
0.127498626666667, 229.70650461798, 0.1969789793626, 3.15499999999957,98.8130950927734
0.128164476666667, 229.727167457029, 0.200006442296298, 3.18999999999825,98.8130950927734
0.12883142, 229.748627274155, 0.203026986077555, 3.2262499999991,109.675910949707
0.129498025, 229.768930569454, 0.206373917964654, 3.26124999999955,105.096298217773
0.130164555, 229.788952521804, 0.20975845446295, 3.2949999999996,106.026466369629
0.13083183, 229.809967150931, 0.212916125856412, 3.33249999999907,100.736175537109
0.131498615, 229.830780545363, 0.216774107574004, 3.36749999999952,100.736175537109
0.132165151666667, 229.852205443142, 0.220301612391087, 3.40249999999998,110.689613342285
0.132831783333333, 229.873728404489, 0.223774347459233, 3.43749999999865,103.644668579102
0.133497845, 229.896248592745, 0.227373307187226, 3.46999999999831,103.073097229004
0.134166103333333, 229.918351285756, 0.230606280798309, 3.50499999999876,107.0478515625
0.134831158333333, 229.940077331522, 0.233761669306405, 3.54124999999961,107.0478515625
0.135498201666667, 229.962511007682, 0.237079060177323, 3.57374999999927,102.124740600586
0.136164878333333, 229.984922358228, 0.240887488883903, 3.61124999999873,99.5184478759766
0.136831193333333, 230.006943480445, 0.244439775456206, 3.64874999999998,105.28328704834
0.137497858333333, 230.029185207041, 0.248338550624786, 3.68499999999905,105.826278686523
0.13816605, 230.052840275789, 0.252215668381187, 3.7187499999991,105.826278686523
0.138831181666667, 230.075470655608, 0.255937878418405, 3.75499999999995,109.280624389648
0.139498145, 230.098682354157, 0.259179895075267, 3.78999999999863,131.543182373047
0.140164505, 230.121717237302, 0.262493234649671, 3.82624999999948,108.774711608887
0.14083133, 230.145198408543, 0.266314978187495, 3.86249999999855,101.077087402344
0.141498535, 230.167751336571, 0.269985397326172, 3.897499999999,101.077087402344
0.142164443333333, 230.191174449467, 0.273877187345594, 3.93249999999945,104.10604095459
0.142832128333333, 230.21411460797, 0.277632916199232, 3.9674999999999,102.185020446777
0.143498268333333, 230.237199989339, 0.28210007581846, 4.00249999999858,107.833076477051
0.144164561666667, 230.260225172734, 0.285902951803943, 4.03874999999942,101.950508117676
0.144831278333333, 230.282840374311, 0.290074026295213, 4.07249999999948,101.950508117676
0.145498755, 230.305013930352, 0.293853836439269, 4.10624999999953,106.138610839844
0.146165031666667, 230.327923687828, 0.297795429957142, 4.13999999999959,105.668518066406
