Time (min), Depth (µm), Load (N), Position (µm), Acoustic (aJ)
7.855E-06, 228.159820655407, 0.0020191652341999, 0,116.579887390137
0.000664123333333333, 228.159822209739, 0.00171251763680893, 0,102.73323059082
0.00133042833333333, 228.160774172583, 0.00164188618452343, 0.00124999999862041,105.59740447998
0.00199735833333333, 228.162122102698, 0.00145811991491092, 0.0112500000000182,105.59740447998
0.00266397, 228.164025973978, 0.00176291810523637, 0.0212499999996396,111.043937683105
0.00333056, 228.165477360184, 0.00208855474884571, 0.031249999999261,104.404777526855
0.00399753166666667, 228.168425578503, 0.00253344290254, 0.0374999999994685,97.5355911254883
0.00466450666666667, 228.17015487104, 0.00286220688908274, 0.043749999999676,105.833068847656
0.00533042333333333, 228.172465263655, 0.00354694199555231, 0.0499999999998835,105.833068847656
0.00599731333333333, 228.173399954012, 0.00410636739618822, 0.0574999999987114,102.588859558105
0.00666386, 228.175501235309, 0.00476634174637924, 0.0649999999993156,104.201148986816
0.007331865, 228.177364962253, 0.00463367191026606, 0.0712499999995231,107.355369567871
0.007997675, 228.179745014723, 0.00517755959130934, 0.0774999999997306,103.167037963867
0.008663905, 228.181143375762, 0.00538550464646817, 0.0849999999985585,103.167037963867
0.00933066833333333, 228.18365678668, 0.00560825845778961, 0.0912499999987659,104.183044433594
0.009997195, 228.185578803542, 0.00553434667030283, 0.0962499999985766,108.281600952148
0.0106638816666667, 228.187605162225, 0.0063911216353811, 0.106249999999974,106.166053771973
0.0114971733333333, 228.189571309209, 0.00716359333498525, 0.112499999998406,103.87614440918
0.0121646633333333, 228.191958301259, 0.00744627963593213, 0.118749999998613,101.940612792969
0.0128305033333333, 228.195070271639, 0.00768723653293585, 0.12499999999882,101.940612792969
0.0134971566666667, 228.196819068207, 0.00814129222617691, 0.131249999999028,100.294143676758
0.0141640966666667, 228.200242323187, 0.00892500586105384, 0.138749999999632,104.438682556152
0.0149975266666667, 228.202165897714, 0.00886404292315081, 0.14624999999846,124.338333129883
0.01566404, 228.204493446462, 0.00925703368365067, 0.152499999998668,105.322563171387
0.0163306783333333, 228.205763639108, 0.0100367710182544, 0.159999999999272,101.136001586914
0.0169979783333333, 228.208170669057, 0.0103461259796821, 0.162499999998289,103.552093505859
0.0176654866666667, 228.209344274803, 0.0106490702631051, 0.162499999998289,103.552093505859
0.0183309666666667, 228.210859383119, 0.011032927982362, 0.163749999998686,99.363883972168
0.018997865, 228.211678872579, 0.0112259292880981, 0.166249999999479,104.582153320313
0.019663835, 228.21215892814, 0.0115982990843526, 0.168749999998496,106.04801940918
0.02033053, 228.212890329919, 0.0115713709369287, 0.17124999999929,106.04801940918
0.0209970533333333, 228.213275645667, 0.0120105308783706, 0.174999999998704,102.823318481445
0.0216646616666667, 228.213655827701, 0.0123526801925622, 0.179999999998515,106.89916229248
0.0223304566666667, 228.214146988863, 0.0125490188306694, 0.183749999999705,105.777732849121
0.0229978033333333, 228.21505480918, 0.0126831855916134, 0.188749999999516,104.586410522461
0.0236640716666667, 228.215945195733, 0.0130981847466017, 0.194999999999723,104.586410522461
0.0243304733333333, 228.216668808602, 0.0129484352683543, 0.203749999998948,107.694259643555
0.024997485, 228.217681052662, 0.0132685191908664, 0.211249999999552,101.140953063965
0.0256640583333333, 228.219634863666, 0.0133275157275367, 0.21874999999838,105.90894317627
0.0263306816666667, 228.221906430729, 0.0136992120576278, 0.227499999999381,104.989616394043
0.0269970966666667, 228.224595371615, 0.0142876460012174, 0.237499999999002,104.989616394043
0.027665225, 228.227901571171, 0.0149865133978162, 0.246250000000003,104.930206298828
0.0283303633333333, 228.230573766863, 0.015359058685247, 0.257500000000022,107.966613769531
0.0289979916666667, 228.234045607135, 0.0158140158332032, 0.268749999998263,106.374526977539
0.0296640966666667, 228.235894384106, 0.0164971880181896, 0.279999999998282,100.588821411133
0.0303319133333333, 228.238705686232, 0.0168114717320353, 0.292499999998697,100.588821411133
0.0309972666666667, 228.240912588446, 0.0168403572811667, 0.306249999999508,104.768341064453
0.0316643166666667, 228.243508755787, 0.0173505041570626, 0.318749999999923,134.234176635742
0.0323321283333333, 228.246142186863, 0.018090070509412, 0.333749999999355,111.09415435791
0.0329976866666667, 228.24996467906, 0.0184377110478003, 0.347499999998391,105.119743347168
0.0336639583333333, 228.253373886649, 0.0189924761825289, 0.363749999999996,105.119743347168
0.034330905, 228.257743758182, 0.0197659903297208, 0.378749999999428,107.917495727539
0.0349973, 228.262192747197, 0.0204599499728645, 0.394999999999257,107.475524902344
0.0356640983333333, 228.266828987126, 0.0210779699303669, 0.412499999999483,103.357711791992
0.0363305966666667, 228.271713294333, 0.0215819131178044, 0.429999999999708,102.565475463867
0.0369975483333333, 228.27642521313, 0.022534665262049, 0.446249999999537,102.565475463867
0.03766421, 228.281774824484, 0.0229583024831848, 0.46624999999878,103.613105773926
0.0383304683333333, 228.286664896323, 0.0240700226426533, 0.484999999999403,106.485893249512
0.0389974, 228.292031986492, 0.0248327463318178, 0.504999999998645,104.453498840332
0.0396641, 228.298106035887, 0.0257663654371226, 0.524999999999665,101.619514465332
0.0403305183333333, 228.304434781482, 0.0261005666505623, 0.546249999999304,101.619514465332
0.0409973583333333, 228.311006525472, 0.0272963815860554, 0.567499999998944,103.412155151367
0.04166521, 228.318276347539, 0.0279943355285225, 0.588749999998583,100.038627624512
0.04233059, 228.325784579969, 0.0289631353667206, 0.609999999999999,103.04850769043
0.0429979533333333, 228.333145774771, 0.0298705027906137, 0.632499999998259,103.30632019043
0.0436639716666667, 228.341818229309, 0.0312928483476708, 0.654999999998296,103.30632019043
0.0443305266666667, 228.351097298944, 0.0322682913521561, 0.678749999998729,105.651405334473
0.04499773, 228.360476156329, 0.0336955431627651, 0.703749999999559,99.4258193969727
0.0456646216666667, 228.370880348783, 0.0350306171034013, 0.727499999999992,102.923492431641
0.0463307216666667, 228.382242818163, 0.0369137320164974, 0.751249999998649,99.177848815918
0.046998005, 228.394052412648, 0.0381951536520261, 0.774999999999082,99.177848815918
0.0476639433333333, 228.406955253796, 0.0400341197826702, 0.801249999998532,110.788581848145
0.0483305066666667, 228.421037786665, 0.0419822789286719, 0.826249999999362,122.526901245117
0.04899807, 228.435329595601, 0.044216223219969, 0.851249999998416,106.387496948242
0.0496643883333333, 228.450445422292, 0.0461899125836169, 0.878749999998263,104.970825195313
0.050331055, 228.465884353751, 0.0484724964318157, 0.903749999999093,104.970825195313
0.0509972683333333, 228.481964984177, 0.0502833524743937, 0.929999999998543,101.298149108887
0.0516639783333333, 228.49808697055, 0.0520756979467442, 0.95624999999977,102.31852722168
0.052330475, 228.513972060274, 0.0536439366757277, 0.983749999999617,110.59383392334
0.0529978916666667, 228.53033551891, 0.055366502653045, 1.01124999999946,101.438873291016
0.0536641733333333, 228.546520252232, 0.0572096490737024, 1.0349999999999,101.438873291016
0.0543319866666667, 228.562220496536, 0.0592458012998692, 1.06624999999916,103.859405517578
0.0549974516666667, 228.579114115423, 0.0612019235459093, 1.0949999999994,108.166465759277
0.0556647333333333, 228.596254453036, 0.0635890401435371, 1.12499999999827,104.467140197754
0.0563309183333333, 228.613717560298, 0.0656270027787987, 1.15499999999891,102.156921386719
0.056997315, 228.631976674277, 0.0678044749066213, 1.18249999999875,102.156921386719
0.0576639316666667, 228.650111902442, 0.0701330569443588, 1.21374999999979,101.511657714844
0.058332415, 228.668300332457, 0.0722782071956895, 1.24374999999866,101.489814758301
0.0589972616666667, 228.686687489927, 0.074193412996898, 1.2737499999993,108.969047546387
0.0596641833333333, 228.705359128753, 0.0768847518137317, 1.30499999999856,102.322944641113
0.060330685, 228.723533837823, 0.0795769650866625, 1.33624999999959,102.322944641113
0.0609980633333333, 228.743092588408, 0.0825933540766001, 1.36624999999846,107.297073364258
0.061663765, 228.763393337336, 0.0855376701866668, 1.3974999999995,105.182029724121
0.0623320266666667, 228.782258342676, 0.0887369494901954, 1.42999999999915,100.990478515625
0.06299757, 228.800837169453, 0.0916887622237261, 1.45999999999979,101.544540405273
0.0636645516666667, 228.820899632783, 0.0948344492191657, 1.49124999999906,101.544540405273
0.0643304566666667, 228.840494845889, 0.097680514264267, 1.5212499999997,119.241188049316
0.0649972983333333, 228.859231560929, 0.100700899053474, 1.55124999999856,98.4917221069336
0.0656641433333333, 228.879170098485, 0.103649161465304, 1.58499999999862,102.23917388916
0.06633044, 228.899832401635, 0.106808163291946, 1.61499999999926,101.873359680176
0.0669973516666667, 228.919053082361, 0.110028732526089, 1.6449999999999,101.873359680176
0.0676640266666667, 228.938262076326, 0.113348647770224, 1.67499999999876,102.165939331055
0.0683305633333333, 228.958004446912, 0.116383059854873, 1.7049999999994,109.418334960938
0.0689974083333333, 228.978265502112, 0.11957584448463, 1.73624999999866,107.45051574707
0.0696638116666667, 228.997031911803, 0.122684868821568, 1.76499999999891,102.505912780762
0.070330515, 229.016676205452, 0.125739120409721, 1.79624999999994,102.505912780762
0.07099815, 229.036104767528, 0.128684358973445, 1.8287499999996,103.882049560547
0.0716640533333333, 229.055503556022, 0.13211092936038, 1.85999999999886,106.332954406738
0.0723310133333333, 229.074248419865, 0.135264616953947, 1.8912499999999,103.396003723145
0.0729978983333333, 229.093147837393, 0.138728091487233, 1.92249999999916,101.728485107422
0.073663955, 229.111897853737, 0.142041261570137, 1.95374999999842,101.728485107422
0.0743304366666667, 229.129975846547, 0.145446251041081, 1.98874999999887,105.563041687012
0.074997655, 229.147205853618, 0.148658122212142, 2.01749999999912,102.795745849609
0.0756641433333333, 229.165540170887, 0.151708181510844, 2.04999999999878,99.8626251220703
0.0763305216666667, 229.183275306781, 0.155033697473615, 2.08249999999843,106.336608886719
0.0769975516666667, 229.201014083402, 0.157973462812256, 2.11499999999987,106.336608886719
0.0776644516666667, 229.219644903773, 0.16117771736588, 2.14499999999873,101.518798828125
0.0783305083333333, 229.238373719175, 0.164286621708866, 2.17874999999879,103.727272033691
0.0789975833333333, 229.257160660404, 0.167417280959117, 2.21124999999844,106.899749755859
0.0796637416666667, 229.276419367562, 0.17032277751905, 2.2449999999985,100.001968383789
0.0803307566666667, 229.29494578501, 0.173619644920831, 2.27499999999914,100.001968383789
0.08099766, 229.313874427651, 0.176442726620347, 2.3062499999984,125.336647033691
0.0816638416666667, 229.332095919489, 0.179402442456898, 2.33999999999845,103.687423706055
0.082330725, 229.350764509053, 0.182830158786268, 2.37124999999949,103.954948425293
0.08299752, 229.369388709017, 0.185908745152084, 2.40249999999875,102.550651550293
0.08366378, 229.389610464147, 0.18887560212993, 2.43499999999841,102.550651550293
0.0843306366666667, 229.408905818067, 0.191703257099781, 2.46624999999945,107.261863708496
0.0849975383333333, 229.429812527566, 0.194452178024318, 2.49749999999871,100.688461303711
0.0856644716666667, 229.450231591612, 0.197274076283332, 2.52999999999837,100.263290405273
0.0863304416666667, 229.470866416254, 0.200145776540787, 2.5612499999994,104.962211608887
0.0869973, 229.489295183338, 0.203292568980661, 2.59374999999906,104.962211608887
0.0876640766666667, 229.508520801613, 0.206434689155232, 2.62499999999832,100.258880615234
0.08833064, 229.526673265236, 0.209845877814776, 2.65499999999896,100.858406066895
0.0889980133333333, 229.544836549808, 0.212844632190444, 2.68999999999942,106.228355407715
0.0896643383333333, 229.563433321637, 0.215790298232729, 2.72499999999987,106.355522155762
0.090330505, 229.583266160332, 0.21858564932516, 2.75749999999952,106.355522155762
0.0909972783333333, 229.603320806879, 0.221612113309014, 2.78999999999918,106.021072387695
0.0916639083333333, 229.623369508804, 0.225173723413045, 2.82374999999924,102.631950378418
0.0923304983333333, 229.643779265441, 0.228547529450289, 2.85624999999889,102.556282043457
0.0929973366666667, 229.664292402545, 0.231887254199376, 2.88999999999895,102.37378692627
0.0936641033333333, 229.684344133531, 0.235307461905887, 2.923749999999,102.37378692627
0.094330525, 229.703820605474, 0.238925680666555, 2.95749999999906,104.61311340332
0.0949977083333333, 229.72411341828, 0.241858571850466, 2.99124999999911,103.368804931641
0.0956639466666667, 229.74394110453, 0.245290558465335, 3.02499999999917,100.875434875488
0.0963306366666667, 229.764548537006, 0.248392041181077, 3.05999999999962,111.780120849609
0.0969978366666667, 229.785028276802, 0.251599766560387, 3.09249999999928,111.780120849609
0.0976643316666667, 229.805485472687, 0.25500783837649, 3.12624999999933,128.884628295898
0.0983318716666667, 229.826143543185, 0.258395212732203, 3.15874999999899,109.378067016602
0.098997425, 229.84687457536, 0.26131598602484, 3.19249999999904,103.850135803223
0.0996641, 229.866933477524, 0.264846487691455, 3.2249999999987,110.018714904785
0.10033098, 229.887099815547, 0.268531766583703, 3.25749999999836,110.018714904785
0.100997315, 229.907398522397, 0.272003717191259, 3.2887499999994,99.631462097168
0.101664213333333, 229.92801838983, 0.275356833267735, 3.32499999999847,100.426208496094
0.102330488333333, 229.948066824175, 0.279085104500529, 3.35624999999951,103.016448974609
0.102997926666667, 229.968828621237, 0.281999212127949, 3.38999999999956,99.6032867431641
0.10366424, 229.990135203655, 0.284864695197733, 3.42374999999961,99.6032867431641
0.104330435, 230.011049360783, 0.288152818038712, 3.45499999999888,105.399841308594
0.10499758, 230.031515154218, 0.291509208450692, 3.48624999999991,102.432624816895
0.105663995, 230.052510551743, 0.294918576201692, 3.51999999999997,107.306549072266
0.106331268333333, 230.073131192769, 0.298820138230301, 3.54999999999883,103.738906860352
0.106997468333333, 230.095227111674, 0.30261259123932, 3.58499999999928,103.738906860352
0.107663935, 230.117479545559, 0.30616416984722, 3.61874999999934,102.291236877441
0.108330518333333, 230.140315895093, 0.309774606998724, 3.65374999999979,103.420440673828
0.108997271666667, 230.163117783241, 0.312962468875761, 3.68624999999945,104.07243347168
0.109663968333333, 230.186056463333, 0.316542349562114, 3.7199999999995,99.2116317749023
0.110330588333333, 230.207274169013, 0.320236044531677, 3.75499999999995,99.2116317749023
0.1109974, 230.229173593167, 0.32383584571743, 3.78749999999961,108.682662963867
0.111664536666667, 230.250741797903, 0.327561213096112, 3.82124999999967,102.427352905273
0.112330426666667, 230.273005703771, 0.331519458777516, 3.85499999999972,104.651435852051
0.112997841666667, 230.294657314314, 0.335639517831247, 3.88874999999977,101.910614013672
0.113664655, 230.317031545361, 0.339515458146758, 3.92124999999943,101.910614013672
0.11433042, 230.338843504065, 0.343343607862814, 3.95374999999909,125.684463500977
0.114997276666667, 230.361085592784, 0.347037934300657, 3.98499999999835,106.601409912109
0.115664268333333, 230.382257018169, 0.350929229344983, 4.01749999999979,108.324928283691
0.116330971666667, 230.40380966799, 0.354555139719267, 4.05124999999984,100.444145202637
0.116997325, 230.425605926675, 0.358250811589533, 4.0824999999991,100.444145202637
0.117664415, 230.447823852807, 0.361795582039418, 4.11499999999876,100.721008300781
0.118330563333333, 230.469194978613, 0.36522377084504, 4.1462499999998,101.699798583984
0.11899754, 230.491956908622, 0.368737756841202, 4.17749999999906,104.97534942627
0.119663818333333, 230.513769051244, 0.372383526218027, 4.20874999999832,103.212776184082
0.120330595, 230.535310415687, 0.376232490388577, 4.23999999999936,103.212776184082
0.12099753, 230.556977727706, 0.379971829565476, 4.27124999999862,104.299743652344
0.121664068333333, 230.578043512049, 0.384411216579693, 4.30374999999827,105.782615661621
0.122330936666667, 230.598980755381, 0.388345032988196, 4.33374999999891,102.713485717773
0.122999075, 230.620257476514, 0.392639908261095, 4.36499999999995,106.486465454102
0.123663943333333, 230.641637049988, 0.396613181687688, 4.39499999999882,106.486465454102
0.124331168333333, 230.663297512421, 0.400638165016926, 4.42749999999847,102.057052612305
0.124997655, 230.685063855283, 0.404820203957433, 4.45749999999911,103.235992431641
0.125663973333333, 230.707438033521, 0.408865365773195, 4.48999999999877,101.538909912109
0.126330548333333, 230.729631191078, 0.412811708052516, 4.52499999999922,98.0863952636719
0.126997803333333, 230.752258491562, 0.41684175812728, 4.55374999999947,98.0863952636719
0.127664815, 230.773981340713, 0.421222321096175, 4.58374999999833,108.217414855957
0.128330428333333, 230.796645614851, 0.425151264249463, 4.61499999999937,99.8856506347656
0.128997313333333, 230.818507845891, 0.429934844975152, 4.64500000000001,103.728713989258
0.129663921666667, 230.840393485408, 0.434369094747394, 4.67499999999887,105.245819091797
0.130330995, 230.861289735802, 0.438891904571417, 4.70374999999912,105.245819091797
0.130997605, 230.883344302263, 0.442905123991583, 4.73374999999976,122.083717346191
0.131664335, 230.904888498457, 0.446879811847123, 4.76499999999902,103.840942382813
0.132330523333333, 230.925997157347, 0.450388992084647, 4.79374999999926,105.048767089844
0.132997318333333, 230.947202239855, 0.454150321656985, 4.8237499999999,102.034622192383
0.133663948333333, 230.968875191581, 0.457649909876313, 4.85374999999877,102.034622192383
0.134330558333333, 230.989804887115, 0.461493966293365, 4.88374999999941,101.374252319336
0.13499747, 231.011552923284, 0.465625306280445, 4.91124999999926,103.866485595703
0.135664025, 231.033714941452, 0.469733800915051, 4.9399999999995,108.877738952637
0.136330406666667, 231.05648350761, 0.473517629357306, 4.96749999999935,106.775688171387
0.136997506666667, 231.079141791709, 0.477570920764715, 4.99624999999959,106.775688171387
0.137663885, 231.102150627961, 0.481820409817317, 5.02499999999984,101.939514160156
0.138330505, 231.124285383414, 0.486075955565679, 5.04999999999889,103.018829345703
0.138997178333333, 231.145654730244, 0.490055659169337, 5.07874999999913,103.176734924316
0.139663943333333, 231.166494499607, 0.494071605452515, 5.10624999999898,105.629981994629
0.140330808333333, 231.187203550798, 0.497979633656311, 5.13124999999981,105.629981994629
0.140997283333333, 231.206012126751, 0.501857375381371, 5.16124999999867,102.987266540527
0.141664485, 231.225968005741, 0.505499913920436, 5.18999999999892,107.933410644531
0.14233071, 231.246500882841, 0.509383821835802, 5.21749999999876,105.952430725098
0.14299739, 231.267020711918, 0.513597977163179, 5.24499999999861,108.086471557617
0.143663951666667, 231.287337951429, 0.517505223906234, 5.26999999999944,108.086471557617
0.144330495, 231.309500574291, 0.521630708187466, 5.29999999999831,109.603622436523
0.144997668333333, 231.331016331297, 0.525749846287444, 5.32624999999953,103.833824157715
0.145664166666667, 231.351342272009, 0.530202635128477, 5.35374999999938,101.447067260742
0.146330476666667, 231.371843202048, 0.53391797851065, 5.37999999999883,128.799896240234
0.146997601666667, 231.392943534106, 0.537798345103905, 5.40624999999828,128.799896240234
0.147664613333333, 231.413345841927, 0.541637202782082, 5.4337499999999,108.772766113281
