Time (min), Depth (µm), Load (N), Position (µm), Acoustic (aJ)
8.36666666666667E-06, 227.004538488527, 4.29824072633936E-05, 0,590.288391113281
0.000665686666666667, 227.004734876992, 0.000504947203264348, 0.00624999999999999,590.288391113281
0.001332175, 227.005651914526, 0.000765407620620527, 0.01875,584.890319824219
0.00199879666666667, 227.008872165677, 0.0002891005450314, 0.03375,588.93310546875
0.00266545666666667, 227.013506564142, -5.24592987847067E-05, 0.05,593.931579589844
0.003332095, 227.018085239235, -0.000256699540008615, 0.0625,604.136779785156
0.00399929333333333, 227.023758090887, -0.000542802669341234, 0.07625,604.136779785156
0.00466563833333333, 227.029719826423, -0.00082669190987207, 0.09,606.729736328125
0.00533219, 227.036268999455, -0.000618692857434721, 0.10375,596.691589355469
0.00599884333333333, 227.042798959041, -0.000474484100889384, 0.1175,607.962280273438
0.00666542833333333, 227.051320532037, -0.000534815570512369, 0.13,601.562194824219
0.00733237, 227.060460298963, -0.000762651126583459, 0.14375,601.562194824219
0.00799882, 227.070493152913, -0.000678736341508518, 0.1575,603.343994140625
0.00866544666666667, 227.079952591179, -0.000872259621064551, 0.17,596.469299316406
0.00933212166666667, 227.090372497587, -0.00103474795943674, 0.18375,602.468627929688
0.00999879, 227.100073764302, -0.000951233654283743, 0.1975,724.309020996094
0.0106654583333333, 227.110164439298, -0.000633231627162228, 0.2125,724.309020996094
0.0114987866666667, 227.120372720834, -0.000736172956565626, 0.2275,600.022216796875
0.0121654566666667, 227.130731784952, -0.0004622912133324, 0.24,602.881774902344
0.0128321416666667, 227.14086300211, -0.000506697982845472, 0.2525,606.483154296875
0.0134988016666667, 227.151703489252, -0.000545768020396573, 0.26625,609.267639160156
0.01416545, 227.162123904752, -0.000541943212551897, 0.28,605.703857421875
0.0148327266666667, 227.172461636061, -0.000364196140589854, 0.2925,605.703857421875
0.0154988416666667, 227.183109014859, -0.000727426895882443, 0.30625,598.548095703125
0.0161657816666667, 227.193690759749, -0.000811530671453448, 0.31875,607.782104492188
0.0168321583333333, 227.203926074675, -0.000653993584386574, 0.3325,603.210021972656
0.01749879, 227.21376517032, -0.000730062263484049, 0.34625,603.210021972656
0.0183321316666667, 227.229285567127, -0.0006547555460897, 0.3625,609.156433105469
0.0190010616666667, 227.238393739522, -0.000817248384235102, 0.37375,609.156433105469
0.01966547, 227.247474423451, -0.000885431959426896, 0.38875,613.632873535156
0.0203322033333333, 227.257046277051, -0.00106236907208365, 0.4025,633.357482910156
0.02099885, 227.267216228917, -0.00141025859796547, 0.41625,631.587585449219
0.02166544, 227.277036487757, -0.00170914408523057, 0.42875,632.918151855469
0.0223321633333333, 227.288538637179, -0.00170327937979363, 0.4425,632.918151855469
0.022998835, 227.300592747145, -0.00182748664099962, 0.455,634.94775390625
0.023665525, 227.312720022206, -0.002011192913636, 0.46875,640.013793945313
0.024332335, 227.324356098623, -0.0016308165195142, 0.4825,644.280334472656
0.0249988033333333, 227.336376201045, -0.00128443891770717, 0.495,646.160766601563
0.0256655016666667, 227.347853671754, -0.00112028416300415, 0.50875,646.160766601563
0.026332145, 227.359445376878, -0.00080676991052609, 0.5225,641.722412109375
0.0269987983333333, 227.3709020284, -0.000628383870683243, 0.535,765.030090332031
0.0276657083333333, 227.382733034534, -0.00059421858678096, 0.55125,640.306884765625
0.0284988983333333, 227.394448093036, -0.00078558047486807, 0.565,643.212829589844
0.029165705, 227.40626977334, -0.000679546300898819, 0.57875,643.753784179688
0.029832165, 227.418002860555, -0.000661574203638393, 0.5925,643.753784179688
0.0304987816666667, 227.430124514362, -0.000956396395014937, 0.60625,634.465393066406
0.0311655016666667, 227.441632456305, -0.0011622910531532, 0.61875,638.968444824219
0.0318336783333333, 227.453825810276, -0.000899078274028195, 0.6325,640.315002441406
0.0324988266666667, 227.466197106047, -0.00109700533233358, 0.64625,638.308776855469
0.0331654583333333, 227.477933403555, -0.000734083561489314, 0.65875,638.308776855469
0.0338321366666667, 227.489896771892, -0.000838824800474179, 0.6725,633.245971679688
0.034499035, 227.502098543893, -0.000751215700977645, 0.68625,641.914978027344
0.0351656483333333, 227.512926822712, -0.00095055868821726, 0.7,635.793334960938
0.03583222, 227.524015076162, -0.000851887644355085, 0.7125,647.941955566406
0.0364989233333333, 227.535373602273, -0.00114583987945021, 0.72625,647.941955566406
0.0371654666666667, 227.546318816272, -0.000712009170305847, 0.73875,639.270874023438
0.03783215, 227.557013161967, -0.000759105304720297, 0.7525,635.306640625
0.0384988766666667, 227.568048899497, -0.00069247415151967, 0.7675,636.549133300781
0.039165465, 227.578887516947, -0.000851142181777887, 0.77875,635.998718261719
0.039832125, 227.589450143964, -0.00105473745542338, 0.7925,635.998718261719
0.04049878, 227.600180418105, -0.00107644136527924, 0.80625,635.184997558594
0.0411654616666667, 227.610728827488, -0.000765896963587224, 0.82,647.164916992188
0.0418323066666667, 227.621308562142, -0.000706348454630264, 0.83375,640.717407226563
0.04249879, 227.631396134286, -0.000462802687702689, 0.84625,643.929138183594
0.0431654283333333, 227.642229917332, -0.000254823134240074, 0.85875,643.929138183594
0.0438321233333333, 227.652405166661, -0.000517252952677796, 0.8725,768.604553222656
0.044498785, 227.662894545994, -0.000828178335232002, 0.88625,642.02392578125
0.0451657116666667, 227.673111375207, -0.000777974356922649, 0.89875,638.796447753906
0.0458321533333333, 227.683646036421, -0.000898059825145841, 0.9125,636.629943847656
0.0464987933333333, 227.694028637556, -0.00121981466374068, 0.925,636.629943847656
0.0471654933333333, 227.704277229891, -0.000881382162857969, 0.93875,635.611145019531
0.0478321116666667, 227.714672955708, -0.000827839352253103, 0.9525,637.658508300781
0.048499205, 227.724810312042, -0.000855203977720787, 0.96625,637.757934570313
0.0491655683333333, 227.734510540635, -0.000770519731341958, 0.97875,629.329467773438
0.0498321916666667, 227.743172648268, -0.000666042479158338, 0.99125,629.329467773438
0.0504988433333333, 227.752346742243, -0.0007671808990677, 1.005,631.282836914063
0.05116545, 227.760592149581, -0.000809963250175741, 1.01875,631.577880859375
0.0518324216666667, 227.769180339757, -0.000672933133078388, 1.03125,636.492736816406
0.0524987866666667, 227.777760823664, -0.000900612696969031, 1.04375,636.36865234375
0.0531654883333333, 227.786670030377, -0.000956526888459274, 1.0575,636.36865234375
0.0538321366666667, 227.795522603255, -0.00127661081099258, 1.07125,628.300903320313
0.0544987683333333, 227.80430631446, -0.0013145799038404, 1.08375,633.822570800781
0.0551655066666667, 227.813420583032, -0.00167620273991765, 1.0975,634.024047851563
0.0558321266666667, 227.822302817898, -0.00157100102409847, 1.11,635.813232421875
0.0564988516666667, 227.83092774116, -0.00147433687942792, 1.12375,635.813232421875
0.0571655, 227.839142829687, -0.0014228564652176, 1.1375,643.014343261719
0.0578321733333333, 227.847849332369, -0.00123074911457455, 1.15,646.020629882813
0.0584989783333333, 227.855925760623, -0.0010870143342044, 1.16375,638.783813476563
0.05916544, 227.864621027716, -0.000812943600496366, 1.17625,642.307556152344
0.05983214, 227.873307851781, -0.000807029397554124, 1.19,642.307556152344
0.0604990533333333, 227.882459687738, -0.000613449120892022, 1.2025,773.858215332031
0.0611654533333333, 227.892197624581, -0.000677998378638353, 1.215,634.864074707031
0.06183221, 227.902125126245, -0.000356509026726658, 1.22875,640.989318847656
0.0624987933333333, 227.911986212074, -0.000448557903200728, 1.2425,638.704956054688
0.0631654583333333, 227.922196352269, -0.000472888181111777, 1.25625,638.704956054688
0.0638321816666667, 227.931583352444, -0.000564184095429141, 1.27,642.70703125
0.064498805, 227.940467901411, -0.000663939584826159, 1.28375,639.269165039063
0.0651654783333333, 227.949052620971, -0.000934840977717505, 1.29625,643.734741210938
0.065832265, 227.957441246031, -0.00117806876065034, 1.31,644.387634277344
0.066498815, 227.965632367246, -0.000978622278626895, 1.32375,644.387634277344
0.0671657166666667, 227.973850154703, -0.00107879474709303, 1.33625,636.971313476563
0.0678321316666667, 227.982096370877, -0.000742258150974856, 1.35,639.823486328125
0.0684987883333333, 227.990224892146, -0.000497417949053475, 1.36375,637.36279296875
0.0691654883333333, 227.99905679712, -0.000327182499778194, 1.37625,634.682678222656
0.06983227, 228.00801848385, -0.000265057120271355, 1.39,634.682678222656
0.0704987933333333, 228.018170208402, -4.8799482666897E-05, 1.40375,634.587585449219
0.0711654416666667, 228.027961015691, -0.000233983181053029, 1.41625,639.781372070313
0.0718321316666667, 228.038325987176, -0.000401778252877874, 1.43125,637.475891113281
0.0724988683333333, 228.048066580701, -0.000410419318831575, 1.44375,642.511047363281
0.0731654583333333, 228.057978712302, -0.000621683707247423, 1.45625,642.511047363281
0.0738321316666667, 228.067341420754, -0.000904941479498218, 1.47,640.593566894531
0.0744988016666667, 228.076540740684, -0.000996457882745369, 1.48375,637.366455078125
0.0751657183333333, 228.085908559402, -0.000959483239968194, 1.4975,634.375183105469
0.0758322266666667, 228.095351256678, -0.00115784077666233, 1.51,644.204895019531
0.0764987983333333, 228.103964858179, -0.000680458255084778, 1.52375,644.204895019531
0.0771654533333333, 228.112817142992, -0.000471809735253293, 1.5375,769.606628417969
0.0778321566666667, 228.12196668062, -0.000432375216029693, 1.55125,634.6328125
0.078499115, 228.130765583592, -0.000530678778349307, 1.56375,637.1181640625
0.0791657383333333, 228.13902127742, -7.73040508935972E-05, 1.5775,640.528747558594
0.0798321883333333, 228.147766963498, -0.000498602889480827, 1.59125,640.528747558594
0.08049909, 228.155743304753, -0.000499793829669555, 1.605,640.002380371094
0.081165485, 228.163518806502, -0.000307722477212179, 1.61875,642.313598632813
0.081832225, 228.170737669703, -0.000312258249372778, 1.63125,641.471740722656
0.0824988966666667, 228.178656831291, -0.000825404974542788, 1.64375,636.170104980469
0.0831657333333333, 228.18587823291, -0.000733870572202797, 1.6575,636.170104980469
0.083832145, 228.194078046606, -0.000625061537577421, 1.67125,641.411743164063
0.0844987883333333, 228.202079933918, -0.00077576196804527, 1.68375,646.06591796875
0.0851657033333333, 228.210268689757, -0.000691731688812533, 1.6975,642.766845703125
0.0858323183333333, 228.218389941835, -0.000699958775588426, 1.71,638.593078613281
0.0864988366666667, 228.227358579929, -0.000705970473616881, 1.72375,638.593078613281
0.0871657283333333, 228.235332351707, -0.0011226840424957, 1.7375,642.296142578125
0.087832135, 228.243705651933, -0.00105350751717891, 1.75125,645.275939941406
0.08849878, 228.252354010981, -0.00137847519437688, 1.76375,645.406372070313
0.0891655383333333, 228.261389836594, -0.00127409693718262, 1.7775,648.777221679688
0.089832155, 228.270491297923, -0.00141988361447648, 1.79,648.777221679688
0.0904987883333333, 228.279283435592, -0.00138844369366126, 1.80375,643.656066894531
0.091166035, 228.28788237475, -0.00138850519056179, 1.8175,644.085998535156
0.091832155, 228.29635430515, -0.00125692729960546, 1.83,645.436950683594
0.092498795, 228.304598207603, -0.00125749577103931, 1.8425,764.497192382813
0.0931655066666667, 228.312742247998, -0.00131652830589528, 1.85625,764.497192382813
0.0938321633333333, 228.321084391176, -0.00115405496678837, 1.87,639.919311523438
0.0944988616666667, 228.329497781251, -0.00117550088956186, 1.88375,636.855346679688
0.09516563, 228.338227371242, -0.00118750628652593, 1.89625,636.230041503906
0.0958321683333333, 228.346229492047, -0.00120269452362632, 1.90875,638.015686035156
0.0964987933333333, 228.353642416013, -0.000729520790646948, 1.9225,638.015686035156
0.09716547, 228.361655827759, -0.000672019678883008, 1.93625,636.506042480469
0.0978321416666667, 228.369713633265, -0.000769396287772631, 1.94875,638.518249511719
0.0984987983333333, 228.377389132949, -0.000701895178269336, 1.9625,635.823913574219
0.099165485, 228.385323109718, -0.000753045609025922, 1.975,638.09521484375
0.0998321816666667, 228.393485180776, -0.00124020763937053, 1.9875,638.09521484375
0.100498846666667, 228.401495310977, -0.00114074763514472, 2.0025,635.976501464844
0.101165455, 228.409079555193, -0.00115389897456542, 2.015,635.150817871094
0.101832185, 228.41744365494, -0.00131634381510866, 2.0275,638.140441894531
0.102498791666667, 228.425407793415, -0.00130943816196583, 2.0425,641.972900390625
0.103165545, 228.43348175109, -0.00123722878897431, 2.05375,641.972900390625
0.103832113333333, 228.441615165415, -0.00116366348408845, 2.0675,640.22802734375
0.104498795, 228.450257772102, -0.00106885324632039, 2.0825,627.605712890625
0.105165465, 228.458099731172, -0.00102891025261781, 2.095,629.191223144531
0.105832123333333, 228.466734572438, -0.000996447383210784, 2.1075,624.571472167969
0.106499325, 228.475001815393, -0.00095006821280987, 2.12125,624.571472167969
0.107165625, 228.483437865762, -0.0011005346550283, 2.135,631.17529296875
0.107833691666667, 228.49175284894, -0.0010140489991011, 2.1475,630.202392578125
0.108500583333333, 228.500166618056, -0.00097479597073029, 2.1625,630.828186035156
0.109167578333333, 228.508323589301, -0.000933653037271314, 2.17375,758.0771484375
0.109832305, 228.51698744854, -0.000662754644186265, 2.1875,758.0771484375
0.11049878, 228.525568488255, -0.000839465268194369, 2.2025,631.605529785156
0.111165561666667, 228.534038139514, -0.00110761729920821, 2.215,630.823425292969
0.111832121666667, 228.542577608297, -0.0010265253723703, 2.22875,630.922607421875
0.112498778333333, 228.550965007661, -0.000899955729846608, 2.24125,626.277099609375
0.113165928333333, 228.559236311038, -0.00100850677743212, 2.255,626.277099609375
0.113832138333333, 228.567396270468, -0.000858985287800277, 2.26875,628.36865234375
0.114498973333333, 228.575392291087, -0.000913221063606972, 2.2825,630.087768554688
0.115165543333333, 228.58390955869, -0.00111599737837951, 2.295,632.457946777344
0.115832146666667, 228.592135943547, -0.00130058260686498, 2.30875,635.54150390625
0.116498798333333, 228.6005365272, -0.00112930321003499, 2.32125,635.54150390625
0.11716564, 228.608800011763, -0.00133574084087099, 2.335,628.398071289063
0.117832148333333, 228.61730132285, -0.00119943818721549, 2.34875,630.330017089844
0.118498781666667, 228.624868138557, -0.0012264488304815, 2.3625,625.949584960938
0.119165625, 228.632804363689, -0.000771893662329137, 2.375,625.37158203125
0.119832238333333, 228.640603863347, -0.00106045066838931, 2.38875,625.37158203125
0.12049904, 228.649098186455, -0.000790866209336568, 2.40125,626.197265625
0.121165793333333, 228.656473844274, -0.000569000353431896, 2.415,623.171081542969
0.12183213, 228.664429285937, -0.000489921325461968, 2.42875,632.188781738281
0.122498813333333, 228.671875223551, -0.000642655653803209, 2.4425,621.08984375
0.123165518333333, 228.679031436151, -0.000455426058127205, 2.45625,621.08984375
0.12383221, 228.686013679608, -0.00042572754986297, 2.46875,619.73828125
0.124498793333333, 228.693859795069, -0.000529555334694964, 2.4825,620.905700683594
0.125165486666667, 228.701169185893, -0.000110195898701212, 2.49625,617.302978515625
0.12583216, 228.709053391896, -0.000176407072962656, 2.50875,739.33935546875
0.126499038333333, 228.717093115029, -0.000292216255989521, 2.5225,739.33935546875
0.127165565, 228.724692848662, -0.000197431516915064, 2.535,614.905517578125
0.12783218, 228.732445736788, 6.2380932992637E-05, 2.54875,608.5302734375
0.128498788333333, 228.74094307949, -0.00012145733303374, 2.56125,615.417663574219
0.129165695, 228.749147869109, -0.000179847900160099, 2.575,610.263854980469
0.129832128333333, 228.75745917058, -3.48606827219466E-05, 2.5875,610.263854980469
0.13049888, 228.76591415545, -6.70985634472326E-05, 2.60125,611.850219726563
0.13116549, 228.775256490209, -9.38167214333495E-05, 2.61375,614.926391601563
0.131833031666667, 228.784940929488, -0.000305385594524313, 2.6275,613.139343261719
0.132498791666667, 228.79564546613, -0.000299558387218714, 2.64125,616.263305664063
0.133165488333333, 228.806976068124, -0.000485660039552181, 2.65375,616.263305664063
0.13383221, 228.818923330945, -0.000807746361482644, 2.6675,612.602355957031
0.13449878, 228.830040116474, -0.000635675004461471, 2.68125,608.021362304688
0.135165483333333, 228.84182694474, -0.000191826298506163, 2.69375,607.245178222656
0.135832141666667, 228.853396028003, -2.12782687982319E-06, 2.7075,609.221923828125
0.136498855, 228.865548980171, 0.000236817671137812, 2.72,609.221923828125
0.137165613333333, 228.877099863701, 0.000572739298144384, 2.7325,608.537841796875
0.13783214, 228.88990155561, 1.38178721929894E-05, 2.7475,612.591003417969
0.138498896666667, 228.90225820059, -0.000351115297594854, 2.76,610.817565917969
0.139165586666667, 228.914535730291, -0.000402672207970994, 2.7725,613.785278320313
0.139832113333333, 228.926818992541, -0.000326041057052265, 2.78625,613.785278320313
0.14049896, 228.939795243798, -0.000570593273466967, 2.79875,605.003234863281
0.14116578, 228.951803971748, -0.000211847292862758, 2.8125,616.78955078125
0.141832165, 228.963582949272, 8.12565812619159E-06, 2.82625,606.220703125
0.142498803333333, 228.975580690178, -0.00018692604465181, 2.83875,736.466918945313
0.143165741666667, 228.987191540651, -0.000530296297520206, 2.85125,736.466918945313
0.143832193333333, 228.998731100043, -0.000585871506052805, 2.865,618.158569335938
0.144498788333333, 229.010246944439, -0.00089335006173321, 2.8775,617.34228515625
0.145165513333333, 229.021840425447, -0.000879295767651717, 2.89125,617.676574707031
0.145832105, 229.033149245929, -0.000530246800036153, 2.90375,624.137451171875
0.146498788333333, 229.044151137269, -0.000618040390234287, 2.9175,624.137451171875
0.147165615, 229.05510426559, -0.00044114827533088, 2.93125,620.863220214844
0.1478321, 229.066055596962, -0.000212798245125711, 2.945,613.890625
0.148498873333333, 229.077029847162, -0.000284046166425967, 2.9575,612.839721679688
0.149165538333333, 229.088702713769, -0.000488986872431213, 2.97125,617.181884765625
0.149832116666667, 229.100439432901, -0.000113875213900026, 2.985,617.181884765625
0.150498941666667, 229.112913309151, -0.000216956036272927, 2.99875,613.29541015625
0.151165463333333, 229.126239483443, -0.000385225084294217, 3.0125,604.876098632813
0.15183213, 229.139193595199, -0.000570771764492209, 3.025,607.966064453125
0.152498803333333, 229.15180306987, -0.000592939151031186, 3.03875,608.153442382813
0.153165546666667, 229.164361434008, -0.000724232056308389, 3.0525,608.153442382813
0.153833716666667, 229.176475522475, -0.000457821437845544, 3.065,605.146545410156
0.154498831666667, 229.187881852906, -9.79310147516168E-05, 3.07875,609.133239746094
0.155165766666667, 229.199926214672, 8.98055554364505E-05, 3.0925,608.379821777344
0.15583214, 229.212011783033, 5.74416810400368E-05, 3.105,608.353454589844
0.15649878, 229.22484399158, -3.99739258415623E-05, 3.11875,608.353454589844
0.157165481666667, 229.237011080757, -0.000269277908137237, 3.1325,610.011108398438
0.157832305, 229.24959360412, -0.000410884295417839, 3.14625,604.515197753906
0.158498818333333, 229.261836922842, -0.000451542753167039, 3.16,611.116088867188
0.159165731666667, 229.273955396495, -0.000432652702001787, 3.17125,726.398803710938
0.159832166666667, 229.285835133272, -0.000217148026617798, 3.185,726.398803710938
0.160498793333333, 229.298213520217, -0.000355721566223661, 3.19875,609.485534667969
