Time (min), Depth (µm), Load (N), Position (µm), Acoustic (aJ)
9.12666666666667E-06, 226.995729067971, 2.01435360825599E-05, 0,614.627746582031
0.000665188333333333, 226.99550819752, 9.42878118943516E-05, 0.00624999999999999,613.103942871094
0.00133387166666667, 226.996357364683, 0.0001884815806264, 0.01875,613.103942871094
0.00199816833333333, 226.997834903962, 6.86705986115128E-05, 0.03375,624.198669433594
0.00266484333333333, 227.000658213824, 0.000445853653083665, 0.05,757.666870117188
0.00333153666666667, 227.004445551081, 0.000661340329438577, 0.0625,637.171691894531
0.00399815833333333, 227.01062200139, 0.00063224329096632, 0.07625,641.4404296875
0.00466581333333333, 227.016798012549, 0.000510932384293125, 0.09,641.4404296875
0.00533222833333333, 227.024122547237, 0.000574826174990217, 0.10375,642.963256835938
0.005998185, 227.0319932801, 5.55282587797415E-05, 0.1175,647.994079589844
0.00666499666666667, 227.039921555082, 0.000160575482385379, 0.13,648.416381835938
0.00733182, 227.048201430877, 0.000187299640069109, 0.14375,640.802612304688
0.00799834, 227.057697316398, 0.000209792510267355, 0.1575,640.802612304688
0.008664875, 227.067463951737, 0.000329691987864543, 0.17,645.442504882813
0.00933155833333333, 227.07824308412, 0.000230489970678598, 0.18375,645.797973632813
0.00999817333333333, 227.08902958289, 8.02695160835532E-05, 0.19625,640.500427246094
0.01066496, 227.099888684585, 9.98990301071358E-05, 0.21,642.136962890625
0.011331685, 227.11640109752, -0.00027654306162479, 0.2275,642.136962890625
0.01216492, 227.127197990444, 8.40373268009056E-05, 0.24,635.905395507813
0.012831555, 227.137609162566, 0.000603594729996907, 0.2525,641.531311035156
0.013498185, 227.149170196035, 0.000688365971991124, 0.26625,642.179931640625
0.0141648683333333, 227.160308854738, 0.000481541360574067, 0.27875,635.029296875
0.01483155, 227.171657308401, 0.000477496063799603, 0.2925,645.031433105469
0.0154988616666667, 227.182863519499, 0.000165028758703799, 0.30625,645.031433105469
0.0161648816666667, 227.194258146723, -0.000397229999661213, 0.31875,639.88037109375
0.01683152, 227.205466606345, -0.000744491057090537, 0.3325,649.38134765625
0.01749817, 227.216300571983, -0.000517466960291642, 0.345,646.608703613281
0.0181649416666667, 227.22681557219, -0.000176330095221017, 0.35875,650.110473632813
0.01883171, 227.23740186071, -0.000206934557994852, 0.37125,650.110473632813
0.0194982, 227.246762953953, -4.432772553104E-05, 0.385,789.209533691406
0.0201652266666667, 227.255358994779, 5.65512074140503E-05, 0.3975,681.508850097656
0.02083155, 227.265204427714, -0.000339506899000575, 0.41125,680.488525390625
0.02149819, 227.274687707249, -0.000479433370673226, 0.425,684.948303222656
0.0221651933333333, 227.284690233561, -0.000242077792820601, 0.43875,684.948303222656
0.022831545, 227.295901867572, -0.000164179205568578, 0.45125,688.694213867188
0.0234982716666667, 227.308069137888, -0.000460525320415134, 0.465,695.763244628906
0.02416488, 227.319438687851, -1.69496007437274E-05, 0.4775,693.220703125
0.02483151, 227.331692512602, -0.000107128071168124, 0.49125,693.803955078125
0.0254982933333333, 227.343635042199, -0.000512059731882718, 0.505,693.803955078125
0.0261651016666667, 227.355903027914, -0.000822079159948578, 0.51875,698.734558105469
0.0268315183333333, 227.367334451722, -0.000557814933668114, 0.53125,696.615844726563
0.0274981733333333, 227.379338784367, -0.000941638154599956, 0.545,690.729858398438
0.0281648883333333, 227.390855675934, -0.00108087016110386, 0.55875,689.6533203125
0.0288321516666667, 227.402316577526, -0.000658974352476613, 0.57125,689.6533203125
0.0294982716666667, 227.413910399197, -0.000794627538759235, 0.585,693.560241699219
0.0301648533333333, 227.425770982872, -0.000928533312835757, 0.59875,691.618774414063
0.0308315033333333, 227.437190985427, -0.00091770685666519, 0.61125,688.672485351563
0.0314981766666667, 227.448361276333, -0.000886452926518474, 0.625,686.153991699219
0.03216505, 227.45953080035, -0.000925149482808147, 0.63875,686.153991699219
0.0328320783333333, 227.47056953597, -0.00079782237829078, 0.6525,690.767456054688
0.033498205, 227.481726858882, -0.000720739750062908, 0.66625,554.841003417969
0.0341648466666667, 227.492541537403, -0.000593933119398489, 0.67875,690.546569824219
0.0348315333333333, 227.503853758149, -0.000349440899981171, 0.6925,687.161376953125
0.0354987016666667, 227.514798837014, -0.000663183141032286, 0.70625,687.161376953125
0.03616552, 227.525486637858, -0.000324273664104326, 0.71875,831.086486816406
0.036832575, 227.536358114461, -0.000448372930710767, 0.7325,695.455261230469
0.0374982333333333, 227.54731421643, -0.000284267673534306, 0.745,698.129699707031
0.038165465, 227.557912249436, -0.000570108316053846, 0.75875,690.872009277344
0.0388327566666667, 227.568708075969, -0.000415409086425526, 0.7725,690.872009277344
0.0394982816666667, 227.579167828246, -0.00082455853528472, 0.78625,696.429138183594
0.0401648716666667, 227.589182364438, -0.000556315008861028, 0.79875,693.375244140625
0.040832125, 227.59946544422, -0.000893256584631848, 0.8125,691.678466796875
0.0414982183333333, 227.609513342186, -0.000664870556219746, 0.825,696.808715820313
0.042164905, 227.619901034912, -0.000693699108202566, 0.83875,696.808715820313
0.0428318766666667, 227.630144508136, -0.000598458392045757, 0.8525,693.280090332031
0.0434982183333333, 227.640195188177, -0.00089029723331663, 0.86625,692.263366699219
0.044165135, 227.649917602663, -0.000767486401985129, 0.87875,689.08935546875
0.0448315666666667, 227.659659436965, -0.000810327250123643, 0.8925,695.978149414063
0.0454983083333333, 227.669548254294, -0.000954021532513645, 0.905,695.978149414063
0.046165285, 227.679523262064, -0.000924474516635394, 0.91875,687.101318359375
0.0468315266666667, 227.689394708818, -0.000820171255682551, 0.9325,689.17333984375
0.04749818, 227.699120902964, -0.000657448929039689, 0.945,686.137817382813
0.0481648516666667, 227.708986485742, -0.000494302123726942, 0.95875,680.879455566406
0.0488315433333333, 227.717777294119, -0.000319746891468893, 0.97125,680.879455566406
0.0494989816666667, 227.727127293262, -0.000283919690987733, 0.985,691.346496582031
0.0501648566666667, 227.736510677358, -0.000359520393671392, 0.99875,689.686218261719
0.05083169, 227.745702476839, -0.000627111452852142, 1.01125,685.782958984375
0.0514982533333333, 227.754356132657, -0.000541522751866862, 1.025,682.760620117188
0.0521648466666667, 227.763620375717, -0.00062183171799624, 1.0375,682.760620117188
0.052831675, 227.772294667149, -0.000568036920049119, 1.05125,821.742614746094
0.053498325, 227.780909758074, -0.000365007118009927, 1.06375,680.606811523438
0.0541648416666667, 227.789085744087, -0.000141323353409694, 1.0775,697.15576171875
0.0548315766666667, 227.797917933765, -0.000306007581512084, 1.09,687.495727539063
0.05549818, 227.806659354623, -0.000429650871036172, 1.10375,687.495727539063
0.0561650683333333, 227.815236525576, -0.000415937059815473, 1.11625,687.690307617188
0.0568315366666667, 227.824069578102, -0.000570435299531248, 1.13,693.196716308594
0.0574982816666667, 227.833190995678, -0.000519116877177734, 1.1425,692.91162109375
0.0581648533333333, 227.842066938126, -0.00054750445130098, 1.15625,697.161254882813
0.0588315083333333, 227.850824505861, -0.000171144855453741, 1.16875,697.161254882813
0.0594988983333333, 227.859881187093, -0.000180304895399748, 1.1825,695.1806640625
0.0601649133333333, 227.868627701972, -0.000156574587356274, 1.19625,704.24462890625
0.0608315166666667, 227.87788201693, -0.000591005266389469, 1.20875,695.445739746094
0.0614985166666667, 227.888615847776, -0.000978765789602501, 1.22125,689.0576171875
0.0621649116666667, 227.898878415997, -0.00118478644139063, 1.23625,689.0576171875
0.0628315433333333, 227.908737679376, -0.00111832477966883, 1.24875,691.429931640625
0.0634983283333333, 227.918783626408, -0.00124607486293168, 1.26375,688.641906738281
0.0641648583333333, 227.92894702637, -0.000865515478032676, 1.27625,685.684265136719
0.0648317616666667, 227.93716149052, -0.000330412855643295, 1.29,677.2978515625
0.0654982583333333, 227.94607930633, -0.000156519090174607, 1.3025,677.2978515625
0.066165025, 227.954978238379, -0.000305172123491944, 1.31625,674.566467285156
0.066831535, 227.963920183249, -0.000128581493457355, 1.33,682.463012695313
0.06749835, 227.972176509671, 0.000240219982025368, 1.3425,683.450256347656
0.0681654083333333, 227.981027624634, 1.96110629619117E-05, 1.35625,821.004028320313
0.0688315183333333, 227.990066585986, 3.8763600940242E-05, 1.37,821.004028320313
0.0694982716666667, 227.999072803373, 0.000267560608702599, 1.38375,680.189086914063
0.0701649466666667, 228.00829692101, 0.000260924941994865, 1.39625,684.134887695313
0.070832115, 228.017596891776, 0.000134770778615895, 1.41,682.741577148438
0.07149879, 228.026904108953, 0.000276590155183014, 1.42375,684.148864746094
0.072164845, 228.035250705124, 7.376284298077E-05, 1.43625,684.148864746094
0.0728315116666667, 228.044052981151, 0.000195022752224254, 1.45,683.460693359375
0.0734992, 228.052499481363, 0.000184856262876136, 1.46375,680.334899902344
0.074165835, 228.060973522336, -0.000188449486354717, 1.4775,680.266296386719
0.0748320283333333, 228.069245269981, -0.00023547062452775, 1.49,681.450500488281
0.075498185, 228.077565809788, -6.31427804123667E-05, 1.50375,681.450500488281
0.07616486, 228.08554722965, 4.14679651281602E-05, 1.5175,676.39306640625
0.07683169, 228.093451287769, -0.000153435245048903, 1.53125,681.627624511719
0.0774985416666667, 228.101211441991, -0.000113234264285204, 1.54375,681.240417480469
0.0781648616666667, 228.108687028722, -0.000179376442024099, 1.5575,680.197326660156
0.0788320966666667, 228.117041153407, -0.000258150985212641, 1.57,680.197326660156
0.07949822, 228.125171267088, -0.00042351167932717, 1.585,684.132385253906
0.0801650216666667, 228.133741040511, -0.000401707274578798, 1.5975,677.825866699219
0.080831555, 228.141915463928, -9.42827161769105E-05, 1.61,681.687255859375
0.0814981883333333, 228.150804734547, -6.16653545350921E-05, 1.62375,681.434448242188
0.0821648533333333, 228.159345048927, -8.81930220794871E-05, 1.6375,681.434448242188
0.0828315266666667, 228.167896186768, -0.000187342541911318, 1.65125,683.913391113281
0.0834984716666667, 228.176688131273, -6.12903733492612E-05, 1.66375,683.048767089844
0.0841653416666667, 228.185895487222, -0.000444962101937628, 1.6775,694.559204101563
0.084832185, 228.194634668156, -0.000437982952477786, 1.69,825.305053710938
0.0854981866666667, 228.203149815398, -0.000304419161271476, 1.70375,825.305053710938
0.0861648716666667, 228.211731064218, -0.00034916341381779, 1.7175,682.379638671875
0.0868317516666667, 228.219979953862, -0.000426370535792386, 1.73,685.321655273438
0.0874990383333333, 228.228409798477, -0.000138504995009636, 1.74375,694.067138671875
0.0881663433333333, 228.236639654652, -0.000101779339683401, 1.7575,685.46142578125
0.0888320216666667, 228.245023284495, -0.000494779099708432, 1.77,685.46142578125
0.0894987566666667, 228.254054709522, -0.000730181775690457, 1.78375,691.752807617188
0.09016498, 228.262146364079, -0.000802025167042569, 1.7975,692.925903320313
0.090831635, 228.270290232787, -0.00120575838792517, 1.81,695.782836914063
0.0914988266666667, 228.278365069286, -0.00136098109127649, 1.8225,699.709899902344
0.0921653183333333, 228.28636838963, -0.00108078166539404, 1.83625,699.709899902344
0.0928317516666667, 228.294165045274, -0.000906202434345538, 1.85,688.794250488281
0.0934981933333333, 228.302472869665, -0.000798545341853151, 1.86375,686.566162109375
0.0941656583333333, 228.310356086295, -0.000485427069460062, 1.87625,683.257568359375
0.0948321166666667, 228.318496814723, -0.000469571365851445, 1.88875,681.622741699219
0.0954982483333333, 228.326374299532, -0.000450043846729792, 1.90375,681.622741699219
0.0961648316666667, 228.334391149889, -0.000483543164069504, 1.91625,681.007202148438
0.0968315683333333, 228.342585149677, -0.00039391966575933, 1.92875,679.312805175781
0.0974982533333333, 228.350838757209, -0.000399013409904211, 1.9425,671.166748046875
0.0981657383333333, 228.358410565678, 5.94235632839121E-05, 1.955,676.151306152344
0.098832085, 228.366512192345, 4.73251709855869E-05, 1.96875,676.151306152344
0.0994986616666667, 228.373818220682, 0.000396435635522939, 1.98125,675.9482421875
0.100164891666667, 228.381524396379, 0.000393153800376004, 1.995,683.436828613281
0.100832098333333, 228.388972095118, 0.000586141606835058, 2.0075,676.91259765625
0.101499623333333, 228.397053873306, 0.00018211590060881, 2.02125,812.120788574219
0.10216486, 228.404948659754, 0.000122202909958096, 2.035,812.120788574219
0.102831791666667, 228.41331497973, -0.000104990678362129, 2.04875,681.212890625
0.103498515, 228.421149965644, -0.000134035219480272, 2.06,686.861145019531
0.10416574, 228.429421125527, -0.00017802350999982, 2.07375,672.187744140625
0.104832491666667, 228.437450485824, -8.38657394534489E-05, 2.0875,658.399658203125
0.105498486666667, 228.445252270579, -0.000113349758485509, 2.10125,658.399658203125
0.10616485, 228.452512452945, 6.4905787955508E-05, 2.115,664.574890136719
0.106831666666667, 228.46026505577, 0.000146558686605254, 2.12875,664.401550292969
0.107498193333333, 228.467875971147, 9.46462941030336E-05, 2.14125,672.833374023438
0.108165603333333, 228.475814763645, 8.8145620612847E-05, 2.15375,666.123596191406
0.108831908333333, 228.483492980926, 4.24024182439308E-05, 2.1675,666.123596191406
0.109498233333333, 228.491818625999, -5.15498626379394E-05, 2.1825,671.236938476563
0.110164845, 228.499843018865, -0.000419524879625688, 2.195,662.963989257813
0.110831946666667, 228.508347875206, -0.000344083168992538, 2.2075,662.761840820313
0.111498615, 228.516560377361, -0.000678951848897989, 2.22125,664.233520507813
0.112165453333333, 228.524818021906, -0.000710346771938612, 2.235,664.233520507813
0.11283169, 228.532905142001, -0.000908075840244019, 2.2475,665.742248535156
0.11349867, 228.541267726553, -0.000839515783920736, 2.2625,662.718811035156
0.114164846666667, 228.54935076033, -0.00113404249016858, 2.27375,669.554382324219
0.114831771666667, 228.557629543799, -0.000843549081363736, 2.2875,664.826477050781
0.115500046666667, 228.566012476468, -0.000949526258248172, 2.30125,664.826477050781
0.116164836666667, 228.574231036153, -0.000839257796923376, 2.315,663.162658691406
0.116831563333333, 228.581826873456, -0.000749406310103906, 2.32875,663.945556640625
0.117498375, 228.58965513351, -0.000782412152229931, 2.34125,669.151977539063
0.118164863333333, 228.597174315611, -0.000576189010626104, 2.355,801.15771484375
0.118831713333333, 228.604950678978, -0.000359290905195185, 2.36875,801.15771484375
0.11949851, 228.612781081368, -0.000263982692397721, 2.3825,665.274169921875
0.120164843333333, 228.620795326385, -0.000290231373939347, 2.395,662.166931152344
0.120832133333333, 228.628554761218, -0.000140922873551516, 2.40875,667.699157714844
0.121498248333333, 228.636387261592, -0.000399106405259721, 2.4225,658.007019042969
0.122165566666667, 228.643568953841, -0.00023469366351683, 2.435,658.007019042969
0.122831616666667, 228.651440870922, -0.000575014569563304, 2.44875,657.666625976563
0.123498771666667, 228.659303461599, -0.000571990721456238, 2.46125,662.084167480469
0.124165385, 228.666958984497, -0.00048569705591641, 2.475,650.846435546875
0.124831556666667, 228.674499967462, -0.000384293149281401, 2.48875,651.975708007813
0.125498446666667, 228.682785986509, -0.000419878861827365, 2.5025,651.975708007813
0.12616485, 228.690407518774, -7.4741438541652E-07, 2.515,655.400634765625
0.126831546666667, 228.698594719139, 0.000221652414713087, 2.5275,650.014831542969
0.127498446666667, 228.706424134327, 0.000497314568468029, 2.54125,648.210571289063
0.128164853333333, 228.714923759462, 0.000605318143561332, 2.55375,644.763549804688
0.128832241666667, 228.723386337313, 0.000708014985180728, 2.5675,644.763549804688
0.129499668333333, 228.733047593251, 0.000751194816298141, 2.58125,646.780151367188
0.130164888333333, 228.743042353577, 0.00070502713525934, 2.595,649.884582519531
0.130831536666667, 228.75415516707, 0.000681442319904235, 2.6075,638.891357421875
0.1314987, 228.765992011565, 0.000689570411605752, 2.62125,634.452575683594
0.132165465, 228.778844939743, 0.000431139392349755, 2.63375,634.452575683594
0.132831826666667, 228.791528969587, 0.000226900651092758, 2.6475,632.290649414063
0.133498181666667, 228.803542811799, 0.000128373600015804, 2.66125,634.430969238281
0.134164856666667, 228.816224143596, -9.25923010981357E-05, 2.67375,635.997375488281
0.134831566666667, 228.82814846363, -0.000235622116849971, 2.68625,759.712890625
0.135498928333333, 228.839876606733, 5.87125990530056E-05, 2.7,759.712890625
0.136164986666667, 228.851299765346, 0.000333554294031842, 2.71375,635.089233398438
0.136831553333333, 228.863656649605, 0.000499156476017804, 2.72625,629.217651367188
0.137498716666667, 228.874912442161, 0.000833779168278613, 2.74,639.00341796875
0.13816486, 228.887211418219, 0.000898583413237261, 2.7525,644.004455566406
0.138831546666667, 228.899110549712, 0.00100606201468315, 2.76625,644.004455566406
0.139498225, 228.91092972974, 0.00125888481561768, 2.77875,637.84619140625
0.14016497, 228.922343691951, 0.00115230616894127, 2.7925,640.824951171875
0.140832033333333, 228.934521154041, 0.000857300986723765, 2.805,644.245178222656
0.141498445, 228.945852492981, 0.000857782462542227, 2.81875,648.331115722656
0.142164851666667, 228.957332739646, 0.000456687609110044, 2.83125,648.331115722656
0.14283174, 228.968656041419, 0.000326282659249602, 2.845,643.926635742188
0.143498251666667, 228.980393043424, 0.000326426652034823, 2.85875,654.998901367188
0.144164848333333, 228.991914292837, 7.95435527148847E-05, 2.87125,650.555419921875
0.144832361666667, 229.003695784208, 7.75381534689176E-05, 2.88375,656.504333496094
0.145498341666667, 229.015371841744, 5.54997604498749E-05, 2.8975,656.504333496094
0.14616499, 229.027082786599, -0.000296417063113563, 2.91125,654.014892578125
0.146831663333333, 229.038336334459, -0.000492112233524324, 2.92375,656.76806640625
0.147498465, 229.049563327756, -0.000600994764466715, 2.9375,649.439697265625
0.14816485, 229.060787114004, -0.0008384418377717, 2.95125,646.819641113281
0.148831573333333, 229.072096203661, -0.000521791242813825, 2.965,646.819641113281
0.149498663333333, 229.083957351829, -0.000562503697862796, 2.9775,648.183227539063
0.150164946666667, 229.096276576761, -0.000528713395146343, 2.9925,646.012023925781
0.1508321, 229.108419536923, -2.10458947353603E-05, 3.00375,776.52978515625
0.151498203333333, 229.120833677484, 0.000137451144119632, 3.0175,639.059265136719
0.152164841666667, 229.133354379089, -8.15018581263244E-05, 3.03125,639.059265136719
0.152831735, 229.145822879013, -7.35732563491871E-05, 3.045,640.451110839844
0.153498315, 229.158141738827, -0.000120850881637685, 3.0575,640.338256835938
0.154164891666667, 229.170561821915, -0.000205922108618825, 3.07125,638.193908691406
0.154831568333333, 229.182739899381, -0.000409955360253829, 3.085,638.814453125
0.15549851, 229.194629505878, -0.000388561934813204, 3.09875,638.814453125
0.156164845, 229.206945328793, -0.000398869417076482, 3.1125,635.843200683594
0.156831595, 229.218977189219, -0.000383855171206871, 3.125,640.24560546875
0.157498761666667, 229.231172584752, -0.000470439822165947, 3.13875,636.395568847656
0.158164895, 229.243079062914, -0.000221192841582647, 3.1525,636.06982421875
0.158831765, 229.255608767913, -0.000182773771307576, 3.16625,636.06982421875
0.15949825, 229.267359964223, -0.000170591383263923, 3.17875,633.679321289063
0.160164866666667, 229.279612240207, 1.39923453183982E-05, 3.1925,634.830078125
