Time (min), Depth (µm), Load (N), Position (µm), Acoustic (aJ)
8.41833333333333E-06, 227.0039908022, 0.00107892021423588, 0,343.469543457031
0.000666856666666667, 227.00476203622, 0.000632056659719927, 0.00624999999999999,354.693572998047
0.00133299333333333, 227.005717838828, 0.000523324121239117, 0.01875,354.693572998047
0.00199963, 227.007175604423, 0.00038228470551047, 0.035,353.875274658203
0.002666065, 227.009451604734, 0.000256750010973808, 0.05,357.781982421875
0.00333314166666667, 227.012128738385, 0.000430001808734139, 0.0625,367.139770507813
0.0039996, 227.015316507105, 0.000741488163078926, 0.07625,368.226257324219
0.00466625333333333, 227.019791451729, 0.000568660844030988, 0.09,368.226257324219
0.00533300833333333, 227.02618161936, 2.1842310129874E-05, 0.10375,362.914001464844
0.00599946666666667, 227.033546021722, 7.60720862602099E-05, 0.1175,370.514282226563
0.006666435, 227.042235672541, -7.96455922079553E-05, 0.13,370.918975830078
0.00733284166666667, 227.052051573646, -0.000149345591247746, 0.14375,371.571014404297
0.00799965666666667, 227.062280603522, -0.000177533675382851, 0.1575,371.571014404297
0.00866617833333333, 227.072291547002, -2.12370259887579E-05, 0.17,367.241088867188
0.0093329, 227.082229038323, 1.82934884179054E-05, 0.18375,442.015441894531
0.009999605, 227.092963077629, -0.000220755504447317, 0.19625,362.129974365234
0.0106661366666667, 227.103295107123, -8.94505997536337E-05, 0.20875,359.069091796875
0.0113328183333333, 227.114050898747, 8.05808597390422E-05, 0.2225,359.069091796875
0.0119997983333333, 227.1247771269, 0.000610543240263279, 0.23625,361.707611083984
0.01266609, 227.136347900752, 0.00030305118524199, 0.24875,362.179504394531
0.0133328016666667, 227.147384949338, 0.000847526836842641, 0.2625,365.960052490234
0.0139998083333333, 227.159515213099, 0.000719334275817071, 0.27625,367.099243164063
0.0146661933333333, 227.171390055603, 0.000843786024743293, 0.28875,367.099243164063
0.0153328133333333, 227.183163978859, 0.000775278465816633, 0.3025,366.357299804688
0.0159994966666667, 227.19431633931, 0.000910652666138995, 0.31625,372.572998046875
0.01666607, 227.206248588907, 0.000658017355776128, 0.32875,369.609893798828
0.0173332283333333, 227.217558573877, 0.000797408354266783, 0.3425,369.609893798828
0.01799976, 227.228413516318, 0.000505860498415158, 0.355,381.576477050781
0.0186662116666667, 227.23971835931, 0.000464780561823626, 0.3675,370.662719726563
0.019332855, 227.249121712462, 0.000518251376035881, 0.38125,377.432647705078
0.0199994616666667, 227.25846124014, 0.000147733986738274, 0.395,395.657501220703
0.02066665, 227.267554290541, 2.71220449645219E-05, 0.4075,398.999694824219
0.0213330033333333, 227.277706635537, -0.000171581974351781, 0.42125,398.999694824219
0.0219994766666667, 227.287592224353, -0.000359180551473495, 0.435,410.879486083984
0.022666145, 227.299699641609, -0.00044690064537587, 0.4475,405.493560791016
0.0233328066666667, 227.311503164206, -0.000203774857366224, 0.46125,408.438598632813
0.0239995783333333, 227.32413135352, -0.000722313811679872, 0.475,408.096221923828
0.0246662133333333, 227.336113525801, -0.000696441611227225, 0.48875,408.096221923828
0.0253329833333333, 227.348311910905, -0.000696608102899749, 0.50125,409.385192871094
0.0259995583333333, 227.360398862993, -0.000472801344519703, 0.515,497.707244873047
0.0266660766666667, 227.371706773059, -0.00057351678566233, 0.52875,410.9892578125
0.0273328033333333, 227.382841437194, -0.000200781007768477, 0.54125,406.762786865234
0.02799955, 227.394438357683, 3.06228690743322E-05, 0.555,406.762786865234
0.0286662133333333, 227.405830430057, -8.44168525848824E-05, 0.56875,407.716552734375
0.02933279, 227.417263801365, -0.000400693966302585, 0.5825,408.419830322266
0.0299994633333333, 227.42944286219, -0.000316947172803317, 0.595,405.417602539063
0.0306662066666667, 227.441274334829, -0.000236354720897961, 0.60875,409.289398193359
0.0313331183333333, 227.453383418508, -0.0006608738977741, 0.6225,409.289398193359
0.0319994516666667, 227.465070005811, -0.000482460859270741, 0.635,405.509674072266
0.0326661533333333, 227.476306875586, -0.000222547914428022, 0.65,409.784912109375
0.0333329316666667, 227.487707976972, -0.00037744063434687, 0.66125,402.000030517578
0.0339996216666667, 227.499134046022, -0.000457451115498746, 0.675,406.814971923828
0.0346662166666667, 227.510122370705, -0.000218015142137483, 0.68875,406.814971923828
0.0353329016666667, 227.521139471383, -0.00026394733498121, 0.7025,407.7529296875
0.0359996266666667, 227.53273357877, -0.000667019089095698, 0.71625,405.933319091797
0.0366660733333333, 227.543505532097, -0.00025812162757876, 0.72875,403.407012939453
0.0373329583333333, 227.554403408448, -0.000500311462675756, 0.7425,408.045715332031
0.037999735, 227.564839097273, -0.000305973724062484, 0.75625,408.045715332031
0.038666195, 227.575412978687, -0.000523764284683375, 0.76875,413.470428466797
0.0393328016666667, 227.585835329226, -0.00015107950426174, 0.7825,417.283416748047
0.039999565, 227.596072807527, -0.000512756337660013, 0.795,410.549865722656
0.04066613, 227.606389815584, -0.000332760878592405, 0.80875,409.342620849609
0.0413332716666667, 227.61681226831, -0.000517700089279552, 0.8225,409.342620849609
0.0419994466666667, 227.6276545322, -0.000300830482433549, 0.83625,415.769622802734
0.04266614, 227.63789443059, -0.000468822044333967, 0.84875,489.413299560547
0.0433327966666667, 227.649086952478, -0.000567005612658812, 0.8625,414.240753173828
0.0439994783333333, 227.658978033211, -0.000357196151169173, 0.87625,413.241424560547
0.0446662133333333, 227.668988288445, -0.000418468073563034, 0.88875,413.241424560547
0.04533298, 227.678643659374, 1.64815793561961E-05, 0.9025,407.508331298828
0.0459995533333333, 227.689120376654, 4.31502397944972E-05, 0.91625,411.321105957031
0.04666639, 227.698467724413, 1.49681553357515E-05, 0.92875,408.660491943359
0.0473328083333333, 227.70828669389, -8.12760104381245E-05, 0.9425,402.293060302734
0.0479999283333333, 227.718101775483, 7.1720804737449E-05, 0.955,402.293060302734
0.0486661616666667, 227.727460604264, -0.000640215435418596, 0.96875,409.399566650391
0.04933348, 227.736140384079, -0.000674487213974765, 0.9825,398.855804443359
0.0500009683333333, 227.744864142919, -0.000423483821617692, 0.99375,401.542846679688
0.05066761, 227.75358312325, -0.000351110956802451, 1.0075,396.406921386719
0.0513340266666667, 227.762044105636, -0.000311878927415799, 1.02125,396.406921386719
0.051999525, 227.770111222553, 0.000203927164146269, 1.03375,404.944885253906
0.05266614, 227.778597390682, 0.000196298547313546, 1.04875,398.936828613281
0.053332885, 227.78672645848, 0.000172751230068522, 1.06,399.618530273438
0.0540001116666667, 227.794526008624, 0.000160109865029947, 1.07375,399.798400878906
0.0546661566666667, 227.802325057501, -7.89421276415734E-05, 1.0875,399.798400878906
0.0553333666666667, 227.810120483142, -0.000302385904273523, 1.1,406.084594726563
0.0559997666666667, 227.81695175296, -6.52928132127222E-05, 1.11375,407.822174072266
0.0566661566666667, 227.82406174258, 0.000222728719771729, 1.12625,413.777191162109
0.0573328866666667, 227.831060604716, 0.000370969273793154, 1.14,412.519775390625
0.057999605, 227.838355274873, 0.000576691440603784, 1.1525,412.519775390625
0.0586661833333333, 227.846320403368, 0.000410442791051239, 1.16625,486.651763916016
0.0593329816666667, 227.854649075004, 0.00021404115607651, 1.17875,414.065826416016
0.059999745, 227.863471869309, 6.09093477258977E-05, 1.1925,414.062438964844
0.0606661883333333, 227.872872688583, -0.00025718567466611, 1.205,414.617919921875
0.061332875, 227.883921074165, -0.000542961820415057, 1.21875,414.617919921875
0.061999545, 227.894734708482, -0.000763048765658654, 1.2325,417.870727539063
0.0626661516666667, 227.905799152981, -0.000922229770147803, 1.24625,407.432983398438
0.0633330583333333, 227.916185968914, -0.00123953883202498, 1.25875,410.304260253906
0.0639995866666667, 227.926706333892, -0.00141200766911929, 1.2725,412.391571044922
0.0646660916666667, 227.935210270518, -0.00125548753096785, 1.28625,412.391571044922
0.0653328283333333, 227.94427861345, -0.000837385031857825, 1.3,410.305816650391
0.0659995266666667, 227.953132710755, -0.00068452920963992, 1.31375,409.993988037109
0.0666660733333333, 227.962180269457, -0.000312123415221055, 1.32625,400.259460449219
0.0673328066666667, 227.971185719884, 6.48571494566576E-05, 1.33875,409.709106445313
0.067999615, 227.979876756677, 0.00018969887879149, 1.3525,409.709106445313
0.0686661583333333, 227.988068268628, 0.000600012269200153, 1.36625,411.333343505859
0.0693328683333333, 227.996296043625, 0.000436610476696344, 1.38,410.334442138672
0.06999975, 228.004441972439, 0.000301051785693636, 1.3925,403.263641357422
0.0706661416666667, 228.01223459942, -3.7577205307152E-05, 1.4075,407.562194824219
0.0713327933333333, 228.020173931038, 9.43396686068229E-05, 1.42,407.562194824219
0.07200015, 228.027904641716, 2.28179256507881E-06, 1.43375,410.125335693359
0.0726661183333333, 228.035711819028, 0.000212220247595906, 1.44625,402.565795898438
0.0733327966666667, 228.042927455591, 0.000294999589663786, 1.46,407.383331298828
0.0739995683333333, 228.050671727624, 0.000353783137026306, 1.47375,406.949310302734
0.07466615, 228.058178888204, 0.000310888291609275, 1.4875,406.949310302734
0.0753334783333333, 228.066148985399, 2.46741678495608E-05, 1.5,483.289398193359
0.0759995066666667, 228.074340136613, -0.000427649112450687, 1.51375,401.009002685547
0.0766660833333333, 228.08318015373, -0.000712265816465882, 1.5275,404.257110595703
0.0773331416666667, 228.091690453536, -0.000665982641205523, 1.54,400.465789794922
0.0779997066666667, 228.100434126056, -0.000903276722157614, 1.55375,400.465789794922
0.0786662933333333, 228.109075630206, -0.00117671298775806, 1.5675,401.005035400391
0.0793329983333333, 228.11757907586, -0.000751665837428208, 1.58,404.650756835938
0.07999981, 228.126078233853, -0.000619789461430613, 1.59375,409.575653076172
0.08066616, 228.133568290818, -0.000603699769615087, 1.6075,408.513305664063
0.0813328016666667, 228.141605882554, -0.000793759723171391, 1.62,408.513305664063
0.0819995083333333, 228.149819223841, -0.000730542398486439, 1.63375,399.667572021484
0.0826661383333333, 228.157680540897, -0.00094717351733107, 1.64875,408.785247802734
0.08333299, 228.16470980112, -0.000632459325096612, 1.66,407.817779541016
0.0840012666666667, 228.173083854117, -0.000661523365210744, 1.67375,407.200073242188
0.0846661216666667, 228.180676290428, -0.000587842566082067, 1.6875,407.200073242188
0.08533282, 228.188051514279, -0.000543432796741442, 1.70125,408.937835693359
0.0859995783333333, 228.195862977175, -0.000965654089006708, 1.715,405.18896484375
0.0866660966666667, 228.203918568233, -0.00133812438023868, 1.7275,411.236633300781
0.0873335233333333, 228.211356364731, -0.00148635593471368, 1.74,410.249328613281
0.08799949, 228.218895879046, -0.00149839582996028, 1.75375,410.249328613281
0.08866615, 228.226219997388, -0.00116382713499924, 1.7675,409.206451416016
0.0893328966666667, 228.233136982147, -0.000886372571242341, 1.78,417.186187744141
0.089999495, 228.240178212704, -0.000893384719039055, 1.79375,411.670806884766
0.0906660916666667, 228.246959312274, -0.000707280066878035, 1.80625,413.522583007813
0.091333075, 228.254067159902, -0.000832436780358806, 1.82,413.522583007813
0.0919994716666667, 228.260668911369, -0.00115178273995818, 1.83375,492.054046630859
0.09266634, 228.267594302664, -0.0010443536360176, 1.84625,415.556945800781
0.0933330483333333, 228.274688770046, -0.00082090685953684, 1.85875,409.109405517578
0.0939995333333333, 228.282284274011, -0.00118883537884683, 1.8725,406.994873046875
0.09466613, 228.289606386812, -0.00120042829653624, 1.88625,406.994873046875
0.0953329583333333, 228.297139272673, -0.00136139721125414, 1.89875,406.500427246094
0.0959998616666667, 228.304326735176, -0.00152149166985365, 1.9125,410.875518798828
0.0966661733333333, 228.311415105526, -0.0020104146117665, 1.925,402.216186523438
0.0973332816666667, 228.318237944456, -0.00177767130224029, 1.93875,396.835266113281
0.0979995283333333, 228.325250296115, -0.00170754382468181, 1.9525,396.835266113281
0.0986677666666667, 228.332351640883, -0.00161986272885643, 1.965,401.447387695313
0.0993329816666667, 228.339332403778, -0.00156029322100033, 1.97875,403.946655273438
0.0999995716666667, 228.346118987597, -0.00127623748879697, 1.99125,408.449066162109
0.100667618333333, 228.352999408106, -0.0011989493709046, 2.005,403.595611572266
0.101334483333333, 228.35956389129, -0.0011190138860154, 2.0175,403.595611572266
0.102000176666667, 228.366271841276, -0.00079714955287536, 2.03125,408.026153564453
0.102666281666667, 228.373444417466, -0.000300903978793071, 2.045,407.416046142578
0.103333036666667, 228.380922691005, -0.000233897844449121, 2.0575,404.901336669922
0.10399988, 228.38867361551, -0.000275280765791365, 2.07,396.358642578125
0.104666095, 228.396623282738, -7.60052751498962E-05, 2.085,396.358642578125
0.105332948333333, 228.404523347556, -0.000359815019708614, 2.09875,389.488922119141
0.105999676666667, 228.411841570167, -0.000751596840884404, 2.11125,389.789855957031
0.106666193333333, 228.419304396665, -0.000627655066382813, 2.125,387.934295654297
0.10733303, 228.426814747852, -0.000761062865451184, 2.1375,389.026000976563
0.107999545, 228.434547974857, -0.0010214002890063, 2.15125,389.026000976563
0.108666211666667, 228.442070547473, -0.000959949875565939, 2.16375,471.89697265625
0.109332913333333, 228.449991892651, -0.00101236924260148, 2.1775,394.86669921875
0.109999711666667, 228.457544093907, -0.000940381858400381, 2.19125,392.839691162109
0.110666186666667, 228.464890523933, -0.000703012781185619, 2.20375,391.864501953125
0.111332785, 228.472060662708, -0.000537518593777946, 2.21875,391.864501953125
0.111999578333333, 228.479665015888, -0.000476549656177305, 2.23125,391.350128173828
0.112666998333333, 228.486905713651, -0.000474359766187229, 2.24375,395.293060302734
0.113333141666667, 228.494287614137, -0.000565535686509825, 2.25875,386.574829101563
0.113999778333333, 228.501265074992, -0.00066743606816482, 2.27125,396.288360595703
0.11466608, 228.508491730603, -0.000873314227113389, 2.285,396.288360595703
0.115332905, 228.515254605871, -0.000699324466440385, 2.29875,391.567565917969
0.11599974, 228.522378112256, -0.000587737571352585, 2.31125,394.804107666016
0.116666161666667, 228.529454473518, -0.000763933721205355, 2.325,390.481719970703
0.117332908333333, 228.537294856123, -0.000820152397391968, 2.33875,389.317413330078
0.11799963, 228.544504362337, -0.000530357953444055, 2.3525,389.317413330078
0.118666105, 228.55236844489, -0.000793812220419235, 2.365,392.332672119141
0.119332798333333, 228.559717193589, -0.000887334022912353, 2.37875,381.780487060547
0.119999728333333, 228.567550610081, -0.000934226167544198, 2.39125,392.606384277344
0.120666148333333, 228.574946176972, -0.00103899890489902, 2.405,385.973876953125
0.121332771666667, 228.582896469092, -0.00123242168947753, 2.41875,385.973876953125
0.121999518333333, 228.589951430607, -0.00108006984198664, 2.4325,392.980987548828
0.12266614, 228.598206841287, -0.00105930938475046, 2.445,380.601409912109
0.123332861666667, 228.606047482118, -0.00104565107079645, 2.4575,384.982330322266
0.12399968, 228.613699485661, -0.000688267021847954, 2.47125,384.092193603516
0.124666155, 228.621382169821, -0.000737509548444785, 2.485,384.092193603516
0.125332955, 228.630373416265, -0.000770363898206081, 2.49875,455.360534667969
0.125999571666667, 228.639578070549, -0.00080455768069328, 2.51125,377.163543701172
0.126666161666667, 228.649966928913, -0.000458844545545676, 2.52375,381.103332519531
0.127332808333333, 228.660901829743, -0.000499383009342615, 2.53875,376.322723388672
0.127999543333333, 228.673154999159, -1.8204178484051E-05, 2.55125,376.322723388672
0.128666148333333, 228.685083912825, -6.23327976000278E-06, 2.56375,373.221038818359
0.129332996666667, 228.697303585213, 7.94799149932558E-05, 2.5775,370.513763427734
0.129999568333333, 228.709544181207, 0.000162008769664537, 2.59125,363.597595214844
0.130666228333333, 228.722300226248, 0.000143663191163939, 2.60375,364.870697021484
0.131332905, 228.734262829293, 4.43666787193344E-05, 2.6175,364.870697021484
0.131999743333333, 228.746819213448, 0.000418582882232998, 2.63125,370.081298828125
0.132666171666667, 228.759405453159, 0.000418788371897498, 2.64375,368.941772460938
0.133333011666667, 228.771990626251, 0.000357987425851277, 2.6575,365.431610107422
0.1339996, 228.784560999249, 0.00034063029765995, 2.67,366.501373291016
0.134666161666667, 228.797597106679, 0.000202821719627273, 2.68375,366.501373291016
0.13533279, 228.809928194487, 1.59371066277806E-05, 2.6975,365.747985839844
0.135999548333333, 228.822432000863, 0.000206892515201608, 2.71,367.421203613281
0.136666201666667, 228.834437727288, 5.2709259674279E-05, 2.72375,360.964721679688
0.137333028333333, 228.846395843064, 0.00026006634433951, 2.73625,358.439971923828
0.137999546666667, 228.85778247849, 0.000355070072376842, 2.74875,358.439971923828
0.138666086666667, 228.870023879649, 0.000469031348220082, 2.7625,364.519287109375
0.139332803333333, 228.88164936893, 0.000527696401512236, 2.775,365.488677978516
0.140000025, 228.893479257253, 0.000749320769524222, 2.78875,366.170959472656
0.140666136666667, 228.905578428451, 0.000641339693339477, 2.8025,440.688232421875
0.141333396666667, 228.917669640471, 0.000429385339591859, 2.815,440.688232421875
0.141999738333333, 228.929241313492, 0.000269262382407432, 2.82875,368.731597900391
0.142666136666667, 228.941292497133, 6.87149557019679E-05, 2.84125,369.030334472656
0.143333098333333, 228.952762157998, 5.35342182023413E-05, 2.855,378.861328125
0.143999701666667, 228.964138641891, -8.2466950584344E-05, 2.8675,377.674285888672
0.144666853333333, 228.975381177952, 7.08478485647202E-05, 2.8825,377.674285888672
0.14533304, 228.987053289838, -3.38588921376152E-05, 2.89375,389.439605712891
0.145999553333333, 228.998324281584, -0.000134055359372953, 2.9075,385.282775878906
0.146666153333333, 229.00955836442, -0.000296596195099259, 2.92125,386.730224609375
0.14733292, 229.020629047825, -0.000598921009637398, 2.93375,370.946838378906
0.147999655, 229.032014782596, -0.000612384333355229, 2.9475,370.946838378906
0.148666123333333, 229.043049422041, -0.00028908007259678, 2.96125,371.160736083984
0.149332801666667, 229.054813666506, -0.000276210719027656, 2.975,373.160614013672
0.149999533333333, 229.067081966564, -0.000332670883106956, 2.9875,363.566802978516
0.15066627, 229.079817201404, -0.000165888260424343, 3.00125,371.379516601563
0.151332811666667, 229.092583041816, -0.000411037446836557, 3.015,371.379516601563
0.151999506666667, 229.105972337374, -0.000593182297871591, 3.02875,363.807159423828
0.152666128333333, 229.118757834055, -0.000748437999517282, 3.0425,363.676239013672
0.153332898333333, 229.131462665302, -0.000611568374331078, 3.055,362.883514404297
0.153999603333333, 229.14376338731, -0.000677484063442572, 3.06875,365.950012207031
0.154666188333333, 229.155896818365, -0.000607899558603086, 3.08125,365.950012207031
0.155332911666667, 229.168132648197, -0.000722574798611055, 3.095,359.485015869141
0.155999743333333, 229.179844234921, -0.000514974726149989, 3.1075,361.408996582031
0.156666143333333, 229.192059357337, -0.00076361723711376, 3.12125,365.863983154297
0.157332811666667, 229.203973564433, -0.000724704691646255, 3.135,435.388641357422
0.157999513333333, 229.216173847408, -0.000781773825118294, 3.14875,435.388641357422
0.15866614, 229.227636629575, -0.000637337080021154, 3.1625,361.124603271484
0.159333308333333, 229.239703679341, -0.000791059858714175, 3.175,367.828369140625
