Time (min), Depth (µm), Load (N), Position (µm), Acoustic (aJ)
9.555E-06, 239.0667328974, 0.00060922241256388, 0,181.333938598633
0.000666135, 239.066593389895, 0.000681610276559392, 0.00125000000000006,174.598022460938
0.001332665, 239.066427331584, 0.000715306084059693, 0.00750000000000002,186.737182617188
0.001999425, 239.06565686609, 0.000396507596995033, 0.02625,188.29524230957
0.0026663, 239.065540849029, 3.09894565836481E-05, 0.045,188.29524230957
0.003334115, 239.067896972997, -0.000228870990883703, 0.06,219.741287231445
0.00399938833333333, 239.072507859527, -0.000645685054761299, 0.0750000000000001,239.467819213867
0.00466610333333333, 239.078611826687, -0.000961345699421737, 0.0887500000000001,237.325088500977
0.00533266166666667, 239.087497712429, -0.00131286804282461, 0.10125,237.029251098633
0.006000085, 239.097405506055, -0.00170150902181113, 0.115,237.029251098633
0.00666598666666667, 239.106829578013, -0.00145831423723643, 0.12875,234.427429199219
0.007332715, 239.11636217742, -0.000947844877593825, 0.1425,239.12483215332
0.00799970333333333, 239.12660882348, -0.000989718274364713, 0.155,231.263214111328
0.00866600166666667, 239.137190747452, -0.000813117144859301, 0.17,230.882171630859
0.00933262166666667, 239.147949928787, -0.0004448496425279, 0.1825,230.882171630859
0.00999948333333333, 239.159086960133, -0.000597960451915613, 0.195,278.074829101563
0.0106661366666667, 239.171162503152, -0.00083763641324516, 0.21,230.523895263672
0.0113326316666667, 239.182649296494, -0.000838720858758748, 0.2225,230.326095581055
0.0119993366666667, 239.194797720636, -0.000732431697555926, 0.235,226.501129150391
0.0126666583333333, 239.206522030584, -0.000844498568580294, 0.24875,226.501129150391
0.013332735, 239.219032678113, -0.00095548999357373, 0.26125,233.836227416992
0.0139995183333333, 239.23057983642, -0.00110555745583713, 0.275,229.830795288086
0.01466603, 239.242894794432, -0.00134161559891091, 0.28875,225.126892089844
0.0153327, 239.254862162442, -0.00136708281971091, 0.3025,234.911819458008
0.0159996366666667, 239.267436802409, -0.00134236406127315, 0.31625,234.911819458008
0.01666599, 239.279810858442, -0.00129870575416483, 0.33,239.335144042969
0.0173326383333333, 239.29277087406, -0.00100392856052038, 0.3425,235.88703918457
0.017999775, 239.305257321382, -0.000452835241389853, 0.3575,231.834045410156
0.018666615, 239.318167451963, -0.000505149613674655, 0.37,236.168884277344
0.0193330283333333, 239.331082042126, -0.000531542288001503, 0.38375,236.168884277344
0.0199995883333333, 239.343819963398, -0.000452886238862072, 0.39625,232.637145996094
0.0206659766666667, 239.356681574147, -0.000655353569143772, 0.41,236.716369628906
0.0213328166666667, 239.369865210974, -0.00082745492465301, 0.42375,233.312927246094
0.021999365, 239.38322088753, -0.000847622911643632, 0.4375,232.729614257813
0.02266622, 239.396140255383, -0.000590247839295053, 0.44875,232.729614257813
0.0233326383333333, 239.409195894962, -0.000909994278752606, 0.4625,232.313110351563
0.0239995783333333, 239.422258357913, -0.000951980169853738, 0.47625,232.990112304688
0.024665965, 239.43562103859, -0.0011428920805136, 0.49,237.216934204102
0.0253327133333333, 239.448537330814, -0.00132800978224724, 0.50375,278.399108886719
0.0259993833333333, 239.461966364566, -0.00171017408653403, 0.51625,278.399108886719
0.0266660316666667, 239.474818083625, -0.00151442341887784, 0.53,235.616012573242
0.0273326533333333, 239.487482071234, -0.0014419560588252, 0.54375,243.996810913086
0.027999565, 239.500165387464, -0.00142867122611135, 0.55625,243.201034545898
0.02883265, 239.512299186067, -0.00106699439275559, 0.5725,241.049819946289
0.0294995766666667, 239.524511346053, -0.000639518864391784, 0.58625,240.627700805664
0.030165995, 239.536920615857, -0.00061246022352362, 0.6,240.627700805664
0.0308326566666667, 239.549392201186, -0.000783363139264621, 0.61125,249.840835571289
0.0314993383333333, 239.561435685131, -0.000641825748527823, 0.625,237.307983398438
0.0321661166666667, 239.573499241951, -0.000762751174586872, 0.63875,239.716720581055
0.03283305, 239.585735432981, -0.000924087570826075, 0.65125,190.835464477539
0.03349934, 239.597650344687, -0.000834498570777175, 0.665,190.835464477539
0.03416603, 239.609920508446, -0.000860844747426268, 0.67875,237.858184814453
0.034832725, 239.622358038474, -0.000943222109754075, 0.69125,240.31526184082
0.0354995383333333, 239.634679949153, -0.000756905968209688, 0.705,244.285293579102
0.036165975, 239.646622960939, -0.000581335286981854, 0.71875,242.885726928711
0.03683265, 239.658924191388, -0.000658641403967066, 0.73125,242.885726928711
0.0374996, 239.670604053849, -0.000575922058896571, 0.745,240.502471923828
0.03816599, 239.682803381985, -0.000559931362049152, 0.7575,242.319396972656
0.0388326866666667, 239.694412384842, -0.000852632659958169, 0.7725,236.982696533203
0.0396660116666667, 239.712317957105, -0.000879631303850203, 0.7875,245.68815612793
0.040332685, 239.723790618424, -0.000913531101069348, 0.8,239.391326904297
0.040999385, 239.734520673143, -0.00072496657244065, 0.815,239.391326904297
0.041666905, 239.74502726812, -0.00111341556103979, 0.82625,238.283737182617
0.0423326216666667, 239.755851696615, -0.00107270760576403, 0.84,287.386871337891
0.0429996666666667, 239.765799875013, -0.000859217329129922, 0.85375,234.271560668945
0.0436660183333333, 239.776088651968, -0.000518071464576639, 0.86625,233.780944824219
0.044332655, 239.786410374007, -0.000233504258130514, 0.88,233.780944824219
0.0449993933333333, 239.797684378022, 3.74946299108069E-05, 0.89375,240.166030883789
0.045665965, 239.808025215137, -6.21633643574905E-05, 0.90625,233.198776245117
0.0463327966666667, 239.821818605382, -0.000526979517137882, 0.92,232.048873901367
0.04699936, 239.835218147692, -0.000670667799787764, 0.9325,235.58512878418
0.0476660116666667, 239.848904506777, -0.000964198556019307, 0.94625,235.58512878418
0.0483326366666667, 239.861214667465, -0.000930844731325457, 0.96,233.920944213867
0.0489997866666667, 239.873929765518, -0.000851015741068883, 0.9725,233.629257202148
0.049666155, 239.883191661877, -0.000460201371260719, 0.98625,230.268371582031
0.0503342233333333, 239.892409978127, -0.000406253581024467, 1,229.627304077148
0.0509994, 239.901600706896, -0.000194690707631116, 1.01375,229.627304077148
0.0516662716666667, 239.911323390741, -0.000190745905749163, 1.02625,229.911773681641
0.0523326333333333, 239.921077525038, 7.61806867721655E-05, 1.04,234.629592895508
0.0529995583333333, 239.93149093129, 7.68526530323496E-05, 1.055,236.506683349609
0.0536665516666667, 239.942043162412, 6.83270812576994E-05, 1.0675,228.352951049805
0.0543326516666667, 239.952626356284, 0.000136023180954673, 1.08125,228.352951049805
0.0549993333333333, 239.96366265237, -0.000142038852249311, 1.09375,232.247451782227
0.05566598, 239.974391275094, -0.000492521747806931, 1.1075,230.526397705078
0.0563331483333333, 239.985405291372, -0.000618779406033487, 1.12,230.647262573242
0.0569993333333333, 239.996250287567, -0.000581776264671396, 1.135,230.811920166016
0.0576662283333333, 240.007301737699, -0.0010706107110232, 1.14875,230.811920166016
0.0583330066666667, 240.018922262184, -0.000726124514228744, 1.16,229.936889648438
0.0589993966666667, 240.03094391578, -0.00059980685904731, 1.175,274.026092529297
0.0596666333333333, 240.043295047128, -0.000567096502071236, 1.1875,233.802124023438
0.0603327816666667, 240.055841846102, -0.000881737197988681, 1.2025,230.367080688477
0.0609993533333333, 240.068617386008, -0.000745350548545342, 1.215,230.367080688477
0.061665975, 240.081187986976, -0.000869400317646475, 1.22875,230.53742980957
0.062332645, 240.093566861713, -0.00097663143156583, 1.24125,231.476486206055
0.062999435, 240.105470343051, -0.000769446838228228, 1.255,231.400909423828
0.0636667483333333, 240.117668288441, -0.000509295405362882, 1.26875,233.754318237305
0.06433272, 240.129527997492, -0.00022932096820468, 1.28125,233.754318237305
0.06499937, 240.141388349855, 1.44244076915919E-06, 1.295,229.422912597656
0.0656661716666667, 240.153152566766, 5.39308043697554E-05, 1.30875,229.300598144531
0.0663326383333333, 240.165024101959, 0.000216074160065436, 1.32125,228.407623291016
0.066999585, 240.176885942759, 0.000415226656842076, 1.335,232.247451782227
0.06766605, 240.189322904032, 6.0477975516443E-05, 1.3475,232.247451782227
0.0683326633333333, 240.201581731127, 6.78217262244563E-06, 1.36125,233.653442382813
0.069000045, 240.214126071775, -0.000396460572916522, 1.375,235.581405639648
0.0696659716666667, 240.2270051333, -0.000536978014867819, 1.3875,239.230575561523
0.07033273, 240.239931001774, -0.000680405310692788, 1.40125,234.360626220703
0.0709992966666667, 240.25237705991, -0.000392803756605011, 1.415,234.360626220703
0.07166599, 240.26490775446, -0.000307266053070696, 1.4275,235.393478393555
0.0723327433333333, 240.277222883003, 9.39067964304567E-05, 1.44,240.368865966797
0.07299932, 240.288961854246, 7.09309504893451E-05, 1.45375,241.255065917969
0.0736659566666667, 240.300711400199, 7.56122153595686E-05, 1.4675,237.618408203125
0.0743326966666667, 240.312150426241, -0.000166019647731892, 1.48,237.618408203125
0.0749993883333333, 240.323113964755, -0.000347105551989447, 1.49375,234.834381103516
0.0756660416666667, 240.333980532121, -0.000383558221010527, 1.50625,286.366149902344
0.0763326316666667, 240.344827512174, -0.000329614930526229, 1.52,236.192276000977
0.07699944, 240.355371555732, -0.000746785976475563, 1.53375,241.707656860352
0.077665985, 240.36594188415, -0.000559461885583408, 1.54625,241.707656860352
0.0783326666666667, 240.376658915333, -0.000510018369095286, 1.55875,236.14729309082
0.0789996633333333, 240.387728839977, -0.000658350418547817, 1.5725,239.339111328125
0.0796660966666667, 240.398581700938, -0.00100414754950451, 1.58625,241.605484008789
0.08033268, 240.409220131513, -0.000770841768220815, 1.6,236.226104736328
0.080999835, 240.419772186834, -0.0010075433789486, 1.6125,236.226104736328
0.0816660033333333, 240.430354483329, -0.00117694337013998, 1.62625,241.749725341797
0.0823326783333333, 240.440828399953, -0.00128708583779365, 1.63875,239.56852722168
0.0829993633333333, 240.451378700934, -0.0013370153298947, 1.6525,235.084899902344
0.0836660266666667, 240.462071957328, -0.00140131260032003, 1.665,241.591506958008
0.0843328283333333, 240.473037418395, -0.0013623235586867, 1.67875,241.591506958008
0.084999385, 240.483684059241, -0.0015106391089708, 1.69125,237.268951416016
0.0856659716666667, 240.494973309176, -0.00148003764604577, 1.705,241.049209594727
0.0863327483333333, 240.506122717213, -0.00142847773584208, 1.71875,240.790420532227
0.08699972, 240.517411326576, -0.00137520041194161, 1.7325,236.80078125
0.0876659833333333, 240.52844098164, -0.00129326852728909, 1.745,236.80078125
0.0883326916666667, 240.539769637332, -0.000986794921150157, 1.75875,244.43669128418
0.088999335, 240.54995754053, -0.000919047824023473, 1.77125,242.532760620117
0.0896662716666667, 240.5565074894, -0.000993709573818151, 1.785,239.636138916016
0.090332645, 240.563397594118, -0.000980388742897376, 1.79875,218.376861572266
0.09099932, 240.5708563789, -0.000958909821765765, 1.81125,218.376861572266
0.091666095, 240.577882269408, -0.000917631895110495, 1.825,208.193664550781
0.092332815, 240.585655106417, -0.000887232922022414, 1.83875,252.253372192383
0.092999355, 240.597549312179, -0.00064046681680593, 1.8525,213.238906860352
0.0936660633333333, 240.609242331927, -0.000695665544228295, 1.865,213.750946044922
0.094332625, 240.620432622821, -0.000589767863358486, 1.88,213.750946044922
0.0949993333333333, 240.631702268174, -0.000719739335023878, 1.8925,214.117660522461
0.0956659883333333, 240.642699816606, -0.000556249046980277, 1.905,215.409851074219
0.0963326633333333, 240.653862285068, -0.00068996733044263, 1.91875,216.564056396484
0.0969998616666667, 240.664717093845, -0.000822737661533346, 1.9325,219.754638671875
0.0976666383333333, 240.675948497791, -0.00103189015602809, 1.945,219.754638671875
0.0983327666666667, 240.687609998988, -0.0011047519962413, 1.95875,213.925247192383
0.098999615, 240.699341404017, -0.0013177907955025, 1.9725,217.42561340332
0.099666335, 240.710863945745, -0.00141325950021112, 1.985,214.400436401367
0.100332675, 240.721842217676, -0.00136523491242102, 2,218.087829589844
0.10099929, 240.73329446, -0.00142027914756608, 2.0125,218.087829589844
0.10166618, 240.744697058639, -0.00152699128753564, 2.02625,208.059860229492
0.102332661666667, 240.755605995088, -0.00153906868093483, 2.03875,210.532028198242
0.102999435, 240.766508430512, -0.00162299396545934, 2.05375,213.667984008789
0.103666131666667, 240.777948137881, -0.00147115059238367, 2.065,213.667984008789
0.10433263, 240.788638236669, -0.00132481944246765, 2.07875,212.928939819336
0.104999276666667, 240.799657677189, -0.00109374104930537, 2.09125,212.571853637695
0.105666018333333, 240.810929217596, -0.00108515848038214, 2.105,209.283355712891
0.10633267, 240.821977478311, -0.000907504403796862, 2.11875,208.790786743164
0.106999353333333, 240.832941673826, -0.000698693892129825, 2.1325,211.028091430664
0.107666213333333, 240.844115254881, -0.000994276545306345, 2.145,211.028091430664
0.108332701666667, 240.854617054458, -0.00101155267753739, 2.15875,208.849411010742
0.108999541666667, 240.865436076529, -0.0009544610451993, 2.1725,245.00634765625
0.109666023333333, 240.876491064944, -0.00117960873625091, 2.185,201.774276733398
0.11033274, 240.88758344495, -0.00130451496237759, 2.19875,195.236404418945
0.110999375, 240.898702838627, -0.00106541947187712, 2.2125,195.236404418945
0.111666205, 240.910140083681, -0.00110140266449622, 2.225,199.449569702148
0.112332781666667, 240.921258552467, -0.00100045623493173, 2.23875,200.752838134766
0.112999923333333, 240.932044716831, -0.000657823944976003, 2.25125,195.585052490234
0.113666013333333, 240.943222877424, -0.000527039514114013, 2.265,198.180786132813
0.11433272, 240.954263833126, -0.000610585317700736, 2.2775,198.180786132813
0.114999326666667, 240.965032756777, -0.000625949046020068, 2.29125,195.20524597168
0.11566605, 240.975675404935, -0.000382428777807349, 2.305,193.200347900391
0.116332768333333, 240.986710117128, -0.000622457221435423, 2.3175,194.871795654297
0.116999518333333, 240.997221037628, -0.000675937035215352, 2.33125,192.103240966797
0.117666188333333, 241.007967555859, -0.000592928204650011, 2.34375,192.103240966797
0.118332681666667, 241.018514153989, -0.000305412146274474, 2.3575,195.294143676758
0.118999721666667, 241.029219614717, -0.000374765662734605, 2.37,190.592132568359
0.119666013333333, 241.039174875762, -0.000122517332931541, 2.38375,194.906921386719
0.120332721666667, 241.049535694317, -8.8535039827709E-05, 2.39625,192.768295288086
0.120999591666667, 241.060294868918, -0.00032516615408729, 2.41,192.768295288086
0.12166621, 241.07065387066, -0.000454587153390416, 2.4225,193.50325012207
0.122332738333333, 241.081476432914, -0.000688735892316269, 2.435,193.656066894531
0.122999648333333, 241.091922596168, -0.000780093303512913, 2.44875,193.687896728516
0.12366605, 241.102548795573, -0.000930963225480839, 2.4625,190.223648071289
0.124333148333333, 241.11235526868, -0.00089229366780917, 2.475,190.223648071289
0.124999773333333, 241.122461038243, -0.000992064156407712, 2.48875,228.746185302734
0.12566596, 241.132255384049, -0.000954698033276269, 2.50125,192.688934326172
0.12633276, 241.142437996377, -0.000760685778322266, 2.515,191.385284423828
0.126999435, 241.151895861568, -0.000697993427263471, 2.52875,197.565444946289
0.127666688333333, 241.161560513237, -0.000440451863348638, 2.5425,197.565444946289
0.128332765, 241.171517859355, -0.000386273084690522, 2.555,194.29216003418
0.12899974, 241.181812243877, -0.000580117348090106, 2.56875,197.750595092773
0.129666265, 241.19227627821, -0.000999536781059988, 2.58125,197.346908569336
0.130332685, 241.203031583351, -0.00118096166827519, 2.595,197.893890380859
0.130999598333333, 241.213622653294, -0.00108175815118609, 2.60875,197.893890380859
0.13166597, 241.224132076967, -0.0012632580346002, 2.6225,200.181869506836
0.132332668333333, 241.234247075084, -0.00110857380425842, 2.635,199.797988891602
0.132999556666667, 241.244229592079, -0.000823210137784134, 2.64875,199.972427368164
0.13366602, 241.254474788615, -0.000594398130777745, 2.6625,193.270233154297
0.134332648333333, 241.265131958497, -0.000824147590706203, 2.675,193.270233154297
0.134999323333333, 241.275605772096, -0.00040758701411652, 2.68875,193.690048217773
0.135667631666667, 241.286217051536, -0.000197041089596103, 2.7025,194.879898071289
0.136332758333333, 241.297802349599, -0.000177659063141566, 2.715,189.862487792969
0.137000956666667, 241.308535306432, -0.000181294880511432, 2.72875,186.03857421875
0.13766603, 241.319366556836, -1.83895630488633E-05, 2.7425,186.03857421875
0.138332701666667, 241.330482326457, -0.000374597671095169, 2.755,181.981384277344
0.138999651666667, 241.341066554948, -0.000510327353543611, 2.77,194.872039794922
0.139666231666667, 241.351336738328, -0.000292983770479908, 2.7825,185.338684082031
0.140332716666667, 241.361874041067, -0.000220337919423274, 2.79625,186.892593383789
0.140999306666667, 241.372430586903, -0.000186388624677567, 2.80875,186.892593383789
0.141665978333333, 241.383144485706, -0.000180874901636011, 2.8225,225.797866821289
0.142332701666667, 241.394167219407, -0.000242524805022001, 2.83625,188.665267944336
0.142999498333333, 241.404640889871, -0.000504179162415714, 2.84875,196.101959228516
0.143666338333333, 241.415500268619, -0.00056887091300161, 2.86375,188.710983276367
0.144332825, 241.425917594057, -0.000911146220864341, 2.87625,188.710983276367
0.145000093333333, 241.436038288601, -0.000754947066577713, 2.88875,187.020004272461
0.145666135, 241.445948164469, -0.000588891907358205, 2.9025,187.992431640625
0.14633264, 241.456672321727, -0.000630223831291992, 2.91625,192.039688110352
0.146999413333333, 241.467096185066, -0.00102287110901849, 2.93,193.717758178711
0.147666006666667, 241.477336286943, -0.00102360607208236, 2.9425,193.717758178711
0.148332698333333, 241.487646380658, -0.00154385494051328, 2.95625,185.27571105957
0.148999386666667, 241.497923419821, -0.00167718474347017, 2.97,190.07829284668
0.149666011666667, 241.507683551654, -0.00155641230974276, 2.98375,192.298080444336
0.150333063333333, 241.518068953062, -0.00130158410954102, 2.99625,194.317520141602
0.150999403333333, 241.528422757805, -0.00109560845548498, 3.00875,194.317520141602
0.151666011666667, 241.538948542232, -0.000746088511521777, 3.0225,191.06559753418
0.152332676666667, 241.550114739197, -0.00106720588213896, 3.03625,187.064193725586
0.153000276666667, 241.56075014664, -0.00116655639188333, 3.05,200.044662475586
0.153667045, 241.571423140406, -0.00123360152426177, 3.0625,193.32551574707
0.154332678333333, 241.581774551785, -0.00107279610138884, 3.07625,193.32551574707
0.154999365, 241.592417458249, -0.00107210913590588, 3.08875,199.704574584961
0.155666068333333, 241.602263524749, -0.000901860187353476, 3.1025,197.711456298828
0.156332675, 241.612371400175, -0.000770127804119848, 3.11625,194.620269775391
0.156999376666667, 241.622371265786, -0.000748203405355453, 3.13,194.620269775391
0.157666056666667, 241.632755803712, -0.00085015328453701, 3.1425,197.609481811523
0.158332785, 241.642817646898, -0.000947394900166577, 3.155,229.312469482422
0.158999371666667, 241.653282783843, -0.00091465004488672, 3.16875,196.750228881836
0.159667831666667, 241.663537013984, -0.00112377404079655, 3.1825,194.85954284668
0.160332748333333, 241.673855225069, -0.00118003021511449, 3.195,197.899597167969
0.16099935, 241.684020163397, -0.00129215258332053, 3.21,197.899597167969
