Time (min), Depth (µm), Load (N), Position (µm), Acoustic (aJ)
8.69666666666667E-06, 238.449230953522, -6.33025227970231E-05, 0,158.702407836914
0.000666696666666667, 238.449280072351, 0.000510708145265399, 0.00125000000000006,158.702407836914
0.001333055, 238.449617090558, 0.000310006226303891, 0.00750000000000002,163.582763671875
0.001999805, 238.448345952141, 0.000120144262875088, 0.02625,163.071350097656
0.0026664, 238.44745304268, 2.02012829064088E-05, 0.0462500000000001,199.286926269531
0.00333311166666667, 238.448837469207, -0.000330046124562408, 0.0612500000000001,219.152969360352
0.00399975333333333, 238.452077723504, -0.000897428625517858, 0.0750000000000001,219.152969360352
0.00466658833333333, 238.45672079289, -0.000891233936648445, 0.0887500000000001,221.044723510742
0.00533316166666667, 238.464559508467, -0.00103060393626122, 0.1025,222.591613769531
0.00599984666666667, 238.474294807117, -0.00118397123282816, 0.115,218.321868896484
0.00666650666666667, 238.483501021038, -0.00141759649805226, 0.12875,224.617980957031
0.007333225, 238.492678963325, -0.00153673401390381, 0.1425,224.617980957031
0.00799967666666667, 238.503380039231, -0.00178916083479588, 0.15625,217.499282836914
0.00866656166666667, 238.514046237089, -0.00158390664450533, 0.17,216.822616577148
0.00933354666666667, 238.525006263722, -0.00146937389733693, 0.18375,223.595199584961
0.00999990833333333, 238.536624061431, -0.00129631109013642, 0.19625,218.854507446289
0.0106664383333333, 238.547895389066, -0.000968058577921465, 0.21,218.854507446289
0.0113329966666667, 238.559168606647, -0.000608090158758568, 0.2225,215.996337890625
0.0119998583333333, 238.570689150995, -0.000453294933947185, 0.23625,223.334091186523
0.0126666166666667, 238.58260321628, -0.000609816572023021, 0.25,215.402816772461
0.013333155, 238.59437846618, -0.000600982015778792, 0.2625,216.334182739258
0.0139997383333333, 238.60696200024, -0.000760178019533227, 0.275,216.334182739258
0.01466671, 238.618912487984, -0.000767224665569961, 0.28875,210.978942871094
0.0153335333333333, 238.631593692133, -0.00113270830769882, 0.3025,220.338653564453
0.01599977, 238.643688699806, -0.000947920589376399, 0.3175,259.877105712891
0.0166666316666667, 238.65664806102, -0.000699411571705772, 0.33,220.405166625977
0.01733473, 238.669232317894, -0.000871088448523871, 0.34375,220.405166625977
0.0179997633333333, 238.681950994313, -0.000911074940034141, 0.35625,214.266998291016
0.0186667133333333, 238.69440397872, -0.000523009932124739, 0.37,215.615905761719
0.0193330516666667, 238.707417772156, -0.00053055455319088, 0.38375,217.449005126953
0.0199998083333333, 238.720136093735, -0.000564385353929983, 0.3975,215.050399780273
0.020666485, 238.732965471879, -0.000286420815833466, 0.41125,215.050399780273
0.0213330283333333, 238.745512683821, -0.000220010151583879, 0.425,213.851852416992
0.02199995, 238.75792601756, -0.000363726932839931, 0.43625,217.157150268555
0.022666365, 238.770177986067, -0.000279023187401352, 0.45,217.41960144043
0.0233333216666667, 238.782685788015, -0.000436551274921807, 0.46375,219.180206298828
0.0239997183333333, 238.795436551153, -0.000426002304787096, 0.4775,219.180206298828
0.02466656, 238.807862183358, -0.000438640669998119, 0.49125,221.593170166016
0.0253332783333333, 238.821080305189, -0.000311598551202387, 0.505,219.919570922852
0.026166615, 238.839704042869, -0.000615832769867193, 0.52,222.284698486328
0.02683351, 238.852328107658, -0.000290871092366841, 0.53375,179.059188842773
0.02749982, 238.864763947886, -0.000602174455913177, 0.54625,226.80940246582
0.028166825, 238.87732922491, -0.000427151247113787, 0.56,226.80940246582
0.028833115, 238.889474399125, -0.000555166816996011, 0.57375,221.342208862305
0.0294999216666667, 238.902114933019, -0.00039950613565517, 0.58625,220.028656005859
0.0301665633333333, 238.914210825802, -0.0010293065014186, 0.6,222.294784545898
0.030833135, 238.926774188567, -0.000870284488937454, 0.61125,227.476043701172
0.031499755, 238.938788529489, -0.00117193733721541, 0.625,227.476043701172
0.0321663566666667, 238.950455863881, -0.00108282681313616, 0.63875,270.4375
0.0328336566666667, 238.961500550246, -0.00100122791176494, 0.6525,220.308258056641
0.0334998333333333, 238.973172492653, -0.000548052674297367, 0.66625,223.583755493164
0.0341667783333333, 238.984826992478, -0.00111459371755632, 0.67875,226.702255249023
0.03483327, 238.996947460371, -0.000854560778740086, 0.69125,226.702255249023
0.0354998016666667, 239.00892460857, -0.00113791004640073, 0.705,216.215469360352
0.0361669766666667, 239.021555298764, -0.00118207832791243, 0.71875,226.722702026367
0.0368332033333333, 239.03349700741, -0.00142386918299064, 0.73125,231.473556518555
0.0374997783333333, 239.045709765667, -0.00117481269280655, 0.745,222.302764892578
0.0381663683333333, 239.057567578976, -0.00131626458780986, 0.7575,222.302764892578
0.0388333, 239.069537548725, -0.00122790252615662, 0.77125,229.45915222168
0.03949983, 239.081303392445, -0.00148843044006843, 0.785,226.682708740234
0.0401663866666667, 239.093771381997, -0.00155108529301715, 0.7975,224.011779785156
0.040833235, 239.105576432479, -0.00143708951891263, 0.81,219.851364135742
0.0414996766666667, 239.117613353829, -0.00175858187067314, 0.82375,219.851364135742
0.04216666, 239.129340047634, -0.00170080327283083, 0.83625,232.960388183594
0.042833025, 239.141168645155, -0.00170425009970463, 0.85,224.899139404297
0.0434997566666667, 239.152451393791, -0.00148768947732821, 0.86375,219.70964050293
0.0441667733333333, 239.16356952595, -0.00152674151580772, 0.87625,226.170181274414
0.0448330366666667, 239.174940323341, -0.000996384655101669, 0.89,226.170181274414
0.04549974, 239.187090106695, -0.000929324523457948, 0.90375,210.440567016602
0.04616656, 239.200321465278, -0.000527089727288002, 0.9175,215.678207397461
0.0468335683333333, 239.216084966405, -0.00068101199594791, 0.93,219.846710205078
0.0474998033333333, 239.231830185943, -0.000697179683853659, 0.94375,218.925155639648
0.0481665466666667, 239.246841763517, -0.00103913850762479, 0.9575,218.925155639648
0.0488333066666667, 239.261999285417, -0.0014524892454389, 0.97,258.152526855469
0.0494996916666667, 239.275298145034, -0.00191000526485213, 0.98375,212.342041015625
0.0501664933333333, 239.286232048695, -0.00201294659421302, 1.00125,213.338043212891
0.05099976, 239.297343495217, -0.00225328702213823, 1.01375,213.62809753418
0.051666545, 239.309021451157, -0.00240585035903374, 1.0275,220.600021362305
0.0523334983333333, 239.320416323658, -0.00250877068949549, 1.04125,220.600021362305
0.0529996266666667, 239.33203236902, -0.00243370396006942, 1.055,218.700302124023
0.053666775, 239.343570474068, -0.00236418395197928, 1.06875,213.080947875977
0.0543334583333333, 239.355013038567, -0.00208262859422374, 1.08125,213.568466186523
0.0549997116666667, 239.366456119142, -0.00173880536410054, 1.09375,214.631134033203
0.0556663616666667, 239.377707286859, -0.00139073734717223, 1.1075,214.631134033203
0.0563332483333333, 239.389045237328, -0.00156292419841496, 1.12125,214.281280517578
0.0569996916666667, 239.399992226043, -0.00156786645015261, 1.135,215.951065063477
0.0576666833333333, 239.411348157328, -0.00149774497229174, 1.14875,213.988510131836
0.0583330216666667, 239.423018407959, -0.00188090222670352, 1.16125,213.624801635742
0.058999755, 239.434233092103, -0.00194200615752171, 1.175,213.624801635742
0.0596671633333333, 239.445253813061, -0.0015971599787642, 1.18875,218.644927978516
0.0603331666666667, 239.457187581363, -0.00170146473964145, 1.20125,210.268783569336
0.0609998616666667, 239.468964535519, -0.00196300810260806, 1.215,219.536468505859
0.0616665833333333, 239.480296225572, -0.00164198522722829, 1.2275,212.979232788086
0.0623332316666667, 239.492291325183, -0.00167861938714467, 1.24125,212.979232788086
0.062999845, 239.504148775332, -0.00163968434281112, 1.25625,222.904434204102
0.06366672, 239.515771978288, -0.00168166273429024, 1.26875,207.617523193359
0.0643330066666667, 239.527264366735, -0.0016408347850197, 1.28125,213.893447875977
0.0649998133333333, 239.538392277056, -0.00167180072961723, 1.295,262.442230224609
0.06566661, 239.549114413066, -0.00132772551215178, 1.30875,262.442230224609
0.0663330716666667, 239.560437589462, -0.00141614757080241, 1.32125,223.745010375977
0.066999795, 239.571237581934, -0.00117430421828507, 1.335,221.480194091797
0.06766688, 239.583045285157, -0.0015572124852034, 1.34875,220.849029541016
0.0683333416666667, 239.59483949584, -0.00152169276930992, 1.36125,218.408996582031
0.06899974, 239.607141075246, -0.00210241860007345, 1.375,218.408996582031
0.0696663516666667, 239.618904177185, -0.0021332105534402, 1.38875,222.989227294922
0.0703331533333333, 239.631813776476, -0.00256498486588764, 1.40125,220.728851318359
0.0709999183333333, 239.644151455383, -0.00231979218166773, 1.415,225.326065063477
0.0716673633333333, 239.657422848037, -0.00244535987454126, 1.42875,227.699127197266
0.0723331066666667, 239.670265695503, -0.00227587138778884, 1.44125,227.699127197266
0.0730008366666667, 239.683800793243, -0.0020785817974186, 1.455,220.882873535156
0.073666565, 239.695926814858, -0.00184890733371031, 1.4675,225.262619018555
0.0743332, 239.707784679558, -0.00180708043463843, 1.48125,230.546997070313
0.074999775, 239.718812365406, -0.00162918037032349, 1.49375,227.517761230469
0.075666535, 239.729692442118, -0.00114671460409314, 1.5075,227.517761230469
0.0763331433333333, 239.740232080034, -0.000964442259420062, 1.52,221.223892211914
0.07699977, 239.751676522691, -0.000658948104086487, 1.53375,225.388977050781
0.07766695, 239.762612338615, -0.000425411334359671, 1.5475,222.016723632813
0.0783333616666667, 239.774110573822, -0.000467643213105446, 1.56,226.664825439453
0.0789998266666667, 239.785952061709, -0.00085234838977769, 1.57375,226.664825439453
0.0796665666666667, 239.797059343617, -0.00125194331857282, 1.58625,228.860198974609
0.0803330483333333, 239.807741817881, -0.00116070590134969, 1.6,227.912246704102
0.0809996433333333, 239.818628370165, -0.0012419523204649, 1.6125,221.578964233398
0.081666595, 239.834826352718, -0.000998003073809087, 1.62875,266.979461669922
0.082499685, 239.845666529301, -0.000601186005476381, 1.6425,221.059188842773
0.083166785, 239.856335800826, -0.000739866039736129, 1.65625,221.059188842773
0.08383474, 239.867553074274, -0.00082775112536537, 1.66875,223.217712402344
0.084499745, 239.878358202913, -0.000696705707614705, 1.6825,226.718826293945
0.0851664783333333, 239.888738706318, -0.000994176765954991, 1.695,221.21354675293
0.085833465, 239.899262698577, -0.00105169587683302, 1.70875,230.946838378906
0.08649976, 239.909823797235, -0.00102265283561803, 1.72125,230.946838378906
0.087166505, 239.920251045989, -0.00120659609633138, 1.735,225.259399414063
0.0878331383333333, 239.930535761736, -0.00151831493904369, 1.74875,227.42903137207
0.08849964, 239.940828440986, -0.00175536153244799, 1.7625,225.152526855469
0.0891665766666667, 239.950212764227, -0.00186197167753687, 1.77625,228.554824829102
0.0898331983333333, 239.956865093967, -0.00173798640518508, 1.78875,228.554824829102
0.0904996483333333, 239.964078090128, -0.00166324515937577, 1.8025,208.239639282227
0.0911665083333333, 239.971788888946, -0.00166024830986546, 1.81625,207.202331542969
0.0918330283333333, 239.979963118806, -0.00144859694091106, 1.83,195.22932434082
0.0924998883333333, 239.989232583565, -0.00138660955447057, 1.8425,201.536499023438
0.0931666933333333, 240.001874165817, -0.00170603650996647, 1.85625,201.536499023438
0.0938332316666667, 240.013635330071, -0.00165362614249861, 1.87,196.462219238281
0.0945016483333333, 240.025408827313, -0.00179570050625679, 1.8825,200.930419921875
0.0951665366666667, 240.036939474802, -0.00169705346116381, 1.89625,195.338729858398
0.0958338516666667, 240.048607997661, -0.00182976229531148, 1.90875,200.298782348633
0.096499725, 240.059987177786, -0.00166629150630638, 1.9225,200.298782348633
0.09716666, 240.071300429027, -0.00179386009867392, 1.93625,205.408157348633
0.0978332016666667, 240.082437976054, -0.00173877536554871, 1.95,201.350997924805
0.09849967, 240.093840767667, -0.00187244865127897, 1.9625,232.05989074707
0.099166335, 240.104778916797, -0.00187469103864441, 1.97625,200.913803100586
0.09983426, 240.115928040019, -0.00195184866313496, 1.98875,200.913803100586
0.100499756666667, 240.127144160297, -0.00197741937871879, 2.00375,199.795440673828
0.101166668333333, 240.138375435136, -0.00190281312608452, 2.01625,195.478302001953
0.101834575, 240.149203082369, -0.00183234666554714, 2.03,205.131057739258
0.102499745, 240.160175301011, -0.00183265714994112, 2.0425,197.189971923828
0.103166788333333, 240.171116248463, -0.00197092470488371, 2.05625,197.189971923828
0.103833071666667, 240.182110486901, -0.00193189966512846, 2.07,198.974044799805
0.10449969, 240.192878686162, -0.00207532846081407, 2.0825,194.779327392578
0.105166346666667, 240.203550431093, -0.00200549196863233, 2.09625,194.187698364258
0.105833076666667, 240.213893028082, -0.00153874241297733, 2.10875,194.187698364258
0.10649985, 240.223857881053, -0.00097996647973556, 2.12125,195.055953979492
0.107166586666667, 240.234357029897, -0.00103023195494545, 2.13625,188.871429443359
0.107833186666667, 240.244740896538, -0.000636854213928286, 2.15,185.124969482422
0.108499816666667, 240.255219710453, -0.000211210093579671, 2.16375,191.45344543457
0.109166508333333, 240.266011777291, -0.000369920121763688, 2.17625,189.316314697266
0.109833468333333, 240.277274514655, -0.000706014240076634, 2.19,189.316314697266
0.110500268333333, 240.28793967951, -0.000586246755848187, 2.20375,185.025451660156
0.111166565, 240.298547057867, -0.000639650073441041, 2.21625,184.292755126953
0.111833613333333, 240.309607994065, -0.000904139288424501, 2.22875,184.746917724609
0.112499741666667, 240.320393100798, -0.00105958548051191, 2.24125,178.566421508789
0.113166606666667, 240.331051002284, -0.000908376575586344, 2.255,178.566421508789
0.11383314, 240.342207973013, -0.00119180233941281, 2.26875,180.182342529297
0.1144997, 240.352976374514, -0.00121170783959036, 2.28125,219.471771240234
0.115166558333333, 240.364229752012, -0.00146908441182083, 2.295,178.307144165039
0.1158331, 240.374956429885, -0.00117480069336882, 2.3075,175.628005981445
0.116499705, 240.385530800489, -0.000873681818263439, 2.32125,175.628005981445
0.117166371666667, 240.395564116237, -0.000195135400986924, 2.335,173.401641845703
0.117833493333333, 240.406431769281, 0.000183184596416693, 2.34875,173.920364379883
0.118499781666667, 240.416273134694, 0.000748219715234709, 2.36125,174.096176147461
0.119166575, 240.426812802821, 0.00102457483421274, 2.37375,179.26057434082
0.119833161666667, 240.437188549765, 0.000731783540797014, 2.3875,179.26057434082
0.120500461666667, 240.448070106016, 0.000831717521240527, 2.4,180.08674621582
0.1211669, 240.458617519804, 0.000579145207681344, 2.41375,178.688629150391
0.121833186666667, 240.469179666662, 0.000325707437613956, 2.4275,174.139617919922
0.122500256666667, 240.479416904642, 8.06122484590046E-05, 2.43875,177.168319702148
0.123166478333333, 240.4894198912, 0.000215221487186926, 2.45375,177.168319702148
0.123853456666667, 240.499302020346, -0.000216717816966122, 2.46625,173.283172607422
0.124499696666667, 240.509082630017, -0.000139603690304527, 2.47875,166.209350585938
0.125166481666667, 240.519133633297, 1.91168373290583E-05, 2.4925,170.938140869141
0.125833166666667, 240.529142114735, 5.88558412915367E-05, 2.505,171.209625244141
0.126499771666667, 240.539519292247, -2.12806335314666E-05, 2.51875,171.209625244141
0.127166535, 240.549985452643, 0.000249637258528316, 2.5325,177.000076293945
0.127833078333333, 240.560643929476, 0.000112920625652498, 2.545,181.951171875
0.128499743333333, 240.570970139615, -0.000212140046900977, 2.55875,180.567764282227
0.129166475, 240.582107407591, -0.000535858286900996, 2.5725,180.834518432617
0.129833198333333, 240.592362550409, -0.000872531376118616, 2.58625,180.834518432617
0.130499765, 240.602596739586, -0.00109657512261814, 2.59875,180.43017578125
0.131166773333333, 240.612779505361, -0.00102545019516146, 2.6125,214.688995361328
0.131833793333333, 240.623351127787, -0.000869995003527625, 2.625,182.676025390625
0.132499696666667, 240.633427075823, -0.000782577894375963, 2.63875,179.545486450195
0.1331665, 240.644557190571, -0.000595409795664255, 2.6525,179.545486450195
0.13383343, 240.655522580904, -0.000761346460855905, 2.66625,181.970184326172
0.134500076666667, 240.666689737521, -0.00105769857542133, 2.68,174.241165161133
0.13516682, 240.677663173653, -0.00133469716205337, 2.69375,177.132080078125
0.1358333, 240.688614595094, -0.0012826692753721, 2.705,175.214935302734
0.136500071666667, 240.699382508103, -0.00126213680668772, 2.72,175.214935302734
0.13716676, 240.710013036292, -0.0011743297171487, 2.7325,176.310104370117
0.137834201666667, 240.720897401236, -0.00105714210336145, 2.74625,178.688262939453
0.138499978333333, 240.731977739616, -0.000959765494471827, 2.76,171.214538574219
0.139166808333333, 240.743308681198, -0.00123372823360158, 2.7725,175.703704833984
0.139833543333333, 240.754131270972, -0.0012430607648327, 2.78625,175.703704833984
0.140499978333333, 240.76487729157, -0.000929509014202057, 2.8,170.127059936523
0.141166793333333, 240.775576722017, -0.000725429264931805, 2.81375,171.422805786133
0.141833625, 240.785954094288, -0.000689678560658974, 2.8275,169.586380004883
0.142500066666667, 240.796273743082, -0.000505198326881732, 2.83875,171.181457519531
0.143166851666667, 240.80707309925, -0.000295523858630895, 2.85375,171.181457519531
0.143833331666667, 240.818069138411, -0.000754823288520924, 2.86625,183.174865722656
0.144500128333333, 240.828829239441, -0.000747481157312985, 2.88,172.017730712891
0.145166643333333, 240.839366304834, -0.000404452887272294, 2.8925,181.6572265625
0.145833485, 240.850258020617, -0.000581475495641293, 2.90625,172.451202392578
0.146499953333333, 240.86143828064, -0.000831965913746181, 2.92,172.451202392578
0.14716679, 240.872587256508, -0.000568457649492484, 2.93375,172.858795166016
0.147833525, 240.883781307482, -0.000859131049268231, 2.9475,212.1025390625
0.148499973333333, 240.894876522487, -0.00111624063491242, 2.96,175.385848999023
0.149166686666667, 240.9057238052, -0.00109353327550325, 2.97375,178.294128417969
0.149833391666667, 240.916438338766, -0.000892913852405175, 2.98625,178.294128417969
0.150500006666667, 240.927107163837, -0.000925021239707378, 3,175.536773681641
0.151166886666667, 240.936902980565, -0.000709788050619124, 3.01375,173.906143188477
0.151833548333333, 240.947638882192, -0.000807499142693182, 3.0275,180.393218994141
0.15250011, 240.957996656446, -0.000838315094807876, 3.04,179.515563964844
0.153166586666667, 240.968873829995, -0.00111702509550285, 3.05375,179.515563964844
0.153833901666667, 240.979286744442, -0.00112145437303081, 3.06625,175.362335205078
0.154500085, 240.990321718436, -0.0013880629815999, 3.08,179.048934936523
0.155167161666667, 241.000806316362, -0.00143845145063211, 3.09375,179.248733520508
0.155833423333333, 241.011384433999, -0.00116176184846965, 3.10625,178.914962768555
0.15650008, 241.021383268217, -0.000989741488878189, 3.11875,178.914962768555
0.157166845, 241.032531675058, -0.00101100592079888, 3.1325,177.503280639648
0.157833386666667, 241.043238921023, -0.000916230181270843, 3.14625,185.241012573242
0.158500218333333, 241.054237067134, -0.000771134969254402, 3.16,183.412689208984
0.15916717, 241.064981164396, -0.000905955697344437, 3.1725,178.043960571289
0.159833805, 241.075556824607, -0.00147492361867043, 3.185,178.043960571289
0.160501943333333, 241.085920726812, -0.00149387666670313, 3.19875,181.023742675781
