Time (min), Depth (µm), Load (N), Position (µm), Acoustic (aJ)
9.17333333333333E-06, 239.089031780441, -0.000251244119267297, 0,180.084442138672
0.000663815, 239.088455635989, -0.000764677330083346, 0.00250000000000001,175.835586547852
0.001331105, 239.086967372007, -0.000819735064611805, 0.01,180.551528930664
0.00199707666666667, 239.085340623394, -0.00114535670895586, 0.03,197.131591796875
0.00266366833333333, 239.085337039131, -0.00104752262305948, 0.0475,219.99739074707
0.00333038833333333, 239.086907205201, -0.00113084793771642, 0.06125,219.99739074707
0.00399703333333333, 239.091015256947, -0.000968826075897401, 0.075,226.300079345703
0.00466369166666667, 239.098184816981, -0.00116838805207864, 0.09125,218.02587890625
0.00549705166666667, 239.107844801883, -0.00135249930438892, 0.10625,214.972427368164
0.00616372666666667, 239.117889150367, -0.0015054181234105, 0.12,215.411895751953
0.006830445, 239.128527842596, -0.00137292227852809, 0.135,217.414520263672
0.00749697833333333, 239.139997910783, -0.00173218723303959, 0.1475,217.414520263672
0.00816369833333333, 239.151852154053, -0.00181418511440836, 0.16375,217.409820556641
0.00899726, 239.169353249879, -0.00172924438087156, 0.1775,219.203994750977
0.009663695, 239.181563238993, -0.00154290274061231, 0.19125,170.975219726563
0.0103314433333333, 239.193639382049, -0.0019382858809392, 0.205,267.644104003906
0.0109972333333333, 239.205342768015, -0.00183997181910626, 0.21875,221.751968383789
0.011663655, 239.217098755147, -0.00141777152578264, 0.23125,221.751968383789
0.0123303533333333, 239.229522707835, -0.00153447916367583, 0.24375,218.116577148438
0.0129971583333333, 239.24206908504, -0.00199151220738871, 0.2575,223.212753295898
0.0136638033333333, 239.254352604001, -0.00192816288933502, 0.27125,223.802719116211
0.0143303966666667, 239.267157404772, -0.00184208821280057, 0.285,230.843765258789
0.0149971133333333, 239.279770280517, -0.00185150623974394, 0.2975,230.843765258789
0.01566375, 239.292813609098, -0.0020448165299922, 0.31125,226.160995483398
0.0163304983333333, 239.306065257969, -0.00201823336524489, 0.32375,227.67204284668
0.0169978066666667, 239.31936583887, -0.00201589498276014, 0.3375,229.065795898438
0.0176637966666667, 239.3326348976, -0.00216393304692336, 0.35125,227.832550048828
0.0183306516666667, 239.345849410732, -0.00213172216483734, 0.36375,227.832550048828
0.0189972083333333, 239.35871699142, -0.00195529352668081, 0.3775,225.967224121094
0.01966368, 239.371035467129, -0.00167362417460686, 0.39,229.299194335938
0.0203308616666667, 239.383409131953, -0.00158774598816924, 0.40375,225.905700683594
0.0209971866666667, 239.395528720444, -0.00154340671525432, 0.4175,224.112457275391
0.0216637216666667, 239.407833022358, -0.00154128732171119, 0.43,224.112457275391
0.0223306133333333, 239.419815486803, -0.00148707554469495, 0.4425,228.659866333008
0.0229970083333333, 239.431970827106, -0.00157270324371471, 0.45625,228.568084716797
0.0236636883333333, 239.443873018158, -0.0015614283100413, 0.46875,227.177154541016
0.0243303016666667, 239.455783747396, -0.00117825005668788, 0.48375,223.87776184082
0.0249971383333333, 239.467571653566, -0.00103206289951458, 0.49625,223.87776184082
0.0256637916666667, 239.479575019125, -0.000924302312238366, 0.51,230.113967895508
0.026330385, 239.491498846622, -0.000728980623046524, 0.5225,229.664245605469
0.0269971516666667, 239.503689278167, -0.000705805287117271, 0.53625,267.822448730469
0.0276638666666667, 239.515724819309, -0.00061318343943614, 0.54875,223.055801391602
0.0283303916666667, 239.527910640784, -0.0005959298060924, 0.56125,223.055801391602
0.0289973866666667, 239.539767901999, -0.000855448270732045, 0.57625,229.481353759766
0.0296636683333333, 239.552095465259, -0.000831713462915361, 0.58875,225.304626464844
0.0303319883333333, 239.563787525286, -0.000748068664339277, 0.60125,229.119979858398
0.0309970633333333, 239.575759911977, -0.00115532070844578, 0.615,229.119979858398
0.0316636666666667, 239.587207965413, -0.00151170730751732, 0.6275,225.627304077148
0.0323305916666667, 239.598471728283, -0.00138682658021177, 0.64125,220.914123535156
0.032997055, 239.608842155922, -0.00167587706150689, 0.655,224.932556152344
0.0336636466666667, 239.619868584033, -0.00181141175369789, 0.6675,224.779235839844
0.03433063, 239.630728664403, -0.0017886278981229, 0.68125,223.235549926758
0.0349973733333333, 239.64183659644, -0.00163595656664911, 0.695,223.235549926758
0.0356645383333333, 239.652752026429, -0.00160698102203226, 0.7075,217.977966308594
0.03633039, 239.664523205644, -0.00150246177192284, 0.72,219.603729248047
0.0369970416666667, 239.676682658451, -0.0013270515825849, 0.735,215.420440673828
0.0376637516666667, 239.692779674555, -0.00135394823159626, 0.7475,222.287689208984
0.038330345, 239.708130327718, -0.00136692257989487, 0.76125,222.287689208984
0.038997045, 239.723794816595, -0.00143534614305494, 0.77375,216.962753295898
0.0396637016666667, 239.73859763868, -0.00105602119613111, 0.7875,218.911102294922
0.0403303616666667, 239.753112219998, -0.00113670664341323, 0.80125,218.286315917969
0.0409969533333333, 239.763844673573, -0.00128319378553094, 0.815,219.072860717773
0.0416639166666667, 239.775261825224, -0.00133346826028725, 0.8275,219.072860717773
0.0423302783333333, 239.786864994996, -0.0012627423127856, 0.84125,217.932037353516
0.0429975066666667, 239.798267357082, -0.00137934795581937, 0.855,217.487976074219
0.04366381, 239.809818874847, -0.0014574565325091, 0.86875,261.960327148438
0.044330495, 239.820656007709, -0.00122851853181033, 0.8825,210.053100585938
0.0449972933333333, 239.831778653818, -0.00109275135127306, 0.895,210.053100585938
0.0456637466666667, 239.842685286592, -0.00114952049977944, 0.9075,214.897323608398
0.0463307766666667, 239.854145242379, -0.00149648907195012, 0.92125,217.393157958984
0.0469970316666667, 239.865138654443, -0.00142994491436489, 0.935,213.516632080078
0.0476637016666667, 239.87646972796, -0.00135320426900723, 0.9475,217.905364990234
0.0483302783333333, 239.887534265571, -0.00142685956935729, 0.96125,217.905364990234
0.0489970533333333, 239.898429890577, -0.00145182581534284, 0.975,216.26139831543
0.049663755, 239.909312235783, -0.00125304529986072, 0.98875,217.576278686523
0.0503306433333333, 239.92030945322, -0.00129718058299304, 1.0025,215.304718017578
0.0509972533333333, 239.931027150036, -0.00116444625006675, 1.01625,219.788970947266
0.05166366, 239.941919471959, -0.00128036792746636, 1.02875,219.788970947266
0.0523305033333333, 239.953086890226, -0.00107535072527404, 1.0425,217.319793701172
0.0529972133333333, 239.964357225725, -0.00134147185828455, 1.05625,212.287780761719
0.0536636516666667, 239.975353796805, -0.00126048342625172, 1.07,217.523956298828
0.054330455, 239.986802511899, -0.0014697214164587, 1.0825,212.362915039063
0.05499724, 239.997849242304, -0.00141835499652428, 1.09625,212.362915039063
0.0556636733333333, 240.008784267893, -0.00144699155814098, 1.10875,221.079940795898
0.0563304983333333, 240.019617652741, -0.00133737856384417, 1.1225,217.868667602539
0.0569970416666667, 240.030761919207, -0.00124937348426266, 1.13625,215.586502075195
0.057663665, 240.041661081532, -0.00118384927548418, 1.15,219.291885375977
0.058330445, 240.052852239743, -0.00117675763171535, 1.1625,219.291885375977
0.0589970266666667, 240.065159361634, -0.0014499479096924, 1.17625,223.767456054688
0.059663785, 240.077257325648, -0.00163553208800048, 1.18875,225.731307983398
0.0603303516666667, 240.089612637151, -0.00159458564472334, 1.2025,262.688079833984
0.0609973083333333, 240.101670335356, -0.00144622359678275, 1.21625,220.463729858398
0.0616637683333333, 240.114686083324, -0.00138565963883475, 1.22875,220.463729858398
0.06233049, 240.127309758318, -0.00140282177676863, 1.24125,218.149932861328
0.0629970666666667, 240.140144704851, -0.00129129787852703, 1.255,229.69450378418
0.0636636933333333, 240.152179934577, -0.00141131735003397, 1.26875,226.61555480957
0.0643304583333333, 240.165164697742, -0.00158181378617667, 1.28125,230.157165527344
0.0649970666666667, 240.176739452692, -0.00179396463004237, 1.295,230.157165527344
0.0656637666666667, 240.188161933764, -0.00164438614321944, 1.3075,221.074981689453
0.0663304466666667, 240.199500282492, -0.00158458264707142, 1.32125,225.663833618164
0.06699758, 240.211126986852, -0.00160591607553591, 1.335,225.561157226563
0.0676638816666667, 240.222336639244, -0.0016431232066381, 1.3475,228.91357421875
0.0683305166666667, 240.234495362435, -0.00167504910302375, 1.36,228.91357421875
0.0689972933333333, 240.245269611515, -0.00188604650485331, 1.37375,224.454299926758
0.0696636766666667, 240.256219453563, -0.0017655470574098, 1.3875,228.486175537109
0.070330395, 240.267637228487, -0.00158763649366655, 1.40125,226.073471069336
0.0709971566666667, 240.278889605218, -0.00162083582610436, 1.415,224.03742980957
0.0716637816666667, 240.289829700663, -0.00154146881262775, 1.42625,224.03742980957
0.07233039, 240.301719959417, -0.00152816448087541, 1.44125,223.493133544922
0.0729970683333333, 240.313403532551, -0.00172525308131185, 1.45375,220.265197753906
0.073663835, 240.325198013857, -0.00223291158215516, 1.46625,223.468536376953
0.07433036, 240.336697151444, -0.00200063624910653, 1.48,222.688262939453
0.0749969516666667, 240.347978767181, -0.00183329565443963, 1.4925,222.688262939453
0.0756636016666667, 240.359409219483, -0.00155859495237596, 1.50625,228.267074584961
0.0763303266666667, 240.370480912741, -0.00130580364979014, 1.52,230.587905883789
0.07699707, 240.381488516326, -0.00093672768809911, 1.5325,267.312286376953
0.0776636883333333, 240.392493456358, -0.000955766231801539, 1.54625,227.809753417969
0.0783303766666667, 240.403820737266, -0.000937683140114018, 1.56,227.809753417969
0.078998515, 240.414461505018, -0.000821621969766152, 1.5725,225.692672729492
0.0796651566666667, 240.42592221887, -0.000879751549961327, 1.58625,223.498184204102
0.0803319933333333, 240.434634106477, -0.00105071746252727, 1.6,225.447036743164
0.0809972083333333, 240.441054636641, -0.00117105941788718, 1.6125,214.181503295898
0.0816636666666667, 240.447740410727, -0.00117389577542258, 1.62625,214.181503295898
0.0823303416666667, 240.454816923544, -0.00149707254256425, 1.64,203.511871337891
0.0829970666666667, 240.461289219303, -0.00152702453813765, 1.65375,207.277374267578
0.0836637283333333, 240.470211361333, -0.00151696604336782, 1.66625,206.700973510742
0.0843304566666667, 240.481264740619, -0.00122273632223683, 1.68125,204.290725708008
0.0849972316666667, 240.492108210989, -0.00110111493112715, 1.6925,204.290725708008
0.0856638166666667, 240.502890371997, -0.000982016413288823, 1.70625,204.925598144531
0.0863303383333333, 240.51351224609, -0.00110752860898069, 1.72,205.264511108398
0.08699721, 240.524201015249, -0.000916819188136521, 1.73375,202.269165039063
0.0876638683333333, 240.53521813416, -0.00131495019041651, 1.74625,206.233596801758
0.0883303183333333, 240.545964681393, -0.00149042037675184, 1.76,206.233596801758
0.0889971166666667, 240.556648756368, -0.00155899243247035, 1.77375,201.520751953125
0.089663675, 240.567537430675, -0.00125271981613769, 1.78625,205.157745361328
0.0903303133333333, 240.577869125736, -0.000946042220216144, 1.8,201.55322265625
0.09099708, 240.587898517073, -0.000692367462029279, 1.81375,207.436492919922
0.0916637116666667, 240.598053345172, -0.000925064273877729, 1.82625,207.436492919922
0.09233047, 240.608420702586, -0.00080733818714469, 1.84,203.078048706055
0.0929986, 240.618141608177, -0.00101849008120904, 1.85375,240.310882568359
0.093665235, 240.628747434066, -0.00155610357747456, 1.8675,204.942520141602
0.09433206, 240.639138596132, -0.00140889947138582, 1.88125,192.535034179688
0.0949969833333333, 240.649318092999, -0.00105398429843017, 1.8925,192.535034179688
0.0956652666666667, 240.659736113458, -0.000942935876245645, 1.90625,197.564392089844
0.09633198, 240.670320600792, -0.000719123118125478, 1.92,196.604537963867
0.09699862, 240.68087111345, -0.000530359099508638, 1.9325,200.261169433594
0.097663745, 240.692133704549, -0.000913337862916429, 1.94625,193.827133178711
0.0983303216666667, 240.70343288664, -0.0012559701528509, 1.96,193.827133178711
0.0989969816666667, 240.714612774275, -0.00151517813309656, 1.97375,191.69091796875
0.0996636683333333, 240.726132210367, -0.00166916039875385, 1.9875,197.063400268555
0.100330343333333, 240.737565006636, -0.00158717901659603, 2,203.755706787109
0.100996993333333, 240.749112520147, -0.00139763203729191, 2.0125,191.962738037109
0.10166374, 240.760185975874, -0.00116219486302736, 2.02625,191.962738037109
0.10233055, 240.771330628923, -0.000726994722690275, 2.04,193.884078979492
0.102997005, 240.782764566323, -0.000722209963014972, 2.0525,188.790222167969
0.103663675, 240.794244409415, -0.000670702550186648, 2.06625,186.90168762207
0.104330621666667, 240.80522009847, -0.000719432102595057, 2.08,180.097106933594
0.104997158333333, 240.81654326312, -0.00045714627696381, 2.0925,180.097106933594
0.105663761666667, 240.827868722197, -0.000757119209612559, 2.10625,186.9091796875
0.10633035, 240.839414173031, -0.000657791198755487, 2.11875,184.838973999023
0.106997121666667, 240.849626037949, -0.000389582170571816, 2.1325,188.208251953125
0.1076636, 240.860883209412, -0.000161509626423757, 2.14625,184.669250488281
0.108330408333333, 240.872005165937, -0.000327045811714721, 2.1575,184.669250488281
0.108997075, 240.883308798972, -0.000220863145165785, 2.17125,188.985626220703
0.109663665, 240.894001443614, -0.000133891513668161, 2.185,219.418960571289
0.110330398333333, 240.905500191547, -0.000625482821540739, 2.19875,185.635223388672
0.110996936666667, 240.916398892372, -0.000544368395858033, 2.21125,182.25
0.11166366, 240.927466591254, -0.000666529759859162, 2.225,182.25
0.112330626666667, 240.938049342263, -0.000395239886483609, 2.2375,181.597396850586
0.112997118333333, 240.948589849395, -0.000584912859437602, 2.25125,185.149932861328
0.113663711666667, 240.959756974917, -0.000736520744318201, 2.26375,185.003890991211
0.114330331666667, 240.970443007816, -0.000933708339786508, 2.27625,177.164657592773
0.11499703, 240.981061495942, -0.0008488111040574, 2.29,177.164657592773
0.115663826666667, 240.991561737863, -0.00123079391744889, 2.30375,176.817596435547
0.116330863333333, 241.002995411403, -0.00130304828819376, 2.31625,179.765213012695
0.116997078333333, 241.013165210858, -0.00108130692605707, 2.32875,186.655609130859
0.117663861666667, 241.024131608667, -0.00138665858857233, 2.3425,184.029357910156
0.118330388333333, 241.035272535238, -0.00166839243737437, 2.35625,184.029357910156
0.118997196666667, 241.046085589272, -0.00161049684540736, 2.37,181.656967163086
0.119663663333333, 241.056718582394, -0.00169185575883156, 2.3825,191.953765869141
0.120330535, 241.067953522853, -0.00189453307855097, 2.39625,181.169357299805
0.12099731, 241.078398840549, -0.00161483912727743, 2.41,189.934432983398
0.121663733333333, 241.08878838923, -0.0014492744434228, 2.4225,189.934432983398
0.122331561666667, 241.099226836906, -0.00130308128657314, 2.43625,186.883224487305
0.122997126666667, 241.109311130433, -0.00132455120817959, 2.45,180.584014892578
0.123663655, 241.119078824111, -0.000846876201258386, 2.46375,186.587554931641
0.124330403333333, 241.129008743057, -0.000834447825548836, 2.4775,186.191619873047
0.124998546666667, 241.138825137403, -0.000570729571836175, 2.49,186.191619873047
0.125663711666667, 241.149354527243, -0.000420908097196159, 2.50375,188.121978759766
0.126330426666667, 241.159514405196, -0.000154351986023689, 2.51625,220.166412353516
0.126998568333333, 241.17029326302, -0.000234239473374498, 2.53125,177.700546264648
0.127665141666667, 241.181035484684, -0.000144407485508508, 2.54375,179.09733581543
0.128331961666667, 241.192258646622, -0.000153999503746415, 2.55625,179.09733581543
0.128998481666667, 241.202873809354, -0.000487501752286704, 2.57,178.948547363281
0.129663925, 241.214367620774, -0.000456795294632194, 2.58375,180.200973510742
0.130330351666667, 241.225625957475, -0.000730696536861409, 2.5975,176.516540527344
0.130996956666667, 241.236707259494, -0.00101693315950843, 2.61,179.935943603516
0.131663701666667, 241.247764745662, -0.00145026589366589, 2.6225,179.935943603516
0.132330345, 241.258675727098, -0.00114904352371293, 2.63625,180.832153320313
0.132997215, 241.269323737725, -0.00132816752651096, 2.65125,180.957809448242
0.133663653333333, 241.279788654566, -0.00111181539364784, 2.66375,177.744003295898
0.134330346666667, 241.29064156351, -0.00125806104787287, 2.67625,178.176513671875
0.134996951666667, 241.300863935052, -0.000828344632068021, 2.69,178.176513671875
0.135663753333333, 241.311943961846, -0.00117416126206321, 2.70375,181.342437744141
0.136330378333333, 241.322348210316, -0.00125150637710416, 2.7175,179.681091308594
0.13699722, 241.333460399078, -0.00127620863633098, 2.73125,177.842437744141
0.137663711666667, 241.344194212739, -0.00106720613429782, 2.745,180.883712768555
0.138330476666667, 241.35521628864, -0.00149324023503379, 2.7575,180.883712768555
0.138998241666667, 241.365910383248, -0.00172013083853954, 2.77125,181.01155090332
0.139663685, 241.377073068613, -0.0016767785160945, 2.785,179.646102905273
0.140330376666667, 241.387637178203, -0.00157595808020114, 2.7975,180.136901855469
0.140997386666667, 241.398737918572, -0.0014132462530716, 2.81125,182.920425415039
0.141663633333333, 241.409274273012, -0.00126375176201526, 2.82375,182.920425415039
0.142330301666667, 241.419829512762, -0.000768883118768958, 2.8375,176.278366088867
0.142997041666667, 241.430225941282, -0.000508289208140889, 2.85125,213.671646118164
0.143663698333333, 241.440560654346, -0.000771927965817669, 2.865,182.016845703125
0.144330386666667, 241.450884925757, -0.000946166713962869, 2.8775,180.717147827148
0.144997078333333, 241.461608538728, -0.000857327676264377, 2.89,180.717147827148
0.145663683333333, 241.472635435442, -0.00101075046997048, 2.90375,185.675964355469
0.146330361666667, 241.483264900947, -0.00103089895794386, 2.91625,188.477157592773
0.146997135, 241.494475167589, -0.00119367078209203, 2.93,186.183898925781
0.147663665, 241.505174153736, -0.00119634064801867, 2.9425,184.668029785156
0.148330578333333, 241.516131926223, -0.00125780306081174, 2.95625,184.668029785156
0.148997148333333, 241.526957824856, -0.00162265523470307, 2.97,182.885070800781
0.14966377, 241.537827601412, -0.00171647552219494, 2.98375,183.823059082031
0.150330598333333, 241.548596151082, -0.00171800394539566, 2.99625,191.081115722656
0.150997038333333, 241.559675815511, -0.00187178972087111, 3.01,186.002319335938
0.151663681666667, 241.570815440302, -0.00198872534733736, 3.0225,186.002319335938
0.152330338333333, 241.581559522332, -0.0020677458781918, 3.03625,191.390518188477
0.152997026666667, 241.592732525457, -0.00239105313882031, 3.05,192.097396850586
0.153663951666667, 241.60316367905, -0.00210168617343359, 3.06375,189.634643554688
0.154330398333333, 241.614084768599, -0.00181049979938441, 3.07625,188.578460693359
0.154997171666667, 241.62457659174, -0.00179935235930652, 3.09,188.578460693359
0.155663776666667, 241.635045963254, -0.00138464568959808, 3.10125,186.896423339844
0.156330521666667, 241.645585934506, -0.00116872253517806, 3.115,185.979766845703
0.156997135, 241.656292616253, -0.0012869480968224, 3.12875,184.100311279297
0.157663693333333, 241.666434678362, -0.00132218282699424, 3.1425,183.604598999023
0.158330336666667, 241.676867849862, -0.00120898201295097, 3.155,183.604598999023
0.158997078333333, 241.687353861947, -0.0012701519404429, 3.1675,183.364028930664
0.159663673333333, 241.698046411657, -0.00129959246168852, 3.18125,221.943756103516
