Time (min), Depth (µm), Load (N), Position (µm), Acoustic (aJ)
9.48E-06, 237.63608188812, 0.000678932686120903, 0,163.06575012207
0.000664575, 237.636316665247, 0.00035014770065777, 0.00374999999999985,163.06575012207
0.00133125166666667, 237.635546755614, 0.000159492277070865, 0.0162499999999998,194.276031494141
0.00199788833333333, 237.635397691347, 0.000201145184869457, 0.0337499999999999,162.840744018555
0.00266472333333333, 237.637229920094, -0.000136037878794049, 0.0499999999999999,164.329010009766
0.00333124333333333, 237.640995598275, -0.000846351200469466, 0.0624999999999998,163.557357788086
0.00399789333333333, 237.645696843127, -0.00092032898469375, 0.0774999999999999,163.557357788086
0.00466453, 237.652513668524, -0.000789211570592982, 0.0899999999999998,162.72981262207
0.00533137666666667, 237.660574357564, -0.000893355839559079, 0.10375,165.712173461914
0.00599887333333333, 237.668897174623, -0.00074636172286554, 0.1175,159.903366088867
0.006665165, 237.677372662139, -0.000318083734839722, 0.13125,158.979995727539
0.00733253833333333, 237.686674818738, -0.000115937388422827, 0.145,158.979995727539
0.00799787666666667, 237.696320337486, -0.000310606610414236, 0.1575,165.076690673828
0.00866453666666667, 237.70637698547, -0.000110071183061489, 0.17125,162.236755371094
0.00933143333333333, 237.716626911978, -0.000130116176251045, 0.185,166.512298583984
0.009997935, 237.726639652723, -0.000225203900076214, 0.1975,166.512298583984
0.0106645633333333, 237.736935899948, -0.000516273279958183, 0.21125,170.979125976563
0.0113312066666667, 237.747634326612, -0.000380276610923454, 0.225,160.967636108398
0.011997975, 237.758563659014, -0.000228781220415607, 0.23875,168.793838500977
0.0126647133333333, 237.769739035486, -9.99021004771079E-06, 0.2525,166.323577880859
0.013331915, 237.78152687644, -7.94581274600481E-06, 0.26375,166.323577880859
0.0139980733333333, 237.793213146492, 0.000566939311392295, 0.2775,160.418472290039
0.01466463, 237.805179740898, 0.000554677427291507, 0.29125,168.797546386719
0.0153313816666667, 237.817046884646, 0.000329276248951987, 0.30375,162.052047729492
0.015997865, 237.828853746154, 7.07582340168381E-05, 0.3175,157.384414672852
0.0166646, 237.84024044326, -4.19131065845503E-05, 0.33,165.905868530273
0.017331325, 237.852028647297, -0.000240963608501769, 0.34375,165.905868530273
0.01799795, 237.863622709487, -0.00013913822308819, 0.3575,196.888610839844
0.0186645966666667, 237.875515492059, -0.000363684444369075, 0.37,165.540954589844
0.0193312516666667, 237.887792605256, -0.000226510334486501, 0.38375,156.586685180664
0.0199984233333333, 237.899926559604, -0.00025286701062767, 0.39625,158.546844482422
0.0206646083333333, 237.911707044324, -0.000251961056139324, 0.40875,158.546844482422
0.02133125, 237.92350005945, -0.000181476596509104, 0.4225,160.491119384766
0.0219980133333333, 237.934817308744, -0.000185490394892353, 0.43625,164.154693603516
0.0226645983333333, 237.945751041666, -0.000280915601772018, 0.44875,162.999938964844
0.0233311866666667, 237.957032748836, -0.000243811965496162, 0.4625,163.86784362793
0.0239980916666667, 237.96870135848, -0.000464741868445677, 0.475,163.86784362793
0.02466454, 237.980199589527, -0.000921671417353477, 0.48875,160.296966552734
0.02533117, 237.991902318499, -0.00109793656375005, 0.5025,167.681976318359
0.0259979366666667, 238.003967125619, -0.00125470568943744, 0.515,161.856552124023
0.0266646533333333, 238.016014246475, -0.00120209133220823, 0.52875,171.265594482422
0.0273314433333333, 238.027876294136, -0.00137256826931243, 0.54125,171.265594482422
0.0279978433333333, 238.039690928128, -0.000996342166758337, 0.555,167.745834350586
0.0286644983333333, 238.051148805739, -0.000649475589510832, 0.5675,163.553192138672
0.0293311716666667, 238.062716674382, -0.000879421539536117, 0.58125,169.059799194336
0.0299978083333333, 238.074383997693, -0.000807629145571208, 0.59375,158.417465209961
0.030664805, 238.086036783394, -0.000535496314510991, 0.6075,158.417465209961
0.0313324216666667, 238.098011612531, -0.000448182700164408, 0.62125,160.288482666016
0.0319994483333333, 238.110706437597, -0.000525350824104519, 0.63375,162.279403686523
0.0326652716666667, 238.123010988076, -0.000328596706831263, 0.65125,161.922607421875
0.0333312516666667, 238.134015211945, -0.000363751941030984, 0.6625,167.359588623047
0.0339987283333333, 238.144683925734, -0.000397980221779458, 0.67375,167.359588623047
0.0346646, 238.155193600699, -0.000354437408892695, 0.68875,205.095733642578
0.0353312533333333, 238.165379305453, -0.00019289702289214, 0.70125,168.835342407227
0.0359979383333333, 238.175910094849, -0.000324567909203981, 0.715,176.062484741211
0.03666452, 238.187885065969, -0.000502710961229738, 0.72875,169.188766479492
0.0373319166666667, 238.200024248486, -0.000373294461678567, 0.7425,169.188766479492
0.0379978916666667, 238.212290168925, -0.000286271832729978, 0.755,167.606384277344
0.0386664283333333, 238.225047192865, -0.000196393347228741, 0.76875,171.965667724609
0.0393314533333333, 238.237389901421, 5.30321244010552E-05, 0.7825,175.320495605469
0.0399993966666667, 238.249714520345, 0.000365536927585687, 0.795,171.136169433594
0.040665325, 238.261643074094, 0.000403228534376399, 0.80875,171.136169433594
0.0413320733333333, 238.274081404357, 0.000174422527046368, 0.8225,177.063507080078
0.0419979566666667, 238.285845029257, 0.00019937377378789, 0.83625,174.405471801758
0.0426646716666667, 238.297463072099, 0.000428469266570258, 0.84875,171.072769165039
0.043332885, 238.309268011423, 0.00046114662520946, 0.8625,174.145233154297
0.0439979583333333, 238.321761558291, 0.000343408539059941, 0.875,174.145233154297
0.0446655533333333, 238.333661889013, 0.000345469435551337, 0.88875,168.067169189453
0.0453312833333333, 238.345521867451, 0.000259034777053841, 0.9025,173.749847412109
0.04599795, 238.357316791672, 0.000401320630174135, 0.91625,166.148895263672
0.0466651583333333, 238.369019330408, 0.000285796432847652, 0.92875,176.263259887695
0.047332185, 238.380717191033, 0.000261505152971088, 0.9425,176.263259887695
0.0479989216666667, 238.392114561634, 0.000178928300697648, 0.95625,173.423324584961
0.0486646766666667, 238.403797672872, 0.000196435421329301, 0.96875,178.642715454102
0.0493313233333333, 238.416045232854, 1.64729606410735E-05, 0.98375,183.74543762207
0.049998, 238.428117319321, 0.000295113964770985, 0.99625,211.230163574219
0.0506645966666667, 238.440079461266, 0.000298532293081124, 1.00875,211.230163574219
0.0513313083333333, 238.452300353457, 0.000655437866102469, 1.0225,175.004257202148
0.0519979683333333, 238.465141976093, 0.000693418958345518, 1.03625,177.930648803711
0.0526661766666667, 238.477398238663, 0.000705067373280358, 1.04875,177.416397094727
0.0533312866666667, 238.490009658054, 0.000207564862335597, 1.0625,170.500335693359
0.05399958, 238.502320596531, 0.000384735963220518, 1.075,170.500335693359
0.0546646433333333, 238.514886895152, -0.00016322251337585, 1.08875,177.476043701172
0.05533324, 238.526538642073, -0.00010525642494063, 1.1025,174.593368530273
0.0559984433333333, 238.538661634518, 2.79983818173542E-05, 1.115,174.377258300781
0.0566661733333333, 238.550302249118, 0.000443033535033875, 1.12875,170.89729309082
0.05733191, 238.562437847329, 0.000518797729498742, 1.14125,170.89729309082
0.0579985183333333, 238.573942845187, 0.000754014414791002, 1.155,171.724700927734
0.05866465, 238.585989306626, 0.000790024606049358, 1.16875,171.91145324707
0.0593312616666667, 238.59756099461, 0.00094288342811607, 1.18125,166.424346923828
0.059999535, 238.609499814959, 0.000794812365552213, 1.195,168.962417602539
0.0606645316666667, 238.620930342343, 0.000704227415550771, 1.2075,168.962417602539
0.0613312033333333, 238.632762133167, 0.00049979818378829, 1.22125,168.095336914063
0.0619984483333333, 238.644345240183, 6.19026787884547E-05, 1.23375,172.999740600586
0.0626645166666667, 238.656280072429, -0.000364548401016638, 1.2475,173.48127746582
0.0633316033333333, 238.667579466103, -0.00046409540085784, 1.26,169.969284057617
0.06399855, 238.678686835839, -0.00067887561267004, 1.27,169.969284057617
0.0646660066666667, 238.688979038053, -0.000437129755281424, 1.28625,168.600646972656
0.0653312983333333, 238.699238758593, -0.000142375060481773, 1.3,178.305587768555
0.06599806, 238.710058859393, 0.000105889469447361, 1.31375,187.73307800293
0.0666645966666667, 238.720983562617, 5.93648063155688E-05, 1.32625,218.383087158203
0.0673312016666667, 238.732692784129, 0.000205020990143844, 1.34,218.383087158203
0.067997835, 238.744757376068, 0.000166535923216285, 1.35375,187.926391601563
0.0686645866666667, 238.756732314036, 0.000328674779138756, 1.3675,185.276657104492
0.06933117, 238.768223147104, 9.96152845633204E-05, 1.38,183.993957519531
0.0699978716666667, 238.780165569769, 0.000252397610485466, 1.3925,182.509887695313
0.0706655366666667, 238.791344239895, 0.000350950160319783, 1.40625,182.509887695313
0.0713312283333333, 238.802925822319, 0.000646003340096937, 1.41875,179.12141418457
0.071997985, 238.814308781955, 0.000608208238479892, 1.43375,184.135955810547
0.07266453, 238.825626524852, 0.00106190994949802, 1.44625,191.568283081055
0.0733317883333333, 238.836359635593, 0.000877242225170371, 1.45875,178.614120483398
0.073997935, 238.847547835113, 0.000890681550140258, 1.4725,178.614120483398
0.0746647266666667, 238.858816414072, 0.000599222189828425, 1.4875,181.039703369141
0.0753312183333333, 238.869917573205, 0.000412781554579822, 1.5,177.94319152832
0.0759978633333333, 238.881344153816, 0.000263281063847119, 1.5125,187.136260986328
0.076664595, 238.893066040983, 0.000444839444334209, 1.52625,183.4228515625
0.0773312916666667, 238.904763867292, 0.000227783846798439, 1.53875,183.4228515625
0.07799788, 238.916133465335, 0.00040812878827326, 1.5525,181.40576171875
0.0786650833333333, 238.927907276497, 0.000408376275821052, 1.56625,182.638854980469
0.0793311866666667, 238.938717468865, 0.00035053168128375, 1.57875,183.072830200195
0.0799978516666667, 238.949870386564, 0.000337801820705383, 1.59125,181.572631835938
0.0806651683333333, 238.960480171851, 0.000370666669937501, 1.60625,181.572631835938
0.0813311716666667, 238.971408260588, 0.000144853012302068, 1.61875,181.661254882813
0.08199791, 238.98228779686, 0.000236277920160621, 1.63375,175.345413208008
0.082664525, 238.993798199084, 8.27306326652897E-05, 1.6475,176.351379394531
0.0833312883333333, 239.005594872528, 0.000149507278554287, 1.66,218.008346557617
0.0839998316666667, 239.017622038475, 2.69889325239289E-05, 1.67375,218.008346557617
0.08466453, 239.0295593296, 0.000188731808318923, 1.6875,179.763519287109
0.08533132, 239.040810375189, 5.06472441535392E-05, 1.7,181.953079223633
0.0859978716666667, 239.052350322519, -1.59899087021929E-05, 1.715,177.862884521484
0.0866645683333333, 239.06301052133, 0.000127287394597434, 1.72625,179.115676879883
0.087331365, 239.073910216363, 0.000142087151234871, 1.74125,179.115676879883
0.0879978533333333, 239.084455536669, -7.01056905141189E-05, 1.75375,182.309112548828
0.0886645566666667, 239.095754789747, 0.000161659668152384, 1.7675,183.874588012695
0.0893312666666667, 239.106617528321, 0.00023327657089835, 1.78,186.919189453125
0.0899986066666667, 239.117798106688, 0.000275731938401464, 1.7925,182.564025878906
0.0906652283333333, 239.129319177533, 0.000488748238817875, 1.8075,182.564025878906
0.0913313, 239.141079502485, 0.000605410878957718, 1.82,188.263519287109
0.09199788, 239.152619706537, 0.000731520044625844, 1.83375,184.391510009766
0.092664695, 239.164219781294, 0.000827879704578771, 1.8475,188.252319335938
0.0933311933333333, 239.175837982767, 0.000506742834986857, 1.86,184.995010375977
0.0939978383333333, 239.18689797669, 0.000412912048002905, 1.8725,184.995010375977
0.09466452, 239.19766400166, 0.000392037596533332, 1.88625,188.604217529297
0.0953311766666667, 239.208681699215, -8.39334959469577E-05, 1.9,191.184478759766
0.09599852, 239.218891264557, -0.00029104909276201, 1.91375,187.239837646484
0.0966652983333333, 239.229187433593, -0.000343543456060219, 1.92625,182.964889526367
0.0973318166666667, 239.239466876037, -0.000304723905905716, 1.93875,182.964889526367
0.0979984333333333, 239.249488174074, -0.000337623253399109, 1.9525,182.020080566406
0.0986652616666667, 239.259135735292, 3.90318275980794E-05, 1.965,186.443908691406
0.0993319483333333, 239.269428883637, 0.000296748882753109, 1.97875,194.126403808594
0.0999984583333333, 239.279134112652, 0.000327734326389134, 1.99125,222.43244934082
0.100665123333333, 239.289032656732, 0.000427680306185365, 2.00625,222.43244934082
0.101331946666667, 239.299335441437, 0.000481157120116487, 2.01875,191.696228027344
0.10199859, 239.31019317115, 0.000180038244989854, 2.0325,186.052230834961
0.102665173333333, 239.320845106209, -6.49414499435383E-05, 2.04625,182.591430664063
0.103332835, 239.331701732058, -3.25160786253368E-05, 2.05875,190.642517089844
0.103998046666667, 239.342267739953, -9.54619169082826E-05, 2.07125,190.642517089844
0.104664628333333, 239.352693775631, -0.000278146740856014, 2.085,186.615692138672
0.105331758333333, 239.36285108039, -0.000373042474336312, 2.0975,186.59651184082
0.10599828, 239.373116068152, -0.000217656279203775, 2.11,189.280014038086
0.1066657, 239.383015647647, -0.000296465320717354, 2.12375,187.342224121094
0.107331356666667, 239.393235892924, -0.00051307094084713, 2.1375,187.342224121094
0.107999408333333, 239.403107966884, -0.000382899979193596, 2.15125,185.619003295898
0.108664591666667, 239.412618708954, -0.000257983253659855, 2.16375,177.366928100586
0.109331186666667, 239.421787203991, -0.00023736978910021, 2.17625,188.845764160156
0.109997976666667, 239.431441065177, -1.24125884903247E-05, 2.19,182.559356689453
0.110666468333333, 239.4408493356, 3.21681722747798E-05, 2.20375,182.559356689453
0.111333083333333, 239.450578190965, 0.000307273854012352, 2.21625,180.536056518555
0.11199793, 239.460168654965, 0.00039146912499321, 2.23,176.054138183594
0.11266574, 239.470229281139, 6.78843783500978E-05, 2.2425,183.983154296875
0.113331303333333, 239.483206344265, -0.000170000672923147, 2.25625,177.935668945313
0.113997895, 239.497192918508, -6.05556702657731E-05, 2.27,177.935668945313
0.114665358333333, 239.510722318396, -0.000261620570975378, 2.28375,177.810104370117
0.11533195, 239.524154493345, -0.000429352645954032, 2.29625,173.510345458984
0.115997855, 239.537059618764, -0.000178904225732435, 2.31,181.142272949219
0.116666028333333, 239.547364709466, 3.3360612430419E-05, 2.32375,219.735015869141
0.117332846666667, 239.556801800063, 0.000101247202569114, 2.3375,219.735015869141
0.117999448333333, 239.567270994873, 0.000105863970689997, 2.35125,183.131256103516
0.118665528333333, 239.577696159649, 0.000109280799033225, 2.36375,173.004989624023
0.11933177, 239.5888295171, 0.000221410666882529, 2.3775,177.505950927734
0.119999481666667, 239.599632677065, -4.016569442096E-05, 2.39,175.256271362305
0.120664673333333, 239.610303410989, -0.000147993778295319, 2.40375,175.256271362305
0.121331883333333, 239.620724272434, -0.000239375188303669, 2.4175,180.712905883789
0.121998526666667, 239.631403157046, -2.33365397045957E-05, 2.43125,174.886367797852
0.122665431666667, 239.641597929373, -5.94982233489353E-05, 2.44375,179.885894775391
0.123332915, 239.65216576676, 0.000434276974816106, 2.4575,179.566528320313
0.123998371666667, 239.662575209941, 0.000347473334872901, 2.47,179.566528320313
0.124665146666667, 239.673235431907, 0.00040954171727367, 2.48375,181.088745117188
0.125331498333333, 239.683795820275, 0.000276547897404361, 2.49875,176.80793762207
0.125998118333333, 239.694732957572, 0.000151118197575927, 2.51125,176.273818969727
0.126665818333333, 239.705441464092, -0.000419729129346164, 2.525,173.750213623047
0.127331396666667, 239.716200708287, 2.58894877025458E-05, 2.5375,173.750213623047
0.127997838333333, 239.726531947514, 7.0620240886722E-05, 2.55125,175.541046142578
0.128664533333333, 239.736871063165, 0.000279363255955612, 2.565,177.987182617188
0.129331173333333, 239.74650111542, 0.000442841544603987, 2.57875,180.571212768555
0.129997841666667, 239.756801809061, 0.000740008118247905, 2.5925,178.957244873047
0.130665355, 239.76666045315, 0.000491745088243174, 2.605,178.957244873047
0.131331215, 239.777094331226, 0.000609712662847646, 2.61875,172.500289916992
0.131997828333333, 239.787532609909, 0.000573838964752494, 2.6325,173.383071899414
0.132664715, 239.798474079157, 0.000523291503712288, 2.64625,212.01057434082
0.133331223333333, 239.808834543782, 0.000380558673034806, 2.6575,180.790542602539
0.133998666666667, 239.820065027296, 0.000196891398432908, 2.6725,180.790542602539
0.134664606666667, 239.830347919953, 0.000223033585341904, 2.685,174.738479614258
0.135332701666667, 239.841391441792, -2.22445945902453E-05, 2.69875,175.810699462891
0.135998423333333, 239.852202012296, -0.000353777442027737, 2.7125,181.59455871582
0.136666085, 239.863134278797, -0.000596631743720393, 2.72375,180.966156005859
0.13733136, 239.873722128907, -0.000597056222390278, 2.7375,180.966156005859
0.1379994, 239.884934434466, -0.000722220435493065, 2.75125,180.529037475586
0.13866464, 239.895950976055, -0.000499415626784428, 2.765,178.638000488281
0.139331435, 239.907551496429, -0.000321971539615606, 2.7775,182.169204711914
0.13999855, 239.918304943945, 0.000211181180730729, 2.79,182.989517211914
0.140664493333333, 239.929746766317, 0.000197423871723589, 2.80375,182.989517211914
0.14133142, 239.94063385276, -3.82851957893095E-06, 2.8175,183.966156005859
0.141997891666667, 239.951028107093, 2.17226970301645E-05, 2.83,183.583648681641
0.142664546666667, 239.961311216973, 6.98792781890045E-05, 2.84375,187.68098449707
0.143331183333333, 239.9721251412, -0.000488836658119144, 2.85625,178.773681640625
0.143998425, 239.982222038802, -0.000355565352213978, 2.87,178.773681640625
0.144664593333333, 239.992291480976, -0.00047061857323533, 2.88375,184.005676269531
0.145331188333333, 240.002812867193, -0.000680711520522201, 2.89625,183.696975708008
0.145998453333333, 240.013455199768, -0.000611929475387237, 2.91,188.098342895508
0.146665188333333, 240.023983676106, -0.000330264623086497, 2.92375,183.355712890625
0.147331783333333, 240.034413946438, -0.000608721136472299, 2.93625,183.355712890625
0.14799792, 240.045535522907, -0.000501487022725392, 2.95,186.045516967773
0.148665155, 240.056479359205, -0.000832196411516717, 2.96375,183.499816894531
0.149331211666667, 240.067240749279, -0.000852175408011275, 2.97625,214.087982177734
0.149998581666667, 240.077885546195, -0.000855745228707398, 2.98875,190.026473999023
0.150664498333333, 240.088662530798, -0.000798602598960853, 3.0025,190.026473999023
0.151331985, 240.098771246131, -0.000881984910745113, 3.01625,184.389923095703
0.151998605, 240.109393225039, -0.000570117575495628, 3.02875,185.539901733398
0.152664556666667, 240.119953575986, -0.000581088024451416, 3.04375,188.3056640625
0.153331256666667, 240.130304685096, -0.000361266565827195, 3.055,189.553726196289
0.153997933333333, 240.141102558092, -0.000139645197621507, 3.06875,189.553726196289
0.154664583333333, 240.152393827184, 0.000186994895583648, 3.0825,187.18766784668
0.155331905, 240.162634214752, 0.000176516421917144, 3.095,188.588165283203
0.155997876666667, 240.17307256863, 0.000319573236329492, 3.10875,185.449020385742
0.156664566666667, 240.180436488596, 1.82608708910765E-05, 3.1225,174.377380371094
0.157331223333333, 240.188004607256, -9.62872824527159E-06, 3.13625,174.377380371094
0.157998528333333, 240.195835032438, -0.000407404248420439, 3.14875,169.344741821289
0.158664656666667, 240.204260114428, -0.000601842482011237, 3.1625,163.644882202148
0.159331246666667, 240.212826981913, -0.000843244856668999, 3.175,165.333312988281
