Time (min), Depth (µm), Load (N), Position (µm), Acoustic (aJ)
8.975E-06, 237.82183955617, -0.000206061529983202, 0,150.580673217773
0.000667713333333333, 237.821884612478, -5.69600191842746E-05, 0.0024999999999999,152.689834594727
0.001333855, 237.821109014634, 3.2349573180144E-06, 0.0124999999999999,158.996505737305
0.00200074333333333, 237.8201785783, 3.36099315943886E-05, 0.0287500000000001,158.996505737305
0.00266732833333333, 237.821130609596, -0.000371308229779322, 0.0449999999999999,174.479156494141
0.00333261666666667, 237.823853012257, -5.54375956599187E-05, 0.0600000000000002,167.876174926758
0.00399893166666667, 237.829078212828, -0.000290507288339405, 0.075,171.488327026367
0.004665765, 237.836306347865, -0.000517454889014987, 0.0899999999999998,163.216049194336
0.00533236833333333, 237.845512711716, -0.000531941161388381, 0.10375,163.216049194336
0.00600062, 237.854875445136, -0.000280711280382654, 0.1175,164.731475830078
0.00666754666666667, 237.864534989596, -0.00033681146254141, 0.13125,160.051239013672
0.007333835, 237.874049877782, 0.000129371121582891, 0.14375,165.214706420898
0.00800058333333333, 237.88425999789, 0.00047944753758472, 0.1575,165.214706420898
0.00866721833333333, 237.894885830491, 0.000342006441115858, 0.17125,159.801086425781
0.009333805, 237.905609673098, 0.000293359384592136, 0.18375,162.202056884766
0.0100020833333333, 237.916590152211, 0.000152753447122302, 0.1975,169.410263061523
0.0106671716666667, 237.927454818051, -5.4546640436859E-05, 0.21,165.631408691406
0.0113338866666667, 237.938185863991, -0.000447493903129029, 0.22375,169.823043823242
0.0120005666666667, 237.949159452673, -0.00049563698496824, 0.2375,169.823043823242
0.0126657983333333, 237.960166016706, -0.000341285737865238, 0.25125,198.061248779297
0.0133325, 237.971213372375, -0.000349397330440827, 0.265,167.820388793945
0.0139989816666667, 237.982522629521, -0.000499832274225537, 0.2775,167.387771606445
0.0146672266666667, 237.993404487494, -0.000351507724395022, 0.29,167.235336303711
0.0153339116666667, 238.004251341306, -0.000241615744137952, 0.3025,167.235336303711
0.0160006533333333, 238.014973208087, -0.000514576533596291, 0.3175,170.278503417969
0.0166676066666667, 238.025703043158, -0.000440838737340291, 0.33,170.389282226563
0.01733442, 238.03635104002, -0.000455887481449922, 0.34375,174.971954345703
0.0180005066666667, 238.047141486773, -0.000332629672561234, 0.3575,165.451843261719
0.0186672233333333, 238.057980312692, -0.000277451944101768, 0.37125,165.451843261719
0.0193341316666667, 238.068901701962, -7.04758402987276E-05, 0.385,174.843002319336
0.0200004316666667, 238.080374901308, -0.000521719174858597, 0.3975,174.047958374023
0.020665965, 238.090996696786, -0.000393474116457658, 0.41125,163.1494140625
0.0213324133333333, 238.102228308289, -0.000575513972784463, 0.42375,174.605422973633
0.021998915, 238.11342301123, -0.000789683715258266, 0.4375,174.605422973633
0.0226657766666667, 238.125248400036, -0.00104192754530937, 0.45,167.901123046875
0.023333865, 238.136643284666, -0.00088007067519597, 0.46375,169.03971862793
0.0240005083333333, 238.148983794103, -0.000798983248152522, 0.47625,168.856857299805
0.024667475, 238.160688658994, -0.000510133756769948, 0.49,175.797332763672
0.0253339483333333, 238.172718534344, -0.000430837239740294, 0.50375,175.797332763672
0.0260005016666667, 238.184217352924, -0.000103217695708525, 0.51625,172.995162963867
0.0266675266666667, 238.195565603507, 0.000229974068437782, 0.52875,170.17073059082
0.0273338566666667, 238.207181117891, 6.63097890996403E-05, 0.5425,166.608779907227
0.0280004983333333, 238.219299584094, -4.47915526945704E-06, 0.55625,172.782821655273
0.0286656083333333, 238.231051677544, 5.72262453194535E-05, 0.57,172.782821655273
0.0293323933333333, 238.242916163663, 0.000146986236771579, 0.5825,198.851318359375
0.0299989683333333, 238.255223789098, -0.000240682791031601, 0.59625,168.923385620117
0.0306656616666667, 238.267068580332, -9.40366568846343E-05, 0.61125,164.011276245117
0.0315005466666667, 238.28418764259, -0.000142175238886873, 0.62625,170.441345214844
0.03216717, 238.296104709234, -0.00027060628793507, 0.63875,166.958129882813
0.0328338, 238.307325208577, -0.000112962706193056, 0.6525,166.958129882813
0.03350039, 238.319211792633, 9.89361502878783E-05, 0.665,175.833831787109
0.0341671166666667, 238.330687617816, -1.37876877101325E-05, 0.6775,167.836151123047
0.03483397, 238.342549330877, -8.40756572222712E-05, 0.69125,172.359741210938
0.0355004683333333, 238.353968188757, -0.000187189477953298, 0.705,170.310897827148
0.0361672466666667, 238.365799540233, -0.000126186042091382, 0.7175,170.310897827148
0.0368338316666667, 238.377217880091, -0.000260625789255465, 0.73125,175.465530395508
0.0374991166666667, 238.388978460365, -0.000101023305923985, 0.74375,172.762359619141
0.0381660766666667, 238.400417246926, 8.66352681738592E-05, 0.75625,174.131164550781
0.0388322416666667, 238.412331294446, 0.000486168700025948, 0.77,169.794525146484
0.0395004916666667, 238.424270156262, 0.000356764199891258, 0.785,169.794525146484
0.040167205, 238.43649848898, 0.000414148317509235, 0.7975,169.253433227539
0.0408338933333333, 238.448363450056, 0.000498592575983542, 0.81125,171.165969848633
0.041500445, 238.460644146959, 0.000511205442479709, 0.8225,168.716659545898
0.0421672283333333, 238.472784810836, 0.000300556023175467, 0.8375,170.312911987305
0.04283382, 238.484566209323, 0.000351385470045995, 0.85125,170.312911987305
0.0435012166666667, 238.495554535454, 0.000357487163559898, 0.8675,174.288177490234
0.0441672366666667, 238.506275417131, 0.000479458037076797, 0.8775,173.113723754883
0.0448344833333333, 238.516539493448, 0.000638702038412136, 0.89,217.405883789063
0.045498995, 238.527368012312, 0.000868162012867003, 0.90375,171.57502746582
0.0461661083333333, 238.538220142268, 0.000871616339362821, 0.9175,171.57502746582
0.046832955, 238.549812094473, 0.00101190729270797, 0.93125,178.073333740234
0.0474990566666667, 238.562558782996, 0.000711041904869251, 0.94375,176.763076782227
0.0481660333333333, 238.575012983192, 0.000539597516312403, 0.95875,170.915939331055
0.0488341333333333, 238.587057221118, 0.000373327867881975, 0.9725,175.191070556641
0.0495007933333333, 238.599062812015, 0.000471547434392499, 0.985,175.191070556641
0.050167465, 238.611245296802, 0.000154041882354733, 0.99875,184.246292114258
0.050833955, 238.623208031084, 0.000336335225969452, 1.01125,177.089477539063
0.051500585, 238.634992904827, 0.000363212375963568, 1.025,174.210678100586
0.0521673616666667, 238.646566951415, 0.000683309797816499, 1.03875,173.225036621094
0.0528340216666667, 238.658551607306, 0.000580348969459621, 1.0525,173.225036621094
0.0534992933333333, 238.669857323957, 0.000794661204772988, 1.065,178.209136962891
0.054165845, 238.681034394113, 0.000632363356800009, 1.0775,178.270721435547
0.0548328983333333, 238.69246242916, 0.000626479152345832, 1.0925,185.596908569336
0.0554991, 238.703886955411, 0.00048418429963661, 1.10625,176.784194946289
0.0561657233333333, 238.715050564765, 0.00035011503384264, 1.11875,176.784194946289
0.0568326016666667, 238.726230780603, 0.00025223595019291, 1.13125,179.154891967773
0.0574989866666667, 238.737361884986, 0.000353786849398184, 1.145,180.377639770508
0.0581659466666667, 238.748460903004, -3.20582699905685E-05, 1.15875,181.924942016602
0.0588325716666667, 238.759875357029, -0.000357426427110474, 1.17125,176.724456787109
0.0594990816666667, 238.771331791996, -0.000259791831244745, 1.185,176.724456787109
0.06016624, 238.782440840326, -0.000327555427561119, 1.1975,195.379287719727
0.0608325916666667, 238.793840567411, -0.000329110849422347, 1.21125,186.733917236328
0.061499155, 238.805552851449, -3.41761636730506E-05, 1.225,226.899353027344
0.062165805, 238.816833862952, 0.00012268745723049, 1.2375,186.032867431641
0.062833165, 238.827634373353, 0.000255012310709676, 1.2525,186.032867431641
0.06349909, 238.839206578447, 0.000334490318634633, 1.26625,184.938018798828
0.0641657533333333, 238.850311284206, 0.000465721726990049, 1.2775,184.327621459961
0.0648327416666667, 238.861685634051, 0.000521767911870287, 1.29125,196.854202270508
0.065499195, 238.872992128677, 0.000376537706615045, 1.305,196.854202270508
0.0661658883333333, 238.88496082634, 0.000391119974171501, 1.31875,184.837142944336
0.0668325966666667, 238.89684707236, 0.000250974513514721, 1.33125,184.884063720703
0.0674991516666667, 238.908787918937, 0.000179530102096383, 1.34375,179.684265136719
0.0681659616666667, 238.9206303433, -0.000236706490779688, 1.3575,178.358749389648
0.0688326966666667, 238.932511094304, -0.000427628900952881, 1.37125,178.215835571289
0.0694991166666667, 238.944081034225, -0.000459947777617197, 1.38375,178.215835571289
0.0701659083333333, 238.955540374987, -0.000499517290100853, 1.39625,179.055770874023
0.0708325516666667, 238.967147822936, -0.000636776895674413, 1.41,174.482482910156
0.071500985, 238.978451468312, -0.00046182868311644, 1.4225,177.679107666016
0.0721661233333333, 238.989179389036, -0.000281488241436083, 1.43625,176.913497924805
0.0728325466666667, 238.999965331567, -0.000298129905517023, 1.45,176.913497924805
0.0734991233333333, 239.010440292934, -0.000219445357728914, 1.4625,174.822326660156
0.0741658416666667, 239.020880429011, 8.06565684185145E-05, 1.475,176.653167724609
0.0748325316666667, 239.030316321144, 0.000136306773171276, 1.4875,178.945327758789
0.075499265, 239.040243103412, 0.000306350232080433, 1.5025,178.945327758789
0.076165755, 239.050274767146, 0.000429168562991442, 1.51625,191.755081176758
0.0768325833333333, 239.061028667393, 0.000552798353195901, 1.52875,196.750122070313
0.0774990633333333, 239.071468953835, 0.000273732870374852, 1.5425,190.986602783203
0.078165755, 239.083259346968, 0.000460611483655477, 1.55625,231.030975341797
0.0788342633333333, 239.095009230765, 0.000145780297317564, 1.56875,190.714263916016
0.0794991466666667, 239.106640615309, -4.50821158157365E-05, 1.5825,190.714263916016
0.080165755, 239.117178260889, 1.19655962890498E-06, 1.59625,191.36604309082
0.08083243, 239.128037999079, 0.000156633752191153, 1.6075,190.048858642578
0.0814990483333333, 239.138477796056, 0.00010235747842557, 1.6225,190.411376953125
0.0821661783333333, 239.149504438591, 0.000239773076179577, 1.63625,190.138595581055
0.0828327316666667, 239.159806866211, 0.000288043651593064, 1.64875,190.138595581055
0.0834993883333333, 239.171382368609, 0.000379980033715636, 1.6625,193.618621826172
0.0841658866666667, 239.182248090009, 0.000500557477249367, 1.67625,190.068328857422
0.0848325283333333, 239.193755308625, 0.000367245673364059, 1.68875,191.890029907227
0.0854990433333333, 239.204283113348, 0.000250797522435136, 1.7025,189.294342041016
0.0861659366666667, 239.215467880235, 0.000153771895919638, 1.715,189.294342041016
0.08683246, 239.22640594399, -0.000379092838835, 1.72875,191.505752563477
0.08750105, 239.237620619775, -0.000676080921453676, 1.74125,190.138198852539
0.0881658516666667, 239.248174804014, -0.000594521018116932, 1.755,192.968566894531
0.0888341666666667, 239.259740288484, -0.000591729658313625, 1.76875,192.164398193359
0.0895008116666667, 239.270724027703, -0.000576257935416004, 1.7825,192.164398193359
0.0901674016666667, 239.281776546143, -0.00030484956799134, 1.795,189.553070068359
0.0908342083333333, 239.292273478813, -9.75689794919294E-05, 1.8075,182.742141723633
0.0915007716666667, 239.303280582268, 4.35319331372505E-05, 1.82125,186.127197265625
0.09216735, 239.31333169817, 0.000593054831120012, 1.835,185.07568359375
0.092834175, 239.324132429563, 0.000619471504216057, 1.85,185.07568359375
0.0934992466666667, 239.334702479147, 0.000627638594037075, 1.86375,189.949645996094
0.094165755, 239.346416008336, 0.000566642657797176, 1.875,196.56706237793
0.094832605, 239.357155567704, 0.000515226740399958, 1.89,224.611526489258
0.0954991, 239.368809759686, 0.000479161051938681, 1.9025,185.986434936523
0.0961660533333333, 239.380204173803, 0.000434097315451965, 1.9175,185.986434936523
0.0968328916666667, 239.391428729434, 0.000775301677078229, 1.93,188.365844726563
0.0974992633333333, 239.402436554082, 0.000595967684884999, 1.9425,184.606231689453
0.0981657733333333, 239.414195178857, 0.00056734312266353, 1.95625,192.034851074219
0.098832505, 239.42560264931, 0.000407191666915441, 1.97,183.356246948242
0.099499, 239.437373142143, 0.000493884312431552, 1.9825,183.356246948242
0.100165858333333, 239.448766294025, 0.000198553646618542, 1.99625,194.954772949219
0.100832515, 239.460451199151, 0.00027140498736093, 2.01,195.944534301758
0.101499038333333, 239.471798990034, 0.000155543306958697, 2.02375,185.488479614258
0.102165711666667, 239.483923965944, -0.000377775904996399, 2.03625,187.607620239258
0.102832425, 239.495130570295, -0.000523165102217132, 2.04875,187.607620239258
0.103499355, 239.506990218284, -0.000721975616229829, 2.0625,190.782867431641
0.104165891666667, 239.518157606739, -0.000653231069204946, 2.07625,188.15397644043
0.104832665, 239.529769917542, -0.000637031882865475, 2.08875,193.564559936523
0.105499123333333, 239.540063347479, -0.00024455559649969, 2.1025,189.249008178711
0.1061658, 239.551056994646, -2.11523178053743E-05, 2.11625,189.249008178711
0.106832563333333, 239.56173993853, 2.51218579085657E-05, 2.12875,195.766174316406
0.107500685, 239.572540939604, 0.000128403670172757, 2.14125,192.019958496094
0.108167398333333, 239.582689134764, 0.00017278944072293, 2.155,192.983764648438
0.108834685, 239.593465662923, 7.54248312285332E-05, 2.1675,198.821517944336
0.109500718333333, 239.603431825515, 9.51803389019895E-05, 2.18125,198.821517944336
0.110168381666667, 239.613536556901, 0.000264403338992531, 2.195,197.041687011719
0.110834138333333, 239.623833024212, 2.03775961708972E-05, 2.2075,188.460693359375
0.111500695, 239.634351216957, -0.000145943049710496, 2.22125,229.723037719727
0.11216587, 239.644549897622, -0.000385193032445755, 2.235,197.89778137207
0.112832406666667, 239.655386191517, -0.000571315683699614, 2.2475,197.89778137207
0.113499235, 239.665317745626, -0.000733967513831761, 2.2625,192.664077758789
0.114165805, 239.675278028069, -0.000827783301571681, 2.27375,194.103866577148
0.114832371666667, 239.685260382158, -0.000972812516914378, 2.2875,189.834884643555
0.115499135, 239.695115712667, -0.000835563410769133, 2.3,191.416015625
0.116165843333333, 239.70452434014, -0.000948365244857367, 2.31375,191.416015625
0.116832583333333, 239.7140076097, -0.00110426291427518, 2.3275,194.490051269531
0.117499085, 239.723229764795, -0.000468866329585501, 2.34,188.677459716797
0.11816573, 239.732596701575, -0.00017772645321407, 2.3525,190.145935058594
0.118832633333333, 239.742218755454, -0.000158833402200012, 2.36625,193.522827148438
0.11949908, 239.751823605307, 0.000131700504584978, 2.38,193.522827148438
0.1201659, 239.762138726396, 0.000100362578629172, 2.3925,183.088638305664
0.120832568333333, 239.772329703657, -0.000244068121004869, 2.40625,190.102264404297
0.121499081666667, 239.782435316167, -0.000131714764419479, 2.42,187.024002075195
0.12216572, 239.792145630165, 1.8598685531076E-05, 2.4325,185.178146362305
0.122832523333333, 239.802606166668, -0.00016134577600055, 2.44625,185.178146362305
0.12349907, 239.813663346255, 0.000213059418030432, 2.46,187.795959472656
0.124165933333333, 239.827737367474, 2.1387045549339E-05, 2.4725,193.463027954102
0.124832498333333, 239.841412691685, -0.000143055694660364, 2.485,183.107986450195
0.125499165, 239.854806757958, -9.22787451439505E-05, 2.5,181.49089050293
0.126166026666667, 239.868086433294, -0.000125701566402859, 2.51375,181.49089050293
0.12683263, 239.880609049659, -4.42346584003713E-05, 2.5275,182.703399658203
0.127499338333333, 239.890405782444, 0.00017677174069371, 2.54,218.405334472656
0.128167285, 239.900559386437, 0.000131609009175125, 2.55375,177.369964599609
0.12883263, 239.91115016554, 0.000120230580696635, 2.5675,179.053649902344
0.129499245, 239.921797956383, 0.000455549237986826, 2.58,179.053649902344
0.130165933333333, 239.932578667117, 0.000503626323131039, 2.59375,179.942245483398
0.130832728333333, 239.942989332202, 0.000366518209922209, 2.60625,178.870697021484
0.131499125, 239.953788790294, 0.000716903610457379, 2.62,180.155136108398
0.132167358333333, 239.964961649365, 0.000401035976144275, 2.63375,175.0888671875
0.132833871666667, 239.975689849033, 8.97821100819925E-05, 2.6475,175.0888671875
0.133500773333333, 239.986274579884, -0.000333507128507172, 2.66125,189.007080078125
0.134167901666667, 239.996627080994, -0.000493969068649243, 2.67375,188.991607666016
0.134834765, 240.007209783547, -0.000735614431081587, 2.68625,182.594345092773
0.135500618333333, 240.017821876581, -0.000770700668737504, 2.70125,179.470718383789
0.136167331666667, 240.028154202508, -0.000803900001154057, 2.715,179.470718383789
0.13683252, 240.038784628568, -0.000687816331918888, 2.7275,180.093368530273
0.137499198333333, 240.050073684704, -0.00062885429355238, 2.74,184.213119506836
0.138165878333333, 240.06109007756, -0.000718944268415731, 2.75375,189.269256591797
0.138832961666667, 240.07178329317, -0.000622773598980122, 2.7675,185.717498779297
0.139500755, 240.082486871346, -0.00052170867536652, 2.78125,185.717498779297
0.140167441666667, 240.093655726968, -0.000350801259852309, 2.79375,178.699325561523
0.14083412, 240.104448049712, -0.000261810729746579, 2.8075,180.551651000977
0.141500736666667, 240.115209892988, -0.000185404567552101, 2.82125,180.570983886719
0.142167306666667, 240.126061748474, -0.000266422998094253, 2.83375,179.684432983398
0.142834093333333, 240.137600376556, -0.000206820491858775, 2.84875,179.684432983398
0.143501205, 240.148898811296, -0.000552985104379285, 2.86125,180.398056030273
0.144167198333333, 240.160275296343, -0.00078899224998084, 2.87375,216.531982421875
0.14483408, 240.171290231726, -0.000884546450380439, 2.88875,190.655090332031
0.145499311666667, 240.183209961912, -0.000707366349970352, 2.90125,186.199325561523
0.146166, 240.194106789057, -0.000915521394566895, 2.91375,186.199325561523
0.14683254, 240.204616960817, -0.000838627756856341, 2.92875,180.934295654297
0.147499098333333, 240.216278062896, -0.000669199267122554, 2.94,184.375701904297
0.148166546666667, 240.22775125755, -0.000399023837748654, 2.95375,188.083953857422
0.148832436666667, 240.239730936917, -0.000383684108219774, 2.9675,181.276702880859
0.149499205, 240.251704583946, -0.000238581396560063, 2.98125,181.276702880859
0.15016622, 240.264017520601, -0.000269634336815489, 2.99375,187.804504394531
0.150832773333333, 240.275428953357, -0.000102578727848974, 3.00625,186.07991027832
0.151499118333333, 240.287114792182, -0.000286575985840843, 3.02,184.713119506836
0.15216723, 240.297911589644, -2.7652991295561E-05, 3.0325,188.156356811523
0.152834871666667, 240.309286595022, 8.99890996708961E-05, 3.04625,188.156356811523
0.15349933, 240.320093842281, 0.000178015178236552, 3.05875,187.87776184082
0.15416612, 240.331106626061, -8.15547059821081E-06, 3.0725,182.671035766602
0.154832411666667, 240.341913419402, 0.000149365117278974, 3.08625,190.426742553711
0.155499201666667, 240.352183176718, -0.000252554694702526, 3.1,187.381774902344
0.156165725, 240.363094937473, -0.000469847280315264, 3.1125,187.381774902344
0.156832596666667, 240.373438772902, -0.000534501532812332, 3.12625,186.678695678711
0.157499046666667, 240.384324476417, -0.000373282130740345, 3.14,194.237838745117
0.158165966666667, 240.39464132424, -0.000473579092910701, 3.1525,185.333923339844
0.158832816666667, 240.405896671021, -0.000231537750393389, 3.16625,185.333923339844
0.159499258333333, 240.416190655943, -0.000206480008997982, 3.17875,188.166534423828
