Time (min), Depth (µm), Load (N), Position (µm), Acoustic (aJ)
8.24166666666667E-06, 241.216282811553, -0.000774300615573928, 0,188.761901855469
0.000664598333333333, 241.215986932568, -0.00062741449352244, 0.00125,192.277145385742
0.00133121166666667, 241.215989847113, -0.000492269781718794, 0.0125,192.277145385742
0.00199778833333333, 241.214321408391, -0.000407503039412769, 0.02875,191.509643554688
0.00266388166666667, 241.213544462921, -0.000469074946708536, 0.045,209.747314453125
0.003331005, 241.214293934506, -0.00018722560372745, 0.05875,218.641616821289
0.00399772166666667, 241.216705536368, -8.10234381612712E-05, 0.07375,205.13151550293
0.00466467666666667, 241.220528413168, -8.57527005911448E-05, 0.08875,205.13151550293
0.00533120333333333, 241.227672234117, -0.000114123775567209, 0.10375,243.240020751953
0.00599753, 241.236231359734, 0.00014148588541867, 0.11625,201.741882324219
0.006663835, 241.245082793795, 1.80075876427022E-05, 0.13,203.575942993164
0.00733195166666667, 241.254585943537, 0.000200167437943022, 0.14375,203.642196655273
0.00799780166666667, 241.264716168607, 0.000443396720757747, 0.1575,203.642196655273
0.00866391666666667, 241.27517021411, 0.000468589455391956, 0.17125,205.690048217773
0.00933104833333333, 241.28531940785, 0.000462690251693746, 0.18375,202.387344360352
0.00999828833333333, 241.296271437575, 0.000402913754163729, 0.1975,203.298080444336
0.0106639366666667, 241.307542987321, 0.000154217245942694, 0.21,206.207260131836
0.011331125, 241.319194473356, 5.70970533498139E-06, 0.22375,206.207260131836
0.011997335, 241.33104389566, 0.000164575725635683, 0.2375,216.05842590332
0.0126653616666667, 241.342946847676, 0.000396573572605945, 0.2525,205.915420532227
0.0133305266666667, 241.355287167328, 0.00048991238434312, 0.26375,201.92887878418
0.013997135, 241.367784522564, 0.000488143973174122, 0.2775,209.884475708008
0.014665295, 241.38050506531, 0.000452279274604135, 0.29,209.884475708008
0.0153308783333333, 241.393058473002, 0.000503006726593987, 0.30375,208.374984741211
0.0159971666666667, 241.406187284778, 9.83045543768541E-05, 0.3175,204.98698425293
0.0166640766666667, 241.418414376062, 0.000194577218671884, 0.33,208.26171875
0.0173308766666667, 241.431001855784, 0.000194763209319142, 0.34375,208.355453491211
0.0179982366666667, 241.443445477268, -0.000188961016602085, 0.3575,208.355453491211
0.0186639516666667, 241.456608897137, -0.000922032695137632, 0.37,213.676940917969
0.0193308333333333, 241.468918891459, -0.00108226364690035, 0.38375,206.169372558594
0.0199977183333333, 241.482092474787, -0.00148832625080628, 0.39625,206.428802490234
0.0206654516666667, 241.494442251363, -0.00164743975869729, 0.41,205.897888183594
0.021330615, 241.506746542718, -0.00131260857694442, 0.42375,205.897888183594
0.02199724, 241.518675311505, -0.000869116853082108, 0.4375,251.836868286133
0.0226646766666667, 241.530837494766, -0.000550760843758916, 0.45125,208.713897705078
0.0233309433333333, 241.542618382579, -0.000221980358068993, 0.46375,210.538940429688
0.0239971816666667, 241.554798483432, 0.000187218588338017, 0.4775,213.118469238281
0.02466457, 241.566635413581, 0.000357664027072263, 0.49125,213.118469238281
0.0253315216666667, 241.578254839536, 0.000556159556854005, 0.505,213.892105102539
0.0259988083333333, 241.590912962419, 0.00048665754781419, 0.5175,220.674926757813
0.0266653366666667, 241.603130161834, 0.00054022585713391, 0.53,207.481491088867
0.0273319083333333, 241.615813436299, 0.00042354071808551, 0.54375,212.251617431641
0.0279991166666667, 241.628672337122, 0.000294566696339572, 0.5575,212.251617431641
0.0286648, 241.641760800667, 0.000205507169711292, 0.56875,214.138732910156
0.029331015, 241.654160127865, 0.000270654897443303, 0.58375,217.906066894531
0.0299985866666667, 241.666737377425, 0.000189378479882536, 0.59625,210.79362487793
0.0306640233333333, 241.678787844066, 0.000166161146069992, 0.60875,214.123352050781
0.031330595, 241.691462870251, -0.000106165175302007, 0.6225,214.123352050781
0.031997365, 241.703512392816, -0.000144024773647137, 0.63625,207.807388305664
0.0326657166666667, 241.716367047546, -0.000577471502080508, 0.65,204.90544128418
0.0333305, 241.729337366969, -0.000777099474977997, 0.6625,211.318420410156
0.0339972266666667, 241.74212916741, -0.000712103239674478, 0.675,211.80061340332
0.0346640533333333, 241.754321197275, -0.00072443562022222, 0.68875,211.80061340332
0.0353324616666667, 241.766967893106, -0.000898116396425645, 0.7025,214.682266235352
0.0359990083333333, 241.779327836407, -0.000854984562867883, 0.715,210.716201782227
0.0366643466666667, 241.791744616095, -0.000921795707018155, 0.72875,213.425338745117
0.0373311, 241.804082404557, -0.00106489001949808, 0.74125,260.230651855469
0.0379976066666667, 241.816474723074, -0.00111658492289806, 0.75375,260.230651855469
0.0386640283333333, 241.829046633808, -0.00109166667451467, 0.7675,213.311248779297
0.0393308966666667, 241.840929265985, -0.000765181073544301, 0.78125,209.766738891602
0.0399975166666667, 241.852583445973, -0.000428695474834579, 0.79375,216.395385742188
0.0406638416666667, 241.865029040042, -0.000779884834977421, 0.8075,214.783432006836
0.0413308333333333, 241.877076538617, -0.00064174927340358, 0.82125,214.783432006836
0.04199857, 241.888832152701, -0.000527077033286926, 0.83375,214.495056152344
0.0426639216666667, 241.90120988983, -0.000437375538907782, 0.8475,217.787689208984
0.0433310833333333, 241.913806503167, -0.000697699463100756, 0.86,221.007675170898
0.0439976866666667, 241.925119637521, -0.000147467100683967, 0.87375,214.782958984375
0.04466437, 241.937354413682, -9.16144061155107E-05, 0.88625,214.782958984375
0.0453305333333333, 241.949835761297, -0.000401911320217227, 0.9,210.964126586914
0.04599878, 241.962036631597, -0.000736333022586746, 0.91375,206.930252075195
0.046664375, 241.973800580774, -0.00036173283838334, 0.92625,203.849349975586
0.0473307233333333, 241.986440888295, -0.000580322858817438, 0.94375,206.96110534668
0.0479971566666667, 241.998326909735, -0.000748737399527098, 0.95375,206.96110534668
0.0486640983333333, 242.009379126867, -0.0003387224941597, 0.9675,221.969833374023
0.0493306866666667, 242.020198854946, 4.67191455220684E-05, 0.9825,221.502029418945
0.0499973066666667, 242.032400196269, 0.000126429641750784, 0.99375,222.289276123047
0.050664125, 242.04380760102, 0.000347848520077016, 1.0075,219.708267211914
0.0513305666666667, 242.055209474365, 0.00091162520217192, 1.02125,219.708267211914
0.0519973066666667, 242.066870222249, 0.00100725439881294, 1.035,220.561233520508
0.0526639933333333, 242.07910237177, 0.000936834435932056, 1.04875,221.418487548828
0.0533306966666667, 242.09026672009, 0.000895640505085877, 1.06125,223.444702148438
0.0539980716666667, 242.102134999038, 0.000767944419101546, 1.075,266.916168212891
0.0546638583333333, 242.113872919134, 0.000354449688523475, 1.08875,266.916168212891
0.0553305266666667, 242.126163346704, 0.000426248082185997, 1.10125,230.862091064453
0.0559977033333333, 242.137627700349, 0.000522309257118914, 1.11625,225.230316162109
0.0566647483333333, 242.149368079895, 0.000323242256054514, 1.12875,220.792495727539
0.0573308, 242.160409593063, 7.98974790182299E-05, 1.14125,231.097961425781
0.0579980366666667, 242.171586708473, 0.000286504601354307, 1.155,231.097961425781
0.0586641683333333, 242.182166512352, 8.56661892721021E-05, 1.16875,226.091018676758
0.0593307983333333, 242.193600720389, -7.25143654912944E-05, 1.18125,224.115203857422
0.0599974583333333, 242.203867034919, 9.54906958350228E-05, 1.195,222.80061340332
0.0606639483333333, 242.214649001245, 0.000414224686150343, 1.2075,229.958694458008
0.0613310716666667, 242.225003893754, 0.000205396175369214, 1.2225,229.958694458008
0.0619972583333333, 242.236025642729, 6.41677691232487E-05, 1.235,223.78125
0.0626641266666667, 242.245398958283, 0.000251805344279447, 1.24875,230.10221862793
0.0633369983333333, 242.255885442037, 0.000379576426441432, 1.26125,230.697601318359
0.0640017866666667, 242.266366914823, 0.000286266113352935, 1.275,231.227615356445
0.0646683616666667, 242.276799658786, 0.000823209143282671, 1.28875,231.227615356445
0.0653350016666667, 242.286807087568, 0.00126647737838765, 1.3025,237.46435546875
0.0660017233333333, 242.297674072641, 0.00127998569988008, 1.315,235.148834228516
0.066668435, 242.308597185596, 0.000904286070855296, 1.32875,234.686050415039
0.0673350283333333, 242.319049974681, 0.00100232414649177, 1.3425,232.916442871094
0.0680018216666667, 242.329841146119, 0.000779663330504593, 1.355,232.916442871094
0.0686684166666667, 242.340292727264, 0.000764308601795443, 1.36875,232.880447387695
0.06933506, 242.350988085467, 0.000607954955316534, 1.3825,225.60432434082
0.070002945, 242.361130190586, 0.000792264197648042, 1.39375,230.944549560547
0.07066844, 242.371863370297, 0.000456392068146778, 1.40875,276.202545166016
0.071335235, 242.382022696853, 0.000236839096097011, 1.42125,276.202545166016
0.0720016983333333, 242.392584962478, -0.000184891720824628, 1.435,225.018371582031
0.0726684066666667, 242.403765766943, -0.000421846818861583, 1.4475,219.180709838867
0.0733351516666667, 242.413964334431, -0.000430129402819143, 1.46,222.376663208008
0.0740021133333333, 242.423787920135, 0.000196212136675263, 1.47375,219.803039550781
0.07466855, 242.434236826447, 0.000328490492476693, 1.4875,219.803039550781
0.0753351116666667, 242.444546197035, 0.000595804065600332, 1.5,219.911315917969
0.076001705, 242.454499632357, 0.000807563429175526, 1.5125,223.363754272461
0.0766685566666667, 242.464983342242, 0.000945557997834207, 1.52625,223.448822021484
0.07733499, 242.474925854939, 0.000284388207723753, 1.53875,219.207366943359
0.078001685, 242.484948607151, 0.000104287753969171, 1.5525,219.207366943359
0.0786686783333333, 242.492349851491, 0.000326600587409777, 1.56375,229.941665649414
0.079335085, 242.499564795629, 0.000442025789704391, 1.57875,230.108551025391
0.0800019466666667, 242.507165761666, 0.000382537277744815, 1.5925,241.016448974609
0.0806689033333333, 242.515567680771, 0.000453291723831384, 1.60625,237.421630859375
0.0813350683333333, 242.523326095818, 0.000730653292254029, 1.61875,237.421630859375
0.0820017283333333, 242.533992058754, 0.000305607641869838, 1.6325,243.861755371094
0.0826686033333333, 242.544141117449, 1.79190221981139E-06, 1.64625,252.676834106445
0.0833352516666667, 242.554159963136, -0.00034288628496202, 1.65875,244.939468383789
0.08400168, 242.563449217428, -0.000229908959697351, 1.6725,247.285095214844
0.0846684616666667, 242.572725148261, -0.000271615864774461, 1.685,247.285095214844
0.08533498, 242.581464968611, 0.000144664225930559, 1.69875,242.207550048828
0.0860017316666667, 242.590889867457, 0.000244265223071532, 1.7125,237.623580932617
0.0866685966666667, 242.599505023034, 0.000647707458619896, 1.725,246.927871704102
0.0873351016666667, 242.609082753293, 0.000266275117548167, 1.73875,291.880340576172
0.0880017266666667, 242.618465636105, 7.1389906400181E-05, 1.7525,291.880340576172
0.0886684033333333, 242.627466344315, -0.000206819119480338, 1.765,240.771194458008
0.0893364683333333, 242.635921206542, -0.000252557822076044, 1.77875,240.954971313477
0.0900034433333333, 242.64487345019, -0.000222241344830143, 1.7925,238.844131469727
0.0906683466666667, 242.653099725412, 0.000222276327515289, 1.805,235.402099609375
0.091335075, 242.661557728558, 0.000477487008546139, 1.81875,235.402099609375
0.0920019333333333, 242.670024395641, 0.00048726501741005, 1.8325,242.107040405273
0.0926686033333333, 242.678342842407, 0.000514454151722553, 1.845,236.303924560547
0.0933367833333333, 242.686731256553, 0.000530084866585665, 1.85875,239.073471069336
0.0940017133333333, 242.694803830537, 0.000390977353785972, 1.87125,234.349639892578
0.0946683466666667, 242.702991192085, 0.000317049067109503, 1.88375,234.349639892578
0.09533497, 242.710909887499, 0.000436680058196, 1.8975,239.377227783203
0.0960034016666667, 242.719278172938, 0.000692100728685814, 1.9125,233.326568603516
0.09666868, 242.7281749364, 0.000873369623741821, 1.925,235.254577636719
0.0973368916666667, 242.737051607387, 0.00103213814895631, 1.93875,241.775100708008
0.098003335, 242.745796217381, 0.000948071871537895, 1.9525,241.775100708008
0.098670375, 242.7544915247, 0.000967395400961959, 1.96625,233.464096069336
0.0993369733333333, 242.763496992287, 0.000857156938125228, 1.98,238.790313720703
0.100001976666667, 242.772359743513, 0.00060146478129717, 1.9925,232.897598266602
0.100668408333333, 242.781155708585, 0.000588293942859229, 2.00625,234.224975585938
0.101335143333333, 242.790180289342, 0.000894359569475462, 2.02,234.224975585938
0.102001728333333, 242.800624797019, 0.000631785758252519, 2.03375,232.987442016602
0.10266832, 242.810959732814, 0.000664703104838751, 2.04625,242.915267944336
0.103335048333333, 242.820784515899, 0.000891785698668119, 2.05875,235.318298339844
0.104001715, 242.831018496825, 0.00102025124599885, 2.0725,284.2275390625
0.104668316666667, 242.841903860996, 0.000801647726245118, 2.08625,284.2275390625
0.105335008333333, 242.852314790589, 0.00102833284010762, 2.1,243.797500610352
0.10600173, 242.862269253023, 0.000915653999820456, 2.1125,236.624114990234
0.106668318333333, 242.872685023966, 0.000845370530102781, 2.125,238.079818725586
0.107335056666667, 242.883138508589, 0.000797660926522382, 2.13875,243.926177978516
0.108001736666667, 242.893295345234, 0.00113101468246173, 2.15375,243.926177978516
0.108668485, 242.904108172505, 0.000779642331520439, 2.16625,242.128173828125
0.109335091666667, 242.914806812156, 0.000779693328992658, 2.17875,249.946929931641
0.11000179, 242.925426056495, 0.000488536953452792, 2.1925,247.80647277832
0.110668473333333, 242.936052543102, 0.000245582156825117, 2.205,246.616317749023
0.111334996666667, 242.946039266351, 3.66351520373841E-05, 2.21875,246.616317749023
0.112001861666667, 242.955976584031, 6.97714876715084E-05, 2.23125,239.301162719727
0.112668376666667, 242.96598877533, -1.88425613664951E-05, 2.24375,240.748092651367
0.113335091666667, 242.975380705547, 0.000400659367509329, 2.2575,246.551406860352
0.114002555, 242.985297529066, 0.000570017360817417, 2.27125,241.842178344727
0.11466834, 242.994894452507, 0.000551121309954552, 2.28375,241.842178344727
0.115335055, 243.004268675886, 0.00080339663837562, 2.29875,252.832305908203
0.116001848333333, 243.013737708658, 0.000944473552256856, 2.3125,242.458038330078
0.116668585, 243.024501422511, 0.000356891565898315, 2.32375,246.553405761719
0.117335635, 243.034256426909, 0.0001023093532987, 2.3375,244.693298339844
0.11800181, 243.044717081065, -2.33843332459614E-05, 2.35125,244.693298339844
0.118668505, 243.054886998357, -0.000338568001882402, 2.36375,246.173126220703
0.11933509, 243.06564739066, -0.00054463815121835, 2.3775,248.30158996582
0.120002265, 243.074496543384, -0.00039551264162897, 2.39,295.332733154297
0.120668666666667, 243.08434867922, -0.000503366224260693, 2.40375,252.865615844727
0.121335041666667, 243.093909620874, -0.000861149253185469, 2.41625,252.865615844727
0.12200172, 243.103577127346, -0.000412836771462172, 2.43,243.477096557617
0.122668753333333, 243.112426554564, -0.000582149767038163, 2.4425,238.953704833984
0.123335005, 243.122389068111, -0.000637882467633104, 2.45625,245.989196777344
0.124001781666667, 243.131973866068, -0.00056977538860713, 2.46875,245.989196777344
0.124668433333333, 243.141896668742, -0.000277287080005884, 2.4825,236.202651977539
0.125335198333333, 243.151550762502, -0.000422971762419075, 2.49625,239.411834716797
0.126001706666667, 243.161755063555, -0.000130379958970242, 2.50875,240.904495239258
0.126668555, 243.171765073678, 4.95315042670211E-05, 2.5225,233.775451660156
0.127335123333333, 243.182557717192, 0.000471202324191275, 2.53625,242.634765625
0.128001911666667, 243.195523029847, 0.000580491334710711, 2.54875,242.634765625
0.12866831, 243.20733216295, 0.000828940355383954, 2.5625,231.871353149414
0.129335031666667, 243.219609514716, 0.000793036658758228, 2.57625,231.149765014648
0.13000167, 243.231724701631, 0.000852282182900714, 2.58875,232.288955688477
0.130668545, 243.243258985426, 0.000656291527297494, 2.6025,226.6953125
0.13133513, 243.252176328397, 0.000698797892230319, 2.6175,226.6953125
0.132001828333333, 243.262464501989, 0.00035445418827543, 2.63,228.715377807617
0.132668523333333, 243.272103388504, 0.000415747109610937, 2.64375,229.539489746094
0.133334983333333, 243.282458299217, 0.000290444903420542, 2.65625,219.761199951172
0.134002326666667, 243.292204172487, 0.000183600770082245, 2.67125,227.969085693359
0.134668426666667, 243.302179272073, 0.000211056891023543, 2.68375,227.969085693359
0.135335075, 243.311954073765, 0.000286608096138132, 2.6975,228.990158081055
0.136001746666667, 243.321583683835, 0.000444394170719709, 2.71,233.680297851563
0.136668358333333, 243.330784973031, 0.000666054536938627, 2.72375,273.763549804688
0.137335023333333, 243.340611568101, 0.000439055938854588, 2.7375,237.439987182617
0.138001998333333, 243.350375841559, 0.000656897496883935, 2.75,237.439987182617
0.138668468333333, 243.360359730954, 0.000492697744491322, 2.76375,228.607666015625
0.139335016666667, 243.370323670776, 0.00032522215660688, 2.77625,229.030746459961
0.140001701666667, 243.380435242863, 0.000298408003480208, 2.79,232.342987060547
0.140668355, 243.390559770329, 0.000411911802295438, 2.80375,226.697662353516
0.141335021666667, 243.400555229341, -7.40667874824613E-05, 2.8175,226.697662353516
0.142001813333333, 243.410147611906, 3.11183592847337E-06, 2.83125,230.322982788086
0.142668758333333, 243.419965293649, -3.07954609339419E-05, 2.84375,233.637435913086
0.14333508, 243.430060892403, 0.000131589382654426, 2.8575,222.114562988281
0.144001846666667, 243.440007214802, 6.96469939672922E-05, 2.87125,226.408981323242
0.144668325, 243.450211771822, 0.00031653909283365, 2.88375,226.408981323242
0.145335075, 243.460726980894, 0.000228123033859385, 2.89875,224.659637451172
0.146001671666667, 243.471117707616, -0.000143505799612323, 2.91125,229.131530761719
0.146668441666667, 243.481862109045, -0.000620613834981569, 2.92375,231.369598388672
0.147335863333333, 243.492155300607, -0.00071475810620831, 2.9375,226.70378112793
0.148002068333333, 243.502385581769, -0.000817427949188448, 2.95125,226.70378112793
0.148668963333333, 243.512648300543, -0.000684009650649254, 2.96375,229.607055664063
0.149335028333333, 243.523133744512, -0.000294117734540381, 2.97875,231.715148925781
0.150002601666667, 243.53285149114, 0.000195825156094206, 2.99125,234.863296508789
0.150670033333333, 243.543335194147, 0.000308977972556565, 3.00375,239.686752319336
0.151334996666667, 243.553786091745, 0.000397343034058611, 3.0175,239.686752319336
0.152002191666667, 243.564773591759, 0.000267256068214168, 3.03125,233.286056518555
0.1526684, 243.575351398344, 0.000107709082106863, 3.04375,232.541488647461
0.153335023333333, 243.586851626055, -0.000347236066454108, 3.0575,283.753479003906
0.154001953333333, 243.597860321244, -0.000618390946633367, 3.07,235.983291625977
0.154668381666667, 243.608853886145, -0.000634846620088304, 3.08375,235.983291625977
0.155335266666667, 243.618957791344, -0.000523124731782956, 3.0975,241.138641357422
0.156001806666667, 243.629744554379, -0.000540547856648027, 3.10875,236.592544555664
0.15666836, 243.639558796029, -0.000418498987040905, 3.1225,239.412231445313
0.157335165, 243.64955127294, -0.000144162766670983, 3.135,244.417022705078
0.158001998333333, 243.659301656326, -0.000326520607013788, 3.15,244.417022705078
0.158668608333333, 243.67006969745, -0.000180534439731779, 3.1625,235.792373657227
0.15933519, 243.680467646433, 0.000125652680803626, 3.17625,242.67594909668
