Time (min), Depth (µm), Load (N), Position (µm), Acoustic (aJ)
8.67E-06, 222.635446392834, -0.000224920814324002, 0,35206.6484375
0.000662385, 222.635544711663, -0.000525742704333773, 0.00125,41041.29296875
0.00132877333333333, 222.633799061487, -0.000556764146112968, 0.00625,46752.13671875
0.002161635, 222.631318195545, -0.000794010229505409, 0.01625,36729.3046875
0.00282819, 222.628441851057, -0.000773881240549271, 0.02375,40387.04296875
0.00349519, 222.626636567017, -0.00121656150522441, 0.03125,40387.04296875
0.00416166333333333, 222.62562462322, -0.00111739848611546, 0.0375,38320.09375
0.00482880666666667, 222.626518722602, -0.00114739847924851, 0.045,38223.515625
0.00549511333333333, 222.630565125247, -0.000924085196039642, 0.0525,41376.1171875
0.00616155666666667, 222.635190068724, -0.000692376834521718, 0.06,40640.32421875
0.00682823, 222.640530472635, -0.00060959749241133, 0.06625,40640.32421875
0.007495495, 222.646243582929, -0.000463978806693136, 0.0725,39084.78125
0.00816211166666667, 222.652612447222, -0.000807872533284539, 0.07875,36274.84765625
0.00882845166666667, 222.657682597105, -0.00123590903343892, 0.085,39452.71875
0.00949546, 222.663172565263, -0.00129145874321416, 0.0925,45365.078125
0.0101617066666667, 222.667977427389, -0.00121412412764403, 0.1,45365.078125
0.010828485, 222.67327740901, -0.000944566667230546, 0.10625,45105.53125
0.0114950416666667, 222.677417939344, -0.000466734168268256, 0.11125,50233.89453125
0.0121621516666667, 222.68278050712, 0.000101495790145068, 0.11875,44079.44921875
0.0128287416666667, 222.688320797507, -5.79911990073616E-05, 0.12625,35028.98046875
0.0134948566666667, 222.693751967502, 0.000106783024559224, 0.1325,35028.98046875
0.014161595, 222.699477766034, -7.05305691652609E-05, 0.13875,50226.8203125
0.0148282533333333, 222.706073988089, -0.000530600960368598, 0.145,35253.6015625
0.0154950566666667, 222.711913581611, -0.00052806608770201, 0.1525,41567.2421875
0.0161620516666667, 222.717587137205, -0.000421520439362469, 0.15875,37203.83984375
0.0168302383333333, 222.72403314769, -0.000739703957336778, 0.16625,37203.83984375
0.0174948433333333, 222.72980914677, -0.000875733624708379, 0.1725,44721.18359375
0.01816148, 222.735542279171, -0.000415744229444072, 0.17875,37387.76953125
0.0188283916666667, 222.745110727139, -0.000386861680182735, 0.18625,37389.8359375
0.019661565, 222.750718255248, -0.000102474464643746, 0.1925,39154.03125
0.0203283816666667, 222.756272513254, -0.000201326999379969, 0.20125,44188.5390625
0.02099523, 222.762571226652, -0.000381892429763323, 0.2075,44188.5390625
0.0216615483333333, 222.767717950489, -0.000776342616941353, 0.21375,40682.26953125
0.022328865, 222.772471983616, -0.000713392278863944, 0.22,45726.7578125
0.022995105, 222.77877225716, -0.000900651873028013, 0.22625,37812.73828125
0.0236620383333333, 222.785061747838, -0.000824871179415963, 0.23375,42167.28125
0.0243283716666667, 222.790264109742, -0.000559906488332908, 0.24,42167.28125
0.0249950633333333, 222.796169126638, -0.000617889075936564, 0.24625,36640.40625
0.0256616516666667, 222.80283456947, -0.000686686120336815, 0.25375,44221.16796875
0.0263282966666667, 222.809088159905, -0.000662265846897809, 0.26,44300.046875
0.0269968716666667, 222.814515194009, -0.000752471316003972, 0.26625,38752.17578125
0.0276618416666667, 222.821534835674, -0.00118042682024058, 0.2725,38752.17578125
0.0283282, 222.828640015379, -0.00132564952587381, 0.28,50322.9765625
0.028995215, 222.8357299651, -0.0013262119976313, 0.28625,45053.140625
0.0296615916666667, 222.841744528065, -0.00144604847840355, 0.2925,45491.00390625
0.0303281883333333, 222.848757251634, -0.00121351215842374, 0.29875,38295.6796875
0.0309949583333333, 222.85421117614, -0.000957229031253275, 0.30625,38295.6796875
0.0316615583333333, 222.859675755157, -0.000382913878515737, 0.3125,41645.59765625
0.0323282083333333, 222.86555291066, -0.00046599920520439, 0.31875,37874.21484375
0.0329950133333333, 222.871234617241, -5.07030651204482E-05, 0.3275,40858.5078125
0.0336615383333333, 222.877518518163, -0.000251260991339244, 0.3325,35515.63671875
0.0343281516666667, 222.883627422098, -0.000309615560216162, 0.3375,35515.63671875
0.0349948266666667, 222.889697403216, -0.000700653418781665, 0.345,39498.97265625
0.03566166, 222.895021105856, -0.000572721844644769, 0.3525,38144.828125
0.0363292033333333, 222.900857576122, -0.0011371464941669, 0.3575,43692.6171875
0.0369948516666667, 222.906395168426, -0.00127184572835901, 0.365,38043.0234375
0.03766157, 222.912186753578, -0.00123751245292356, 0.37125,38043.0234375
0.038328405, 222.917377555536, -0.00128988982209707, 0.3775,42457.421875
0.0389960483333333, 222.923408291985, -0.00148395157455638, 0.38375,43008.234375
0.0396615166666667, 222.928944426965, -0.00125651799828912, 0.39125,38521.5546875
0.0403286583333333, 222.933953023215, -0.000845607637861691, 0.3975,42385.33203125
0.04099486, 222.939271076342, -0.000973603708705419, 0.40375,42385.33203125
0.0416616233333333, 222.945082810863, -0.00111902590428428, 0.41,43597.703125
0.042328355, 222.950064957034, -0.00100691703541913, 0.4175,39815.6484375
0.0429951616666667, 222.955493726906, -0.00131366812765768, 0.425,41091.109375
0.043828795, 222.961049166651, -0.00178326604022206, 0.43125,43564.828125
0.0444951866666667, 222.966169838451, -0.00187915022407539, 0.44,50154.5
0.0451617066666667, 222.970985541218, -0.00167070719397217, 0.445,50154.5
0.0458281383333333, 222.976800609621, -0.00168930175996622, 0.45125,41974.1875
0.0464954166666667, 222.98163009794, -0.00127452609371397, 0.45875,35666.57421875
0.0471615883333333, 222.987129255969, -0.00116620303465901, 0.465,40670.4140625
0.047828265, 222.992854244889, -0.00104063534178548, 0.47125,44032.578125
0.04849489, 222.998531480829, -0.000880413389590437, 0.4775,44032.578125
0.0491629533333333, 223.003904856764, -0.000734761705514117, 0.485,39561.73046875
0.0498287616666667, 223.009584203713, -0.00116312818910098, 0.49125,40135.49609375
0.0504951266666667, 223.014440176218, -0.000965006140580667, 0.4975,37701.23828125
0.0511616316666667, 223.019578825221, -0.000994241172140532, 0.505,46974.87109375
0.0518283733333333, 223.024414249678, -0.00135621949032261, 0.51125,46974.87109375
0.05249512, 223.029073194291, -0.00146481703558587, 0.5175,43881.140625
0.0531614633333333, 223.033570619929, -0.00111627954227683, 0.52375,41630.65625
0.05382957, 223.038393071511, -0.00128751394135346, 0.53125,39158.50390625
0.0544950633333333, 223.043141239163, -0.000858533988600648, 0.5375,35763.484375
0.0551615866666667, 223.047814265473, -0.000554580255841759, 0.5425,35763.484375
0.0558282566666667, 223.05289800885, -0.000621457396644521, 0.55,37687.66796875
0.0564949133333333, 223.05757485249, -0.00040408981481162, 0.5575,39961.19921875
0.0571616183333333, 223.062254073031, -0.000157479701733074, 0.56375,46346.859375
0.0578287916666667, 223.066933453627, -0.000353287366495334, 0.57,40178.06640625
0.0584950583333333, 223.071087673115, -4.04930778371115E-05, 0.5775,40178.06640625
0.0591615983333333, 223.07499420571, 0.000223447164708486, 0.58375,45293.08984375
0.0598283833333333, 223.079021730579, 0.000258090924559171, 0.59,42670.1875
0.0604948583333333, 223.082822524657, 0.000319100360054937, 0.59625,38426.59375
0.0611617916666667, 223.086449526213, 0.000571432685688346, 0.60375,54145.984375
0.06182817, 223.090684714032, 0.00040054626911578, 0.61,54145.984375
0.0624952466666667, 223.095278964862, 0.000166085545850287, 0.61625,43861.9921875
0.063161495, 223.099456115023, 1.26182477839456E-06, 0.62375,35195.28515625
0.0638282883333333, 223.103079070672, -0.000122655950932744, 0.63,42829.9609375
0.0644953166666667, 223.106560495641, 7.6169562238969E-05, 0.63625,42732.21484375
0.0651616333333333, 223.110021886108, -0.000330551508586269, 0.6425,42732.21484375
0.0658287283333333, 223.112861131941, -0.00012286744035862, 0.65,35875.53515625
0.066494975, 223.116308719542, -0.000441143953667185, 0.65625,41823.13671875
0.0671618683333333, 223.120003317069, -0.000686071151225209, 0.66125,38677.3359375
0.0678282083333333, 223.123516896684, -0.000998949435671268, 0.67,39536.71875
0.0684952583333333, 223.127091153507, -0.000946069591780168, 0.67625,39536.71875
0.0691629916666667, 223.130354517775, -0.00110659002897397, 0.6825,42728.203125
0.0698284366666667, 223.133951616954, -0.000650012962364694, 0.68875,38928.375
0.070494945, 223.137081643501, -0.000492607868666561, 0.695,48312.375
0.071162065, 223.140843832816, -0.000460085002240893, 0.70125,39422.3515625
0.071828325, 223.144590779143, -0.000462295891193869, 0.71,39422.3515625
0.0724952866666667, 223.148323014084, -0.000407523142365791, 0.71625,45149.0859375
0.0731615633333333, 223.150519563796, -0.000618031568776127, 0.7225,40871.75390625
0.0738290016666667, 223.153315288453, -0.00041978052669337, 0.72875,42416.3828125
0.07449536, 223.156889578953, -0.000542439865681397, 0.73625,38388.61328125
0.0751617616666667, 223.158909897571, -0.000322400918018703, 0.7425,38388.61328125
0.07582874, 223.161151313738, -0.000189131112016687, 0.74875,38996.109375
0.076495445, 223.164973980157, 7.19547739006669E-05, 0.755,37661.22265625
0.077161675, 223.168234107605, -8.85236654523484E-05, 0.76125,37602.30078125
0.0778297216666667, 223.169500143808, -2.63197969510215E-06, 0.76875,46358.78125
0.0784954766666667, 223.172430724316, 8.90539150521258E-05, 0.77375,46358.78125
0.0791621216666667, 223.174758317482, -2.17600252773301E-06, 0.78,46339.99609375
0.07982899, 223.176912944436, 5.88514321246345E-05, 0.78875,44669.5703125
0.0804954683333333, 223.17907762939, 0.000101042812911521, 0.795,41577.7578125
0.08116203, 223.182360906989, 0.000191137287569335, 0.80125,37879.6953125
0.08182881, 223.184653764122, 1.46696513570671E-05, 0.8075,37879.6953125
0.0824954666666667, 223.187354047294, -8.46368673140296E-06, 0.815,43002.68359375
0.0831634116666667, 223.190209389294, -0.000100101583855218, 0.82125,43075.56640625
0.083828815, 223.193024509099, -0.000267766162235726, 0.8275,35595.1640625
0.0844950716666667, 223.195415635694, -0.000291518969166503, 0.835,40531.9609375
0.08516231, 223.198914293138, 8.24302477821262E-05, 0.84125,40531.9609375
0.0858288516666667, 223.202003735001, -0.000200433044265595, 0.8475,37333.953125
0.0864950933333333, 223.205585801972, -0.000241962958241866, 0.85375,44746.28515625
0.0871616433333333, 223.20891322742, -0.000334865291850169, 0.86125,42850.5
0.0878289733333333, 223.212674374013, -0.000579087524789884, 0.8675,39919.64453125
0.0884950266666667, 223.215687791771, -0.000932621267178845, 0.87375,39919.64453125
0.08916161, 223.218785813305, -0.000562436861162524, 0.88125,44553.90625
0.0898282766666667, 223.221345385715, -0.000698526525510255, 0.88875,47574.6171875
0.090494925, 223.22420663743, -0.000509792505423989, 0.895,37037.55859375
0.0911620133333333, 223.226459689465, -0.000616465647337806, 0.90125,40801.4609375
0.0918297416666667, 223.229213014073, -0.00048030398657621, 0.9075,40801.4609375
0.0924948966666667, 223.232104347103, -0.000496074194472588, 0.91375,43470.40625
0.0931621266666667, 223.23479933036, 2.72705185005165E-05, 0.92125,42509.45703125
0.09382823, 223.237825629676, -4.08680590016882E-05, 0.9275,45360.87109375
0.0944956833333333, 223.240876563836, 0.000116754523777426, 0.9325,43107.9296875
0.0951617866666667, 223.244173027694, 0.000240387313809437, 0.94,43107.9296875
0.0958288333333333, 223.247553310439, 0.00019446112064207, 0.9475,43952.12890625
0.0964960016666667, 223.251644744223, -5.58058087267329E-05, 0.955,37313.30078125
0.0971615966666667, 223.255395154151, 0.000108978914310675, 0.96,41874.453125
0.09782826, 223.259161161803, 0.000230019834527521, 0.96625,44205.1484375
0.0984949266666667, 223.263033591419, 0.00026310967248389, 0.97375,44205.1484375
0.0991620116666667, 223.266761833666, 0.000312613185948143, 0.98125,43688.65234375
0.0998282866666667, 223.270400691245, 0.000268752389024126, 0.9875,42109.01171875
0.100495635, 223.274155466371, -0.000253146396547934, 0.99375,40088.015625
0.101161566666667, 223.278636661157, -0.000493507823457294, 1,45887.98828125
0.101828655, 223.282415149496, -0.000191749980428603, 1.00625,45887.98828125
0.102495691666667, 223.286627866169, -0.000188594138931542, 1.0125,39170.3515625
0.103161746666667, 223.289782862328, 9.76724821610322E-05, 1.02,44221.91796875
0.103828235, 223.293840267686, 0.000676410912771433, 1.0275,42417.77734375
0.104495193333333, 223.297215516685, 0.000927570297308953, 1.03375,38722.0703125
0.10516162, 223.301263094813, 0.000240126326899508, 1.04,38722.0703125
0.10582834, 223.304535079187, 0.000608075845151147, 1.04625,40768.98828125
0.106496016666667, 223.308778149735, 0.000410180285236979, 1.055,41520.39453125
0.107161555, 223.31224048427, 2.3414212094593E-05, 1.05875,46223.62109375
0.107828915, 223.315585944714, -4.19975023748988E-05, 1.065,39604.16015625
0.108495805, 223.318893371684, 0.000119217399945132, 1.07375,39604.16015625
0.109161626666667, 223.322740108348, -0.000274052346493738, 1.08,40352.171875
0.109828753333333, 223.325471137783, -0.00047256137559511, 1.08625,47300.2265625
0.110496423333333, 223.329430206639, -0.00017138400341675, 1.09125,45498.21875
0.111161626666667, 223.332567979141, -3.06325732160372E-05, 1.1,39634.80859375
0.11182874, 223.336069739798, -0.000110769048060295, 1.10625,39634.80859375
0.112495548333333, 223.339449876877, 3.35012054068297E-05, 1.11125,39758.2265625
0.113161656666667, 223.343288644186, 0.000199772353782915, 1.11875,35664.375
0.113829766666667, 223.345875211197, 0.000418438870404087, 1.125,39984.40625
0.114495051666667, 223.349706709912, 0.000345803518818276, 1.13375,43604.5234375
0.115163455, 223.353001317938, 0.000467501406072527, 1.14125,43604.5234375
0.115828911666667, 223.356839038616, 2.13293168339991E-05, 1.145,39161.39453125
0.116494893333333, 223.36007912053, 0.000260889783963241, 1.15125,44787.8671875
0.117161603333333, 223.364126194952, -6.49433498066911E-05, 1.1575,43336.78515625
0.117828263333333, 223.367448280555, -3.32604412381351E-05, 1.165,44485.31640625
0.11849592, 223.370576696812, -8.78381998300267E-05, 1.1725,44485.31640625
0.119161691666667, 223.373143211127, 0.000848276780106851, 1.1775,39000.34765625
0.119828746666667, 223.376221351331, 0.000596808411078498, 1.18375,37700.62109375
0.120494928333333, 223.379197583475, 0.000857594312072692, 1.1925,44800.609375
0.121161565, 223.382883604269, 0.000642274127369049, 1.19875,36904.15625
0.121828413333333, 223.386371732435, 0.000661110181277038, 1.205,36904.15625
0.122496095, 223.390156828669, 0.00027293117907048, 1.21125,44160.61328125
0.123162275, 223.393382476982, 0.000285490048245621, 1.2175,41396.98828125
0.123828608333333, 223.396969419129, 0.000141944258435303, 1.22375,40572.10546875
0.124495048333333, 223.399929309356, 0.000418116386614878, 1.23125,44048.62109375
0.125161625, 223.403346458799, 0.000531581187374369, 1.2375,44048.62109375
0.1258298, 223.406439754475, 0.000191629262794858, 1.24375,41575.94921875
0.126495041666667, 223.410459418916, 0.000170594319392882, 1.25125,38638.5234375
0.127161571666667, 223.413440438259, 0.00018516008771714, 1.2575,42599.19921875
0.127828378333333, 223.417256094211, 0.000381974201945273, 1.26375,39965.48046875
0.128495158333333, 223.42023585879, 0.000304458095501097, 1.27,39965.48046875
0.12916184, 223.423969449676, 0.000505080518426724, 1.27625,42769.55859375
0.129828263333333, 223.427481530072, 0.000323588134592124, 1.28375,48514.51171875
0.130495005, 223.431588332912, 6.84154447243986E-06, 1.29,39397.41796875
0.131161596666667, 223.434926127235, -0.000378343608072609, 1.29625,42468.125
0.13182832, 223.438356930097, -0.000415417245902908, 1.305,42468.125
0.132496831666667, 223.441667655413, -0.000381257961655729, 1.31125,42955.34765625
0.133162485, 223.445834478542, -0.000170673039143335, 1.3175,45232.9375
0.133828896666667, 223.449281377731, -0.00019496731888996, 1.3225,36099
0.134495335, 223.453847502399, -0.000115646803069853, 1.32875,44599.40625
0.135161901666667, 223.457619414477, 7.28712279023444E-05, 1.33625,44599.40625
0.13582823, 223.462393118826, 4.21962686603022E-05, 1.3425,40627.5
0.13649556, 223.465704986849, 8.94293894397787E-06, 1.34875,42174.66796875
0.137162111666667, 223.470602533923, 6.41131678451892E-05, 1.35625,40676.64453125
0.137828453333333, 223.474843894155, 3.72170122481937E-06, 1.3625,37696.44140625
0.138495, 223.479996476134, 0.000237225472551001, 1.37,37696.44140625
0.139161531666667, 223.483997379079, 0.000176103542576212, 1.375,42467.90234375
0.139829323333333, 223.488989374188, 0.000566341941328508, 1.3825,41803.01171875
0.14049496, 223.49283109996, 0.000599484276617737, 1.38875,41135.0625
0.141162058333333, 223.497042865477, 0.00068340806119659, 1.39625,36231.953125
0.14182894, 223.501605879612, 0.000240207322732268, 1.4025,36231.953125
0.142496741666667, 223.506394077018, 0.000288897877084938, 1.40875,37576.67578125
0.143162495, 223.511210210115, 6.39226773397049E-05, 1.41375,42242.24609375
0.143829335, 223.515739024405, 0.000367372435371574, 1.42125,52325.32421875
0.144495543333333, 223.520980509304, 0.000415559015039733, 1.42875,46314.55859375
0.145161521666667, 223.525822608224, 0.00060141467968605, 1.435,46314.55859375
0.145828758333333, 223.530758033662, 0.000652638606759651, 1.44125,37453.4375
0.14649657, 223.536118999461, 0.000857336324990315, 1.44875,39874.0859375
0.147161505, 223.54124895514, 0.000577081401926195, 1.45375,38664.35546875
0.147828808333333, 223.546282652566, 0.000933127518094441, 1.46,37349.18359375
0.1484949, 223.551586155703, 0.00109161405747861, 1.4675,37349.18359375
0.14916203, 223.55670596368, 0.00100873722026076, 1.475,42394.6015625
0.149829725, 223.561080243079, 0.000915770389903113, 1.48125,36082.87890625
0.150494866666667, 223.566235187983, 0.00119939564367521, 1.4875,44498.265625
0.151162206666667, 223.570487801325, 0.000885195925596089, 1.49375,37480.3671875
0.151828205, 223.575224413899, 0.000697520852308556, 1.50125,37480.3671875
0.152496405, 223.579906508887, 0.000585093999384898, 1.5075,43180.7890625
0.153161618333333, 223.585160696429, 0.000727364853239906, 1.515,43342.7421875
0.153828798333333, 223.58941065428, 0.000652892093962547, 1.52125,39758.49609375
0.154495391666667, 223.594045717481, 0.00074347104428763, 1.5275,47693.50390625
0.155161603333333, 223.598314174603, 0.000827084344472499, 1.53375,47693.50390625
0.155828268333333, 223.603065765249, 0.000938797233273936, 1.54125,50463.39453125
0.156495493333333, 223.607322642285, 0.000661645654310255, 1.5475,38611.4375
0.157162163333333, 223.612224455609, 0.000614035045719217, 1.55375,47655.6171875
0.157828828333333, 223.616883328778, 0.000571576678346042, 1.56,40679.28515625
0.158495515, 223.62151602792, 0.000570652724786111, 1.5675,40679.28515625
0.159162076666667, 223.625541666764, 0.000852335576158435, 1.57375,44168.70703125
0.159828423333333, 223.630044213981, 0.000919236715794157, 1.58,38437.76171875
0.160494868333333, 223.634588222812, 0.00095630285400244, 1.58625,47930.765625
0.161161563333333, 223.638696208177, 0.00121894716162983, 1.59375,36230.875
0.161828198333333, 223.643060792655, 0.00126121803841009, 1.60125,36230.875
0.162495898333333, 223.647881303534, 0.000721215162166352, 1.6075,42104.91015625
0.163161681666667, 223.652676336865, 0.00086878974964646, 1.61375,40270.109375
0.163828465, 223.657015141264, 0.000873708002636161, 1.62,35101.0546875
0.164495546666667, 223.661813348197, 0.000778093805239178, 1.62625,37833.01953125
0.165162091666667, 223.66638643853, 0.00113831421174433, 1.6325,37833.01953125
0.165828605, 223.670879570881, 0.00166709765151757, 1.64,43283.03125
0.16649508, 223.675097063494, 0.00147629073556594, 1.6475,44241.9296875
0.167162511666667, 223.680178297568, 0.00153587074291411, 1.655,43433.72265625
