Time (min), Depth (µm), Load (N), Position (µm), Acoustic (aJ)
9.31833333333333E-06, 222.682410252439, 2.64263818498944E-05, 0,36609.765625
0.000666441666666667, 222.682315238259, -0.000216643909020593, 0.00125,36609.765625
0.00133511833333333, 222.681475676215, -0.000292090119426954, 0.005,38426.6171875
0.00200090333333333, 222.678945571393, -0.000517485298068861, 0.01375,44974.35546875
0.00266678333333333, 222.675938001188, -0.000389288237227572, 0.02125,46635.40234375
0.00333406166666667, 222.673483817863, -0.000222598609879216, 0.03,45105.97265625
0.00400093833333333, 222.672464011469, -3.61114769103488E-05, 0.03625,45105.97265625
0.00466771166666667, 222.673800064368, -0.000118542836474165, 0.04375,39106.0546875
0.0053331, 222.67784755156, -0.000142834116350728, 0.05125,38245.66015625
0.00600072, 222.683781144005, -0.000533934971762423, 0.0575,51919.2578125
0.00666595333333333, 222.690630477576, -0.000915641799042456, 0.065,38695.24609375
0.00733402166666667, 222.696373298448, -0.000964332353373872, 0.07125,38695.24609375
0.00799994666666667, 222.70203053412, -0.000867026240952457, 0.07875,38278.21484375
0.00866676833333333, 222.707882876553, -0.00115041600659325, 0.08375,37176.63671875
0.009334165, 222.713109047846, -0.0011281961226789, 0.09,39992.90234375
0.01000081, 222.717925091095, -0.00103172846812643, 0.09875,38680.46875
0.0106675333333333, 222.72378107106, -0.00129532072814671, 0.105,38680.46875
0.01133415, 222.73282490875, -0.00163597611739887, 0.1125,47359.30859375
0.0121675183333333, 222.738030920099, -0.00128029298299998, 0.11875,36331.2578125
0.01283416, 222.743212543224, -0.00155302728385217, 0.12625,41591.09765625
0.0135007816666667, 222.748628075755, -0.00160823801069102, 0.1325,38116.578125
0.0141674316666667, 222.753304879448, -0.00163953243881788, 0.14,42041.6328125
0.0148326816666667, 222.758959846128, -0.00144935399127622, 0.14625,42041.6328125
0.0155008733333333, 222.764423856966, -0.00127509724399568, 0.15125,37977.8984375
0.0161681683333333, 222.770630626656, -0.00100020155171707, 0.16,35747.03125
0.016834655, 222.775909588383, -0.000774639881445145, 0.16625,39463.1953125
0.0175012516666667, 222.782918470781, -0.00035223409843577, 0.1725,37334.83984375
0.0181674083333333, 222.788141466095, -4.99254002368824E-06, 0.17875,37334.83984375
0.0188331, 222.795295500035, 3.73698321239159E-05, 0.185,43785.07421875
0.0195010366666667, 222.8009383119, 0.000105166426777161, 0.1925,39496.76953125
0.020167375, 222.807829253, -8.41540638357953E-05, 0.19875,36242.640625
0.0208341616666667, 222.813749465856, -0.000485022428640578, 0.205,47664.12890625
0.0215007633333333, 222.819750844618, -0.000622594018596286, 0.21125,47664.12890625
0.022167605, 222.824788942402, -0.000693360464056826, 0.2175,37408.78515625
0.02283295, 222.830899641886, -0.000610876607138897, 0.225,45519.703125
0.02349923, 222.836548715708, -0.000697413260495814, 0.2325,40007.65234375
0.0241659733333333, 222.842053563982, -0.000636909299566454, 0.23875,37950.1640625
0.02483408, 222.848631407646, -0.000536648335560523, 0.245,37950.1640625
0.0255012833333333, 222.855053184646, -0.00069486788833715, 0.25125,36175.9609375
0.0261666916666667, 222.861165113919, -0.000674083432310517, 0.25875,40346.5546875
0.0268341466666667, 222.867411808922, -0.000505347907714797, 0.265,44116
0.0275007333333333, 222.873565879701, -0.000154425534179498, 0.27125,42219.921875
0.0281674383333333, 222.880057964951, -0.000421425623039094, 0.2775,42219.921875
0.0288344083333333, 222.886051773341, -0.000446261375580311, 0.285,36910.67578125
0.0294997666666667, 222.893013334392, -0.000508710738822016, 0.29125,44163.24609375
0.0301675933333333, 222.89901284837, -0.00051418396388343, 0.2975,39296.09765625
0.030834025, 222.906074264173, -0.000890195577162843, 0.30375,40095.55859375
0.031499285, 222.9121833105, -0.000978274153061358, 0.31125,40095.55859375
0.0321679066666667, 222.918088432878, -0.000745430348600135, 0.3175,41823.96875
0.03283483, 222.922988906293, -0.000568572731958003, 0.32375,34322.48046875
0.03350147, 222.929069312948, -0.000685383864677531, 0.33125,43287.93359375
0.034167855, 222.934519534289, -0.000374725468773375, 0.3375,39052.578125
0.034834695, 222.940487857386, -0.000249279269819013, 0.3425,39052.578125
0.0355030066666667, 222.945454708984, -0.000473296017679278, 0.35,46797.2890625
0.0361667966666667, 222.951631118555, -0.00066764575570903, 0.35625,38296.609375
0.0368332433333333, 222.956725587417, -0.000417725308941142, 0.3625,38826.328125
0.0374998516666667, 222.961429026655, -0.000446322872502099, 0.37,42716.84765625
0.0381662416666667, 222.965776994564, -0.000564720925474068, 0.37625,42716.84765625
0.038832855, 222.970999729731, -0.000434957943321983, 0.3825,45081.91796875
0.0394998766666667, 222.976204905345, -0.000438137783609496, 0.38875,48959.76171875
0.04016612, 222.981133313521, -0.000831683516223583, 0.39625,37879.75390625
0.040832875, 222.986017874733, -0.000725605844404129, 0.4025,42903.74609375
0.04149931, 222.990700638674, -0.000455886392112582, 0.41,42903.74609375
0.0421676183333333, 222.995809298215, -0.000170302236708507, 0.41625,39855.8203125
0.04283317, 223.000482206498, 0.000160177663649119, 0.4225,41624.33984375
0.0434996666666667, 223.005484869826, 0.000524908343600015, 0.43,42585.9609375
0.0441662316666667, 223.010790256905, 0.000239624173119099, 0.43625,38402.55859375
0.044833125, 223.015908348759, 0.000177167310255378, 0.44125,38402.55859375
0.0454996183333333, 223.020816534247, 5.22175863422569E-05, 0.44875,43417.12109375
0.046166265, 223.025285216266, -0.000255925435976316, 0.45625,39644.69921875
0.0468332033333333, 223.030293992856, -0.000241674651755488, 0.4625,43089.08984375
0.0474997016666667, 223.034947135664, -6.7159535030971E-06, 0.46875,39002.0546875
0.04816623, 223.040371245949, -0.000102687132971818, 0.475,39002.0546875
0.04883267, 223.044425785673, -0.000440981640809426, 0.48125,39515.140625
0.0494998766666667, 223.049417785345, -0.000162679619594651, 0.48875,37753.2265625
0.0501662566666667, 223.053339235068, -0.000544306950902565, 0.495,37034.96875
0.05083501, 223.057090113916, -0.000792755971575808, 0.50125,39310.8515625
0.0515018383333333, 223.060459940098, -0.000778091208155918, 0.5075,39310.8515625
0.0521676066666667, 223.064506158989, -0.000596370835790769, 0.51375,40182.078125
0.05283314, 223.067767908255, -0.00109666770638764, 0.52125,38532.80078125
0.053499545, 223.071087207679, -0.00100001856098238, 0.5275,49446.25390625
0.054167495, 223.074289869695, -0.000888236675637139, 0.53375,36768.05078125
0.054832955, 223.076903985724, -0.000705094374661398, 0.54125,36768.05078125
0.0554998616666667, 223.079424885479, -0.000555944866260312, 0.54625,43144.453125
0.0561663066666667, 223.081729256541, -0.00010419305728523, 0.55375,46492.31640625
0.0568333716666667, 223.084643300951, 0.000205145404952772, 0.56125,38697.328125
0.05750021, 223.08682230413, 0.000369670641025909, 0.5675,39071.5390625
0.05816754, 223.089696649814, 0.00028065011241086, 0.57375,39071.5390625
0.0588337916666667, 223.092389918067, 0.00041947863918653, 0.58,38401.37109375
0.0594998066666667, 223.095649363231, 0.000371221563071418, 0.58625,39912.84765625
0.0601664516666667, 223.097725006881, 0.00031029312345092, 0.59375,37069.43359375
0.060832565, 223.100938311367, 0.000430410090107834, 0.6,42632.63671875
0.0615008566666667, 223.103852923237, 0.000435716823560487, 0.60625,42632.63671875
0.0621662916666667, 223.106647867988, 0.00050188150016543, 0.61375,47338.97265625
0.0628331133333333, 223.108519633069, 0.000644822820377473, 0.62,34600.34765625
0.0634996416666667, 223.111716123818, 0.000630548037366193, 0.62625,41059.84765625
0.0641674966666667, 223.113598819005, 0.000670692020960059, 0.6325,37315.48828125
0.0648326616666667, 223.115443799264, 0.000634396844043829, 0.64,37315.48828125
0.06550093, 223.118264782308, 8.1133133897958E-05, 0.64625,36991.078125
0.066166005, 223.120931730332, 6.35525169280369E-05, 0.6525,42440.27734375
0.0668342983333333, 223.122386415595, 0.000265619367351559, 0.66,41849.8359375
0.0675000833333333, 223.124334054629, 0.00046141653266425, 0.665,46017.65234375
0.0681668483333333, 223.126485110102, 0.00085141794329707, 0.67125,46017.65234375
0.0688330616666667, 223.128807893957, 0.0010199974757336, 0.68,44372.125
0.0694994433333333, 223.130311184396, 0.000982703348994765, 0.68625,34321.140625
0.0701677433333333, 223.133298123087, 0.00110705910269542, 0.6925,44193.45703125
0.0708340316666667, 223.135757124202, 0.000599852079182505, 0.69875,33956.1796875
0.0715010716666667, 223.138953482633, 0.000111070130163564, 0.70625,33956.1796875
0.072166505, 223.140539416953, 0.000238601224442282, 0.71125,42262.18359375
0.07283295, 223.144095506222, -0.000277459854353356, 0.7175,41304.375
0.0734992966666667, 223.146722669787, -0.00109934507191505, 0.725,37156.80078125
0.0741682133333333, 223.149922966338, -0.00120908555976488, 0.7325,40592.35546875
0.0748343083333333, 223.151298641722, -0.00103341738338707, 0.73875,40592.35546875
0.075502525, 223.153845971995, -0.000950548045876252, 0.745,39190.7734375
0.0761680266666667, 223.155066872476, -0.000664041436815395, 0.7525,40056.25
0.0768358383333333, 223.156931152225, 0.000178889223661605, 0.75875,41986.3125
0.0775012366666667, 223.158687946704, 0.000257624768879424, 0.765,46150.44921875
0.078167855, 223.161217496092, -0.000144749520281279, 0.77125,46150.44921875
0.0788346483333333, 223.162025690011, -0.000311037167783292, 0.77875,39007.32421875
0.07950118, 223.164003161948, -0.000192622615642887, 0.785,40468.16796875
0.0801678866666667, 223.165445024951, -0.000455347919230558, 0.79125,43044.47265625
0.08083451, 223.167340351014, -0.000308370301769218, 0.7975,38342.1953125
0.0815009383333333, 223.168686078319, -0.00015671441928646, 0.805,38342.1953125
0.0821676033333333, 223.171975887047, -6.66169447798394E-05, 0.81125,38453.75390625
0.0828345066666667, 223.174591604504, -0.00040603039639231, 0.8175,40231.046875
0.0835010433333333, 223.177434300117, -0.000312606088985403, 0.825,40345.6640625
0.0841693466666667, 223.180174769429, -0.000495469403958376, 0.83125,45134.55078125
0.0848345316666667, 223.183888276125, -0.0003048274796911, 0.8375,45134.55078125
0.0855011766666667, 223.186650771224, 6.00678989986377E-07, 0.845,36713.26953125
0.0861687516666667, 223.189780807707, 0.000481358031027473, 0.85125,47725.484375
0.0868345616666667, 223.192563390645, 0.000569991579040211, 0.85875,36645.51171875
0.087501235, 223.195722749738, 0.000871860416495997, 0.86375,40605.7109375
0.0881678583333333, 223.19860702538, 0.000710888501929293, 0.87125,40605.7109375
0.0888344916666667, 223.202191901792, 0.000608532143149437, 0.8775,43046.87109375
0.089501145, 223.205141258962, 0.000303354471886203, 0.88375,41653.83984375
0.0901676483333333, 223.208606193318, 4.54214276171038E-05, 0.89125,38132.765625
0.0908345116666667, 223.211571773376, -0.000117326397740614, 0.8975,41591.953125
0.091502455, 223.21496915856, -0.000271316162998669, 0.90375,41591.953125
0.0921692283333333, 223.218163508625, -0.000390650168968304, 0.91125,39109.83984375
0.0928361066666667, 223.221624126837, -0.000484270966493292, 0.91875,44019.5390625
0.0935025466666667, 223.224794068637, -0.00053339199921346, 0.92375,38948.890625
0.0941692333333333, 223.227523451951, -0.000232102132683602, 0.93,38346.2890625
0.0948348066666667, 223.230221311458, 0.000196637832164691, 0.93625,38346.2890625
0.0955024683333333, 223.23296890887, 7.53704232991905E-05, 0.94375,41363.2890625
0.0961678983333333, 223.235571164687, 0.00064907510674084, 0.95,45573.15234375
0.09683455, 223.238582068863, 0.000687707166259919, 0.95625,38999.56640625
0.097501335, 223.242026923748, 0.000593904877860883, 0.96375,35252.24609375
0.0981677033333333, 223.245039429693, 7.65088661125501E-05, 0.97125,35252.24609375
0.0988354033333333, 223.247556189803, 4.60003985005236E-05, 0.97625,36406.85546875
0.09950119, 223.251118058546, -0.000369993206600966, 0.98375,40111.66015625
0.100167798333333, 223.253835810441, -0.000368625275290145, 0.99,42771.48046875
0.100835923333333, 223.256516853856, -0.000616828308276237, 0.99625,36444.3203125
0.10150217, 223.259252643056, -0.000353720523901972, 1.0025,36444.3203125
0.102167715, 223.262352090711, -8.21696636164903E-05, 1.01125,39848.40625
0.102834586666667, 223.264613449369, -2.00562834836231E-05, 1.0175,42620.23046875
0.10350131, 223.267147618795, 0.000394165910578807, 1.0225,39471.75
0.10416796, 223.270489689826, 0.000445925310728133, 1.03,41930.3828125
0.104834731666667, 223.273281081295, 0.000455590825240546, 1.0375,41930.3828125
0.105501116666667, 223.276277489994, 0.000629886570534323, 1.04375,46238.20703125
0.106167953333333, 223.279068601489, 0.000865824719592074, 1.04875,32869.40625
0.106834646666667, 223.2824923206, 0.000591779484598893, 1.0575,35844.26953125
0.10750211, 223.285047401067, 0.000830429497445324, 1.06375,38377.46484375
0.10816854, 223.28860842364, 0.000527665204972014, 1.07,38377.46484375
0.108835798333333, 223.291753734317, 0.000233450483085061, 1.07625,43771.7578125
0.10950279, 223.295024403857, -3.51290264474692E-05, 1.0825,39812.07421875
0.110169255, 223.297048022984, -0.000348596781332788, 1.08875,39983.71875
0.110836148333333, 223.299676524326, -0.000432177083159532, 1.0975,42629.203125
0.111502575, 223.302295612866, -0.000415883401561401, 1.1025,42629.203125
0.112169256666667, 223.304193045903, -0.000287447852739994, 1.11,47754.3671875
0.112836033333333, 223.306544052483, -0.000427593313354266, 1.115,39430.44921875
0.113502968333333, 223.309682333087, -0.00025897028308879, 1.12125,42391.4921875
0.114169071666667, 223.312453404355, -0.000339429241679748, 1.12875,33012.953125
0.114836453333333, 223.31478328241, 4.75843190316837E-05, 1.1375,33012.953125
0.115501946666667, 223.31785310428, -7.0714738950925E-05, 1.14125,39911.25
0.116167788333333, 223.320228405494, 0.000479933102546821, 1.14875,42853.05859375
0.116834341666667, 223.32273416727, 0.000787474655030908, 1.155,39198.0546875
0.117502571666667, 223.32539654861, 0.000996345163652821, 1.1625,41228.37890625
0.11816787, 223.32822913611, 0.000677123697821425, 1.16875,41228.37890625
0.118840038333333, 223.330188687812, 0.00109210035398622, 1.175,47983.65625
0.119506773333333, 223.332450200709, 0.000818602591485243, 1.18125,44106.0859375
0.120173533333333, 223.33492186334, 0.000435367341004495, 1.1875,42965.38671875
0.120840385, 223.337122054066, 0.00030795924061186, 1.195,45351.79296875
0.121506516666667, 223.339314790138, 0.000315746849431329, 1.2025,45351.79296875
0.122173765, 223.342479836869, -0.000334989464787228, 1.20875,48462.03125
0.122840351666667, 223.345875216361, -0.000518532245621147, 1.215,38820.22265625
0.123506748333333, 223.349238609665, -0.000515626891541938, 1.22125,34576.05859375
0.124173328333333, 223.352226053348, -0.000734741885665954, 1.22875,37362.94921875
0.12483989, 223.355275072034, -0.000409607716774211, 1.23375,37362.94921875
0.125507893333333, 223.357980495014, -0.000179714264081786, 1.24,40764.1953125
0.126174085, 223.361049157758, -8.63574533155337E-05, 1.2475,36963.7265625
0.126842035, 223.364361694372, 0.000207237799707858, 1.255,41779.34375
0.12750715, 223.368171887728, 0.000500234582788079, 1.26125,41471.19140625
0.128173438333333, 223.372315440563, 7.14796186957545E-05, 1.26625,41471.19140625
0.12883996, 223.376503697157, -7.77733844679023E-05, 1.27375,45698.00390625
0.12950747, 223.381067467484, -0.000125959964114807, 1.28,35573.16796875
0.1301737, 223.385012955342, -0.000545730379480069, 1.28625,41745.22265625
0.13084105, 223.38901204003, -0.000672025535795453, 1.295,35827.81640625
0.131506578333333, 223.393311317434, -0.000419700709847823, 1.30125,35827.81640625
0.132173265, 223.398673226812, -0.000598172245424164, 1.30625,38882.78515625
0.132839856666667, 223.402601271261, -0.000572795020088354, 1.3125,41356.015625
0.133506648333333, 223.407135880515, -0.000528232258437343, 1.32,37230.078125
0.13417397, 223.412448490277, -0.000803721920885911, 1.32625,42370.62890625
0.134840818333333, 223.41695237162, -0.000910471558923041, 1.33375,42370.62890625
0.135507678333333, 223.421090960016, -0.000824399882194896, 1.34,38538.80078125
0.136173571666667, 223.426103202231, -0.000854596365446028, 1.34625,43264.32421875
0.136840218333333, 223.431050116846, -0.000793229947793508, 1.3525,42096.58984375
0.13750695, 223.434641452167, -0.000430479168416232, 1.35875,42039.76953125
0.138173456666667, 223.438840854781, -0.000357770320513408, 1.36625,42039.76953125
0.138840378333333, 223.443588829851, -0.000216151933858833, 1.3725,45091.3515625
0.139507066666667, 223.448608541908, -0.000447936791563832, 1.37875,38997.67578125
0.140173376666667, 223.452993025868, -0.000551130108288231, 1.38625,35831.94140625
0.140839818333333, 223.458065409555, -0.00038423949102733, 1.3925,41588.51171875
0.141506611666667, 223.462921082371, -0.000451263624485373, 1.39875,41588.51171875
0.14217335, 223.466837350695, -0.000316574889742825, 1.405,36106.72265625
0.14284011, 223.470762419078, -0.000194143539327856, 1.41125,43536.31640625
0.143506686666667, 223.475568234007, 7.56224105989378E-05, 1.41875,40931.2578125
0.144173875, 223.479507035009, -0.00012355858472011, 1.425,42429.640625
0.144840446666667, 223.483680872834, 4.00201989270462E-05, 1.43125,42429.640625
0.145506985, 223.488148821772, 8.46354579321715E-05, 1.43875,37310.09765625
0.146173925, 223.49303511841, 0.000134059475403051, 1.445,44986.25390625
0.14684079, 223.497385457993, 3.89747513841804E-05, 1.45125,36348.78125
0.147507096666667, 223.503457007725, 5.75288194405944E-05, 1.4575,38479.87890625
0.148173401666667, 223.508685975547, 0.000162765033521042, 1.46375,38479.87890625
0.148839861666667, 223.514075169005, 5.99961954877814E-05, 1.47125,36556.1015625
0.149507265, 223.518765000016, 0.00020298251347443, 1.4775,38347.3359375
0.15017411, 223.523825634806, 0.000421884518290676, 1.485,41884.50390625
0.15084027, 223.52750886708, 0.000524636857112992, 1.4925,42182.890625
0.151507061666667, 223.532013738818, 0.0003222190243366, 1.49875,42182.890625
0.152173278333333, 223.536936781289, 0.000543616903763694, 1.505,36613.37109375
0.152841155, 223.541805876675, 0.000230161148337364, 1.51125,41699.3984375
0.15350707, 223.546137050637, -0.000157551377273511, 1.5175,37009.8671875
0.154173566666667, 223.550601949708, -0.000224980490341687, 1.52375,51456.0625
0.154841363333333, 223.555166610978, -0.0003038510287558, 1.53125,51456.0625
0.155507058333333, 223.559501493536, -0.00048631536375249, 1.5375,36958.23046875
0.156173511666667, 223.563701658135, -0.000132142653503979, 1.54375,36702.94921875
0.156840891666667, 223.568631323132, 0.00015011466899981, 1.55125,37230.1796875
0.157508823333333, 223.573860357686, 0.00013910222216073, 1.5575,37739.29296875
0.158174745, 223.578222385209, 8.44614667013936E-05, 1.56375,37739.29296875
0.1588403, 223.582947977655, -2.36279018318421E-07, 1.57,35384.5390625
0.159508026666667, 223.586937536031, -4.92504351055812E-06, 1.5775,41721.82421875
0.160175498333333, 223.591270257168, -0.000216375422594919, 1.58375,37400.85546875
0.160840401666667, 223.595009766625, -0.000440177681223009, 1.59,36677.15234375
0.161508838333333, 223.599629622183, -0.000153509080305345, 1.59625,36677.15234375
0.162175468333333, 223.603679033569, -6.42620631054049E-05, 1.60375,40796.3125
0.162841328333333, 223.608633476837, -0.00035563892753255, 1.61,41298.2734375
0.163506986666667, 223.612658504041, -0.000369070752859167, 1.61625,43072.49609375
0.164174533333333, 223.617655691682, -0.000402103593645704, 1.625,45144.52734375
0.164840276666667, 223.622417072751, -0.000621220087672869, 1.63125,45144.52734375
0.165506601666667, 223.627281080928, -0.000798545680750072, 1.63625,36023.859375
