Time (min), Depth (µm), Load (N), Position (µm), Acoustic (aJ)
7.78166666666667E-06, 229.323106997688, -0.00143713598685588, 0,346.64453125
0.000666223333333333, 229.322839637983, -0.00135967987738783, 0.00625,343.361175537109
0.00133148, 229.32295051017, -0.00115090986370094, 0.02,343.515441894531
0.00199821833333333, 229.324505185073, -0.000905538688413278, 0.035,340.667083740234
0.00266600666666667, 229.327989909335, -0.000636920180825009, 0.05,340.667083740234
0.00333170166666667, 229.333452151148, -0.000548970598425174, 0.0625,352.836517333984
0.00399826833333333, 229.33996788368, -0.000375889792089322, 0.07625,355.425903320313
0.00466516, 229.34888580594, -0.000633519851607709, 0.09,357.466003417969
0.00533158333333333, 229.357625585247, -0.00060911307753084, 0.10375,360.629974365234
0.00599865833333333, 229.367035921453, -0.000494286345158143, 0.1175,360.629974365234
0.0066652, 229.376500591049, -0.000667359651871978, 0.13,362.235321044922
0.00733343666666667, 229.386636577085, -0.00083541871041305, 0.14375,363.480834960938
0.007999805, 229.395707278086, -0.000758847556512959, 0.15625,363.971435546875
0.008666495, 229.404942072815, -0.00068420830558433, 0.17,365.634887695313
0.00933160166666667, 229.412732044822, -0.000738027102343157, 0.1825,365.634887695313
0.00999826333333333, 229.420426278167, -0.000592118931130118, 0.19625,369.634124755859
0.0106655983333333, 229.428429840687, -0.000503786867964943, 0.21,371.559051513672
0.0113315466666667, 229.43700537144, -0.000299309638642812, 0.2225,382.688598632813
0.0119988733333333, 229.446292318766, -0.000337371726846145, 0.23625,382.140777587891
0.0126658716666667, 229.455527271225, -0.000342039492375485, 0.25,382.140777587891
0.01333158, 229.465973596355, -0.000555903250228515, 0.2625,385.152923583984
0.0139983283333333, 229.475296751923, -0.000304035901245133, 0.275,388.834869384766
0.0146650883333333, 229.485088317748, -0.000535493775345205, 0.28875,391.279724121094
0.0153315966666667, 229.494531960704, -0.000596048733683022, 0.3025,468.454376220703
0.01599919, 229.505070520748, -0.000519996553690221, 0.31625,468.454376220703
0.0166649016666667, 229.514966833553, -0.000631265464783277, 0.32875,393.781768798828
0.0173315666666667, 229.525040942212, -0.00100464471033114, 0.3425,397.034545898438
0.01799845, 229.534879319634, -0.000855451704164871, 0.35625,409.453308105469
0.0186649716666667, 229.545210471311, -0.00101884299724037, 0.36875,411.433258056641
0.01933155, 229.555803198921, -0.00128318521961105, 0.3825,411.433258056641
0.0199983516666667, 229.566538578735, -0.00129393817948586, 0.395,408.098022460938
0.0206650916666667, 229.57844035076, -0.00157511555622802, 0.40875,411.977600097656
0.0213315816666667, 229.589972087581, -0.00181586096382712, 0.4225,410.354614257813
0.0219982783333333, 229.601169582454, -0.00163530003321697, 0.43625,404.972808837891
0.0226652783333333, 229.612987883539, -0.00174413156672965, 0.45,404.972808837891
0.0233315616666667, 229.623941160316, -0.00144527307810381, 0.46375,403.285552978516
0.0239982983333333, 229.634652193671, -0.00124855645898315, 0.47625,412.530670166016
0.0246650883333333, 229.645989611151, -0.0010765031010123, 0.49,413.738922119141
0.0253315166666667, 229.657528988934, -0.00113957793281518, 0.5025,402.630950927734
0.0259985083333333, 229.668195382268, -0.00105042091105819, 0.51625,402.630950927734
0.0266649116666667, 229.679428212293, -0.00108122186397136, 0.53,404.335388183594
0.0273315383333333, 229.690560340777, -0.00106705507555962, 0.5425,410.809020996094
0.02799837, 229.701382861573, -0.00111673708011287, 0.55625,405.798614501953
0.0286649733333333, 229.712430531555, -0.00134847993993458, 0.57,402.063293457031
0.02933161, 229.723560394997, -0.00133809596148423, 0.58375,402.063293457031
0.0299983866666667, 229.734614676092, -0.00110006241767381, 0.59625,404.540283203125
0.0306649066666667, 229.745412760418, -0.00107672209001769, 0.61,407.976043701172
0.0313315133333333, 229.757414699575, -0.00128417666974788, 0.62375,408.857391357422
0.031998305, 229.768602187974, -0.000771775407112556, 0.63625,491.477508544922
0.0326650333333333, 229.780497702324, -0.00113972192557915, 0.65,491.477508544922
0.0333316233333333, 229.791912565408, -0.0013507373264803, 0.6625,406.797576904297
0.03399846, 229.803645954325, -0.00120909194118646, 0.67625,405.808654785156
0.03466495, 229.81417818622, -0.000868051071362663, 0.69,404.868835449219
0.03533157, 229.825729268793, -0.00150126076591107, 0.70375,407.892517089844
0.0359982383333333, 229.836099279049, -0.00106070139474597, 0.71625,407.892517089844
0.0366655033333333, 229.847275290212, -0.00092035194434909, 0.73,409.003204345703
0.03733167, 229.858192480619, -0.00103068940221769, 0.74375,403.270416259766
0.0379984066666667, 229.869153394848, -0.00107294227988386, 0.75625,406.306274414063
0.0386650083333333, 229.879925157247, -0.000837440608891215, 0.77,408.871002197266
0.0393315116666667, 229.891061961523, -0.00106720656796686, 0.78375,408.871002197266
0.0399987066666667, 229.901719782306, -0.00138104930397424, 0.79625,392.397918701172
0.0406650483333333, 229.912571952453, -0.00131627655747057, 0.81,401.657440185547
0.041331545, 229.923115029811, -0.00117574411627524, 0.8225,398.006317138672
0.04199815, 229.93354338609, -0.000914455740542195, 0.83625,400.917907714844
0.0426648233333333, 229.944142350514, -0.000588865594610607, 0.84875,400.917907714844
0.0433317383333333, 229.955148479735, -0.000398736644595516, 0.86125,395.050842285156
0.0439986383333333, 229.966068784932, -0.000261900017746183, 0.875,397.286468505859
0.04466504, 229.977382147341, -0.000370883043623592, 0.88875,392.102813720703
0.0453315766666667, 229.988951515929, -0.000485067808245425, 0.90125,392.197204589844
0.04599827, 230.000455601057, -0.000824814243096673, 0.91625,392.197204589844
0.046665175, 230.010989090588, -0.000577526164145347, 0.92875,390.425872802734
0.047331565, 230.021714557883, -0.00102106438566416, 0.94125,399.199737548828
0.047998265, 230.032044630165, -0.00101773455289382, 0.955,397.159851074219
0.0486649166666667, 230.04236153934, -0.00121696804560949, 0.96875,475.712677001953
0.04933179, 230.051988441286, -0.00108217581610437, 0.98125,475.712677001953
0.0499986966666667, 230.06218043942, -0.00133279372776228, 0.99375,394.590240478516
0.0506648866666667, 230.071540227733, -0.000998902998759038, 1.0075,399.528472900391
0.05133158, 230.081431757036, -0.00118773751382283, 1.02125,396.294067382813
0.0519983116666667, 230.090412384995, -0.000936141651241456, 1.03375,403.779357910156
0.0526649983333333, 230.100355858454, -0.00111667408326668, 1.0475,403.779357910156
0.0533317, 230.109667105777, -0.00115483516648063, 1.06,404.8271484375
0.0539983183333333, 230.119915026904, -0.00156841239290088, 1.07375,407.372161865234
0.0546649316666667, 230.129911263484, -0.00164314463920628, 1.08625,403.231597900391
0.0553316233333333, 230.140240841774, -0.00190239011756202, 1.1,404.084411621094
0.0559983616666667, 230.1498351808, -0.00183773436511929, 1.11375,404.084411621094
0.056664895, 230.160155856759, -0.00182138668628516, 1.12625,411.498657226563
0.0573317533333333, 230.169862555167, -0.00172656594902502, 1.13875,401.797943115234
0.0579982583333333, 230.179894435119, -0.00168639046695492, 1.1525,394.488403320313
0.05866496, 230.189261515544, -0.00170886983783354, 1.16625,403.350158691406
0.05933158, 230.199071838597, -0.00170305462994442, 1.18,403.350158691406
0.059998375, 230.208048866103, -0.00164472855960991, 1.1925,403.261993408203
0.0606649283333333, 230.217058292787, -0.00123547711587004, 1.21,402.585998535156
0.0613316133333333, 230.226874291269, -0.00116399820616917, 1.22,400.728942871094
0.0619984, 230.236588427539, -0.000975010698816249, 1.23375,404.340728759766
0.0626648716666667, 230.245836153215, -0.000555613764691162, 1.2475,404.340728759766
0.0633315566666667, 230.25528273278, -0.000541391479033995, 1.26,400.27490234375
0.0639986416666667, 230.264777701568, -0.000786803152259288, 1.27375,402.841094970703
0.06466496, 230.272173014276, -0.000849711492453407, 1.2875,476.001831054688
0.06533161, 230.2804395433, -0.000823038332220642, 1.30125,393.15087890625
0.0659983633333333, 230.287730182222, -0.00102446321485079, 1.31375,393.15087890625
0.0666649633333333, 230.295840872561, -0.000954278740122477, 1.3275,397.345184326172
0.0673317866666667, 230.303057389452, -0.000872460849745864, 1.34,399.861480712891
0.0679983366666667, 230.310882369204, -0.00057272490515283, 1.35375,398.054168701172
0.0686649033333333, 230.318688382668, -0.000630188518785434, 1.3675,391.871368408203
0.06933153, 230.327152897082, -0.000717703123023309, 1.38125,391.871368408203
0.0699983616666667, 230.334940925258, -0.00063248490345065, 1.39375,399.62939453125
0.07066522, 230.343525779321, -0.000758139591982081, 1.4075,404.605712890625
0.0713315316666667, 230.351890993569, -0.000988082542201067, 1.42125,396.040191650391
0.0719982583333333, 230.359952248212, -0.000889606488553824, 1.435,398.935333251953
0.072664995, 230.368744768569, -0.00103292728970365, 1.4475,398.935333251953
0.073331595, 230.376921709778, -0.00114642658874567, 1.46125,401.996459960938
0.0739983866666667, 230.385599456388, -0.00117596160524995, 1.475,398.381225585938
0.0746650033333333, 230.394482784479, -0.00139145728113003, 1.4875,399.128967285156
0.0753315083333333, 230.403742093078, -0.0017447675347404, 1.50125,397.907684326172
0.0759983, 230.411616284642, -0.00187397704466016, 1.515,397.907684326172
0.0766648516666667, 230.420214480012, -0.00219308301629125, 1.5275,406.230499267578
0.0773315383333333, 230.427476536696, -0.00186196264812841, 1.54125,400.352478027344
0.077998375, 230.434759712643, -0.00155275167946469, 1.555,400.8720703125
0.07866489, 230.441041029115, -0.00135224475071811, 1.5675,403.093719482422
0.0793316116666667, 230.448979853082, -0.00122913693431226, 1.58125,403.093719482422
0.0799981916666667, 230.456062768349, -0.000980234936405468, 1.595,396.332977294922
0.0806650416666667, 230.463636629261, -0.00114512765399991, 1.6075,401.512817382813
0.0813317, 230.470688121295, -0.00113930044667306, 1.62125,485.291107177734
0.0819982583333333, 230.478047017258, -0.000872183363688753, 1.635,411.782775878906
0.0826649866666667, 230.484138708314, -0.000697173654272755, 1.6475,411.782775878906
0.0833321933333333, 230.491312461687, -0.000617523155041423, 1.66125,407.303649902344
0.0839981533333333, 230.498068956505, -0.000670633987333134, 1.675,401.113067626953
0.0846652316666667, 230.505095122079, -0.000537959651425481, 1.6875,402.519805908203
0.0853315816666667, 230.512034025967, -0.000602352917033874, 1.70125,407.077423095703
0.0859983183333333, 230.519366875498, -0.000580040037764019, 1.71375,407.077423095703
0.08666509, 230.525908176019, -0.00044306241802078, 1.72625,402.357727050781
0.0873315616666667, 230.532351695193, -0.000305067849319591, 1.74125,401.588073730469
0.087998475, 230.538885109346, -0.000345195333766275, 1.75375,398.396087646484
0.08866501, 230.545427190073, -0.000374482862680255, 1.76625,400.722869873047
0.0893315216666667, 230.551893545677, -0.000193963929974656, 1.78,400.722869873047
0.0899987916666667, 230.558517896146, -0.000481664479073048, 1.7925,404.549591064453
0.09066505, 230.565984671584, -0.00052962607003821, 1.80625,397.235870361328
0.0913318233333333, 230.572958772701, -0.000733623323466282, 1.82,404.535278320313
0.0919986683333333, 230.579960449769, -0.00112437919624397, 1.8325,398.903472900391
0.0926648683333333, 230.586786530098, -0.00167142121890243, 1.84625,398.903472900391
0.0933315483333333, 230.593585972744, -0.00152328265974042, 1.85875,401.160369873047
0.093998375, 230.60003407958, -0.00131737000248807, 1.8725,407.567413330078
0.0946651533333333, 230.606602133373, -0.00118621059048276, 1.88625,402.730621337891
0.0953316416666667, 230.613728666213, -0.000560847001805546, 1.89875,398.085021972656
0.0959994416666667, 230.620977562233, -0.000148894193769073, 1.9125,398.085021972656
0.0966649916666667, 230.628558999717, -0.000469840573004281, 1.925,402.380615234375
0.09733148, 230.635860233889, -0.000709927513726591, 1.93875,405.558349609375
0.0979988516666667, 230.643020349025, -0.000448660136913935, 1.95125,473.570983886719
0.0986649466666667, 230.649685731595, -0.000739966504894127, 1.965,386.249877929688
0.0993315866666667, 230.656338320282, -0.000609693548359918, 1.97875,386.249877929688
0.0999981933333333, 230.662438732533, -4.92631982250507E-05, 1.99125,386.381927490234
0.100664978333333, 230.669130590073, -0.000160563607730575, 2.005,392.452087402344
0.101331613333333, 230.676189681671, -0.00030457737406098, 2.01875,387.256805419922
0.101998316666667, 230.683271569206, -0.00053863761744704, 2.03125,385.724365234375
0.102664993333333, 230.690532960073, -0.000904467742176811, 2.04625,385.724365234375
0.10333167, 230.697650982365, -0.00125183379429311, 2.0575,387.380065917969
0.103998456666667, 230.70458332409, -0.000894073264213128, 2.07125,384.582672119141
0.104665173333333, 230.71147264214, -0.00103967095101093, 2.085,390.681793212891
0.105332011666667, 230.717785877521, -0.000366248276346107, 2.09875,386.640380859375
0.105998371666667, 230.72422502618, -8.06296226595029E-05, 2.11125,386.640380859375
0.106664931666667, 230.731135643237, 0.000118854357452765, 2.125,393.134307861328
0.107331603333333, 230.737234417619, 5.57840253805865E-05, 2.13875,388.119873046875
0.10799821, 230.744249028929, -0.000214389904090164, 2.15125,383.804077148438
0.108664941666667, 230.750734868784, -0.000477649180850412, 2.165,390.079895019531
0.10933165, 230.757334962196, -0.000658096117205908, 2.18,390.079895019531
0.10999835, 230.763395124917, -0.000706449188440321, 2.1925,393.574737548828
0.110664961666667, 230.771088474399, -0.00111260628758366, 2.205,386.663452148438
0.111331585, 230.777331276121, -0.000859216515075925, 2.22,389.653137207031
0.111998683333333, 230.78470814724, -0.00123800898873033, 2.2325,393.753082275391
0.112664955, 230.791444123775, -0.00111612361086191, 2.24625,393.753082275391
0.113331561666667, 230.799120616923, -0.00120622258531419, 2.26,391.951538085938
0.11399834, 230.805861245975, -0.000716233197001846, 2.2725,387.675323486328
0.114664901666667, 230.813661329142, -0.000702079907909738, 2.28625,466.414428710938
0.115331738333333, 230.822099829207, -0.000852519351467658, 2.3,390.706146240234
0.115998818333333, 230.831001924659, -0.00115985091455654, 2.31375,390.706146240234
0.116665236666667, 230.840145387173, -0.00111478267829662, 2.325,388.408874511719
0.117331555, 230.849822998079, -0.00122463116070349, 2.33875,390.273712158203
0.117998223333333, 230.859583471976, -0.00144586254847931, 2.3525,378.244598388672
0.118665078333333, 230.868175404634, -0.000927481086249258, 2.36625,377.546630859375
0.11933157, 230.876852815422, -0.000650632492057543, 2.38,377.546630859375
0.1199982, 230.885802947685, -0.000455658785369765, 2.39125,380.174499511719
0.12066509, 230.894495906205, -0.000398367663043536, 2.405,386.011199951172
0.121331568333333, 230.903159194731, -0.000314850358041729, 2.41875,377.557647705078
0.121998331666667, 230.912851912035, -0.000187184270587972, 2.4325,378.044860839844
0.122664901666667, 230.923007486628, -0.000144724403290393, 2.44625,378.044860839844
0.123331608333333, 230.932406101304, -0.000146720803011195, 2.45875,384.884307861328
0.123998255, 230.942457072031, -0.000181211570572748, 2.47125,379.891387939453
0.124665, 230.95179549431, -1.61673605710684E-05, 2.485,378.196838378906
0.125331541666667, 230.960853430147, 5.67049791342196E-05, 2.49875,374.212188720703
0.125998423333333, 230.969097644872, 0.000205599500301735, 2.51125,374.212188720703
0.126664843333333, 230.977974400025, 0.000191641201403305, 2.525,380.373596191406
0.127331668333333, 230.986158290254, -0.000107940250912431, 2.5375,367.682586669922
0.127998368333333, 230.995098666902, 0.00019444156079554, 2.55125,373.425262451172
0.128664918333333, 231.003567045855, 6.10712598585048E-05, 2.565,370.702697753906
0.129331668333333, 231.012802206286, 7.79889100934072E-05, 2.5775,370.702697753906
0.129998368333333, 231.021172785751, 0.000306469433764168, 2.59,371.421691894531
0.130664905, 231.029870809553, 0.000715432891933596, 2.605,370.894927978516
0.131331635, 231.038417796796, 0.000369058289954122, 2.61625,447.639038085938
0.131998401666667, 231.047305033218, 0.00026073373097476, 2.63,447.639038085938
0.13266511, 231.055460881451, 0.000237310907455207, 2.645,374.053680419922
0.133331565, 231.063756098905, -4.03536457394041E-05, 2.65625,375.027801513672
0.133998243333333, 231.071827959746, 4.9394346317495E-05, 2.67,371.557434082031
0.134664981666667, 231.079632487725, 0.000235256010682679, 2.6825,369.135284423828
0.135331548333333, 231.087318864411, 0.000212037176924477, 2.69625,372.792083740234
0.135999046666667, 231.095061270891, -7.05036313340356E-05, 2.71,372.792083740234
0.136664945, 231.102964676425, -0.000285130850835849, 2.7225,379.847869873047
0.137331743333333, 231.111127472622, -0.000728097601093262, 2.735,379.905334472656
0.13799849, 231.118867068225, -0.00085544720443417, 2.74875,380.549285888672
0.138664848333333, 231.126259767496, -0.000851829386157143, 2.7625,380.549285888672
0.139331665, 231.133709036972, -0.000988132039812645, 2.775,361.610717773438
0.139998398333333, 231.141218381091, -0.000904655232769726, 2.78875,373.797546386719
0.140664973333333, 231.148217246772, -0.000632829886233432, 2.8025,364.904571533203
0.14133167, 231.155776764442, -0.000867299609066598, 2.81625,368.764587402344
0.141998506666667, 231.16405874129, -0.000897974568287386, 2.82875,366.837677001953
0.142665466666667, 231.172870926295, -0.000720353490017726, 2.8425,366.837677001953
0.143331586666667, 231.181547622549, -0.000520794513664041, 2.855,368.445587158203
0.143998256666667, 231.190887327498, -0.000810594957309567, 2.87,365.688323974609
0.144664831666667, 231.200138373358, -0.00069671767723291, 2.88125,364.086975097656
0.145331596666667, 231.209896907893, -0.000892246356013656, 2.895,367.282073974609
0.145998685, 231.219587301417, -0.00105102538072022, 2.91,367.282073974609
0.146665013333333, 231.229840588962, -0.00120609059194545, 2.9225,364.289031982422
0.147331553333333, 231.240135521655, -0.00129620456559925, 2.935,443.049255371094
0.147998245, 231.250603966668, -0.00147091279016768, 2.94875,360.955413818359
0.148664821666667, 231.260566766983, -0.0011596319254874, 2.9625,354.162384033203
0.149332181666667, 231.270196431163, -0.000775609214546161, 2.97625,354.162384033203
0.149998403333333, 231.280040573553, -0.000922081357398587, 2.98875,363.287475585938
0.150664905, 231.289779777873, -0.000690876970586428, 3.0025,364.000732421875
0.151331553333333, 231.299964998985, -0.00078048096987936, 3.01625,368.636413574219
0.151998285, 231.309878444229, -0.00107498067748795, 3.03,362.058135986328
0.152664898333333, 231.320346923397, -0.00137336818976615, 3.04375,362.058135986328
0.153331673333333, 231.330329454643, -0.00135655853413079, 3.05625,352.285919189453
0.153998311666667, 231.3400723969, -0.00136597806097731, 3.07,356.250946044922
0.154664891666667, 231.349649054621, -0.00120601409580088, 3.08375,360.641540527344
0.155331573333333, 231.359534199872, -0.00114573962332647, 3.09625,360.776672363281
0.155998255, 231.369863548634, -0.00117057087609448, 3.11,360.776672363281
0.156664928333333, 231.380084551514, -0.00118687655708784, 3.1225,361.966094970703
0.157331595, 231.390337256454, -0.00124705503433667, 3.13625,357.026611328125
0.157998276666667, 231.400689108432, -0.0012891324208264, 3.15,368.254577636719
0.158665006666667, 231.410761114082, -0.00107717656713313, 3.16375,367.090606689453
0.159331575, 231.420870939424, -0.00141338617968889, 3.1775,367.090606689453
0.159998373333333, 231.431230050826, -0.00150364264620351, 3.19,369.774078369141
