Time (min), Depth (µm), Load (N), Position (µm), Acoustic (aJ)
7.515E-06, 229.365923877573, 0.000249873073292922, 0,578.230529785156
0.000666905, 229.366494939453, 0.000371051986639884, 0.005,580.455505371094
0.00133328166666667, 229.368058630443, 0.000364806300340759, 0.01875,584.826110839844
0.00199967666666667, 229.37097574344, 0.000542299885014889, 0.035,590.230712890625
0.00266642666666667, 229.375776019417, 0.00049253388469505, 0.05,590.230712890625
0.00333330333333333, 229.382101110719, 0.000540259987443884, 0.0625,600.173522949219
0.00399990833333333, 229.390566589286, 0.000154266375496701, 0.07625,594.9638671875
0.00466713833333333, 229.400226679374, 8.64682809403061E-05, 0.09,593.81201171875
0.00533316, 229.410003865683, 2.98941226063587E-05, 0.10375,599.792846679688
0.00599967333333333, 229.420037867007, 8.01235996093124E-05, 0.11625,599.792846679688
0.00666649833333333, 229.430456575351, -0.000279132355292004, 0.13,599.119934082031
0.00733314833333333, 229.440693991055, -0.000138317928266354, 0.14375,602.671875
0.00799980166666667, 229.450150742861, 0.000131695509229485, 0.15625,597.635192871094
0.008666475, 229.460345828343, -7.15142837593521E-05, 0.17,721.405334472656
0.00933315333333333, 229.469764719644, -8.66144078940833E-06, 0.1825,721.405334472656
0.00999971833333333, 229.479040787745, 0.000391612953845414, 0.19625,612.223205566406
0.0106666116666667, 229.488508675921, 0.000599168028553129, 0.20875,611.924987792969
0.0113331983333333, 229.498717100448, 0.000768241036203344, 0.2225,613.233703613281
0.0119997083333333, 229.508205828801, 0.00112130680205096, 0.23625,614.346130371094
0.0126666666666667, 229.5189903874, 0.00109516611506637, 0.25,614.346130371094
0.0133331866666667, 229.529558683776, 0.00139180171538652, 0.2625,623.567626953125
0.0139997283333333, 229.540142654252, 0.00134965533235298, 0.2775,626.989562988281
0.0148332716666667, 229.549714017647, 0.00105483014110638, 0.2925,630.032043457031
0.01549977, 229.559213277572, 0.000692550338076745, 0.305,626.5224609375
0.0161663433333333, 229.567458192548, 0.000403703846542977, 0.31875,632.54443359375
0.0168333866666667, 229.575449997203, -6.59465634180246E-05, 0.3325,632.54443359375
0.0174996916666667, 229.582807481319, -0.000301214246139995, 0.345,632.43408203125
0.0181666216666667, 229.590840199895, -0.000580914197089893, 0.36,636.799682617188
0.01883346, 229.599805680529, -0.000662987074678822, 0.3725,638.910278320313
0.01949971, 229.608796006368, -0.000495595482624724, 0.38625,646.006713867188
0.0201665583333333, 229.619066973961, -0.000433602096465371, 0.39875,646.006713867188
0.0208332283333333, 229.629554453296, -0.000177452462609303, 0.41125,648.577819824219
0.0215013316666667, 229.640544158299, 4.82966982130272E-05, 0.42625,644.602233886719
0.022166695, 229.651669167938, 8.76652208053928E-05, 0.44,643.064392089844
0.0228330583333333, 229.663003933628, 0.000131266530786391, 0.4525,650.322326660156
0.0235006666666667, 229.673641454882, 0.000263570385281423, 0.46625,650.322326660156
0.0241664116666667, 229.68475566494, 0.000258263651850025, 0.47875,646.837951660156
0.02483327, 229.696188460485, 0.000456912173942153, 0.4925,640.822448730469
0.0254997383333333, 229.706823143973, 0.000279448587713581, 0.50625,777.897583007813
0.0261666833333333, 229.718124755559, 0.000244240856138492, 0.52,641.60107421875
0.026833155, 229.729548688119, 0.000351774954787304, 0.5325,641.60107421875
0.0274996983333333, 229.740801880942, 0.000309988553653059, 0.545,644.567749023438
0.02816651, 229.751660977096, 3.91711565282951E-05, 0.56,637.911254882813
0.028833275, 229.763301182348, 8.23434880449454E-05, 0.5725,646.489135742188
0.0294998233333333, 229.774610114228, 2.18680256792473E-05, 0.58625,517.296081542969
0.0301665433333333, 229.786076834395, -0.000633369562374871, 0.6,517.296081542969
0.03083318, 229.797199715071, -0.000784855953336299, 0.6125,648.524047851563
0.031499725, 229.808782849503, -0.000994020447205012, 0.62625,639.296264648438
0.0321669366666667, 229.819743161999, -0.00085699332997772, 0.64,640.962890625
0.03283329, 229.830623678531, -0.000832732048589221, 0.65375,646.220581054688
0.0334996916666667, 229.841035773514, -0.000642475604999853, 0.66625,646.220581054688
0.034166695, 229.85198518324, -0.000571469171592283, 0.68,636.411804199219
0.0348331883333333, 229.863115716333, -0.000467849876316105, 0.6925,651.227294921875
0.0355003633333333, 229.874208235935, -0.000423174620271087, 0.70625,641.702575683594
0.036166575, 229.885833331016, -0.000519990257306366, 0.72,638.370422363281
0.0368330883333333, 229.897863504687, -0.000461922173990471, 0.7325,638.370422363281
0.03749997, 229.909991925474, -0.000762883556990999, 0.74625,641.421447753906
0.0381665383333333, 229.921343502744, -0.000711619131937257, 0.76,638.168334960938
0.03883331, 229.932895752542, -0.000741448133667083, 0.775,644.346313476563
0.039499795, 229.94406934544, -0.000667396853210801, 0.78625,636.535705566406
0.04016736, 229.955277899663, -0.000727744822002223, 0.8,636.535705566406
0.0408331133333333, 229.966488639034, -0.000581506667420467, 0.8125,641.2998046875
0.0414997816666667, 229.977829424905, -0.000695034465047402, 0.82625,632.38623046875
0.04216641, 229.995000477163, -0.0010996976392513, 0.8425,758.267395019531
0.0429997116666667, 230.006214313955, -0.000786391876307809, 0.855,631.224060058594
0.04366667, 230.016873095408, -0.000823651504785366, 0.86875,628.131286621094
0.0443330633333333, 230.027334822749, -0.000784200486350821, 0.8825,628.131286621094
0.0449997033333333, 230.038379386797, -0.000563317081079061, 0.895,626.603881835938
0.0456663966666667, 230.048682924365, -0.000471578688998973, 0.91125,628.724548339844
0.0464997266666667, 230.059288436256, -0.000696462393313099, 0.925,629.256408691406
0.0471664666666667, 230.070224257046, -0.000565371977851589, 0.93875,628.604858398438
0.047833075, 230.081423116395, -0.000456730934780632, 0.95125,630.65283203125
0.048499785, 230.09185237225, -0.000255286553111986, 0.965,630.65283203125
0.049167985, 230.10252801055, -0.000241682236436487, 0.9775,635.66650390625
0.0498351033333333, 230.113020447912, -0.000202162221500646, 0.99125,635.817626953125
0.050499825, 230.123444649796, -0.000192369213371448, 1.00375,641.049011230469
0.05116671, 230.133590127022, -0.00034047477419658, 1.0175,637.60693359375
0.051833135, 230.143682829795, -0.000545461977922089, 1.03125,637.60693359375
0.0524997416666667, 230.153691673406, -0.000656156417862427, 1.04375,639.248352050781
0.0531664433333333, 230.163619472998, -0.000829516210158538, 1.05625,636.963684082031
0.05383331, 230.173440774685, -0.000492250650674106, 1.07,636.241821289063
0.0544997233333333, 230.183317415123, -0.000919909169793855, 1.08375,641.46337890625
0.05516642, 230.193847461927, -0.00118259247547698, 1.09625,641.46337890625
0.055833205, 230.204020575693, -0.0013448183270361, 1.11,647.980590820313
0.0564997616666667, 230.21405148597, -0.00132460534233463, 1.1225,639.387451171875
0.0571665616666667, 230.224376778155, -0.00157771912866715, 1.13625,642.552612304688
0.0578331016666667, 230.234852156864, -0.00124574230354253, 1.15,642.47607421875
0.05849971, 230.244580739812, -0.000777782308681559, 1.1625,642.47607421875
0.0591665233333333, 230.255202960414, -0.000744380486428058, 1.17625,774.121765136719
0.059833205, 230.265180612249, -0.000490147756299419, 1.18875,639.677551269531
0.0604998416666667, 230.27547650788, -0.00033430858395459, 1.205,637.472595214844
0.0611664266666667, 230.286511774525, -0.000454136065159168, 1.2175,639.125610351563
0.0618331683333333, 230.297712100127, -0.000845509906876017, 1.23,639.125610351563
0.0624997566666667, 230.307637773045, -0.000834087980547324, 1.2425,640.682006835938
0.0631664983333333, 230.317396834549, -0.000814827447969451, 1.25625,647.866577148438
0.0638331916666667, 230.326960040269, -0.000784714960527409, 1.27,634.378662109375
0.064499705, 230.33519486769, -0.000374238078337536, 1.28375,640.670349121094
0.0651664583333333, 230.343500754233, -1.82729581083206E-05, 1.29625,640.670349121094
0.0658339133333333, 230.352173495534, 0.00039640821284276, 1.31,639.097595214844
0.0664998883333333, 230.361405838888, 0.000196390259536662, 1.32375,636.435913085938
0.0671665333333333, 230.369592276792, 0.00036580674996024, 1.3375,638.272338867188
0.0678330566666667, 230.378058811765, 0.000249825075584493, 1.35125,636.964721679688
0.0684999516666667, 230.386177270052, 0.000541701414922939, 1.365,636.964721679688
0.0691667433333333, 230.393754421251, 0.000205751289352706, 1.37625,634.110717773438
0.0698332233333333, 230.400933127402, 0.00041267639574729, 1.39,639.159118652344
0.0704998466666667, 230.408423412993, 0.000175043331795046, 1.40375,637.920959472656
0.0711665533333333, 230.41585270075, 5.77222247146485E-05, 1.4175,637.009399414063
0.0718330983333333, 230.422783412486, -0.000186599003256935, 1.43125,637.009399414063
0.0724997683333333, 230.429789073333, 1.64562974546045E-05, 1.44375,639.213806152344
0.0731666066666667, 230.436912021808, -9.74524810345209E-05, 1.4575,633.594299316406
0.0738332016666667, 230.44387377681, -7.49521111930044E-05, 1.47125,636.925659179688
0.074499725, 230.450601604137, -7.31282027785773E-05, 1.485,638.95263671875
0.0751664033333333, 230.457102254878, 7.57618186157287E-05, 1.4975,638.95263671875
0.0758335283333333, 230.463991774571, -0.000239366352817791, 1.51125,766.347045898438
0.0764997, 230.470829250787, -0.000165430566519307, 1.525,641.588623046875
0.077166415, 230.478353508585, 1.44505149756249E-06, 1.5375,637.314758300781
0.077833105, 230.485384825833, -4.15566720189077E-06, 1.55125,637.884399414063
0.0784997683333333, 230.493792603533, -0.000189168374184798, 1.56375,637.884399414063
0.0791665716666667, 230.501930427745, -1.61925625571741E-05, 1.5775,640.907287597656
0.0798330583333333, 230.509779430141, 0.000240540542019286, 1.59125,640.462097167969
0.080499725, 230.517026235893, 0.000138700157361675, 1.605,642.741638183594
0.0811665333333333, 230.524885611921, 0.000181221521559787, 1.6175,643.218994140625
0.0818330716666667, 230.532025136788, 0.000115509822145881, 1.63125,643.218994140625
0.082499715, 230.539565495833, -7.65525307438214E-05, 1.645,645.700134277344
0.0831664283333333, 230.547691922727, -0.000678686786192008, 1.6575,652.015258789063
0.083833115, 230.555119455502, -0.000858356761557839, 1.67,647.869079589844
0.0844997866666667, 230.56336522833, -0.000771533622597391, 1.68375,642.166748046875
0.08516638, 230.570914179003, -0.000795505418512298, 1.6975,642.166748046875
0.08583332, 230.578228017857, -0.000449321306974546, 1.71,648.062133789063
0.0864997516666667, 230.584941381643, 7.90511534271879E-05, 1.72375,643.5380859375
0.087166435, 230.592954099515, 0.000103375431640623, 1.73625,641.847045898438
0.0878331066666667, 230.599778428663, 0.000146751752854863, 1.75,640.961669921875
0.0884997266666667, 230.607316088164, 0.000460831476960473, 1.76375,640.961669921875
0.089166525, 230.614464112051, 0.00058260586035929, 1.77625,642.688537597656
0.0898330383333333, 230.622254699144, 0.000341984946506913, 1.79,639.297180175781
0.09050004, 230.629149620472, 0.000429889531174651, 1.80375,637.139343261719
0.091166605, 230.636057907549, 0.000397825641701397, 1.81625,767.142395019531
0.09183307, 230.642930903758, 3.50718624540603E-05, 1.83,767.142395019531
0.0924997266666667, 230.650163318682, -0.00033658846945137, 1.8425,636.643127441406
0.09316638, 230.65746852818, -0.000218698890894613, 1.855,639.471496582031
0.0938332, 230.664269806429, -0.000372075186965465, 1.86875,639.924438476563
0.09449973, 230.670957785703, -0.000150906796014577, 1.8825,641.99609375
0.095166325, 230.677602123571, -0.000147914446298726, 1.895,641.99609375
0.0958330666666667, 230.684020769211, 4.69902638452487E-05, 1.90875,637.91162109375
0.096499715, 230.690505988231, -0.000604004037413177, 1.92125,641.305969238281
0.0971664416666667, 230.697042193502, -0.000401445211721624, 1.935,646.299987792969
0.097833225, 230.70391739291, -0.000734080503829305, 1.9475,648.084899902344
0.0984998566666667, 230.710873778615, -0.000680996670198107, 1.9625,648.084899902344
0.0991665383333333, 230.717940464204, -0.000704600984570454, 1.975,626.17236328125
0.0998331016666667, 230.724090149255, 0.000112223487183228, 1.98875,631.805541992188
0.1004998, 230.731322784771, -4.28147254239908E-05, 2.0025,622.77490234375
0.101166356666667, 230.737853049847, 0.000102440978546107, 2.015,627.239929199219
0.101833138333333, 230.744137305796, 9.10475508235833E-05, 2.03,627.239929199219
0.102499755, 230.750049624214, 0.000111302533429595, 2.04125,623.358703613281
0.103166415, 230.756792877363, -0.000319595822975051, 2.055,625.028747558594
0.10383327, 230.76321836091, -2.49221240931757E-05, 2.06875,626.293395996094
0.104499783333333, 230.769873299331, -0.000105849059225475, 2.08125,624.359741210938
0.105166408333333, 230.776171674458, -3.51936081495213E-05, 2.095,624.359741210938
0.10583308, 230.78244155905, 7.62252953838601E-05, 2.10875,627.477905273438
0.106499743333333, 230.788223329897, 0.000260975515574943, 2.12125,630.097412109375
0.107166553333333, 230.794030516427, -1.52611093327182E-05, 2.135,632.046691894531
0.107833115, 230.799130083895, 3.73693641082245E-06, 2.14875,755.235290527344
0.108499751666667, 230.804997105167, -5.50586103894319E-05, 2.1625,755.235290527344
0.109166575, 230.810993211953, -4.78589720210566E-05, 2.175,633.315185546875
0.109833171666667, 230.81674481986, 6.0185101031134E-05, 2.18875,626.322631835938
0.110499698333333, 230.822718371477, 4.9780123639136E-05, 2.2025,623.282348632813
0.111166746666667, 230.829110170154, 0.000401714946337921, 2.21625,629.697143554688
0.111833065, 230.835158317995, 0.000797008091200615, 2.22875,629.697143554688
0.112499715, 230.840984475372, 0.000594744750659012, 2.24125,634.681274414063
0.113166473333333, 230.847140511757, 0.000416858185727466, 2.25625,633.566284179688
0.11383305, 230.853031928577, 0.000562832353635503, 2.26875,631.958679199219
0.114499841666667, 230.859203100351, 0.000418029626920206, 2.2825,624.585815429688
0.11516644, 230.865370125985, 4.72947485416182E-05, 2.29625,624.585815429688
0.115833208333333, 230.87204238783, 0.00012731272931551, 2.30875,634.427001953125
0.116499738333333, 230.878670125329, 0.000251085012380787, 2.3225,632.002136230469
0.117166541666667, 230.885168106827, 0.000549967499839589, 2.33625,627.324279785156
0.117833171666667, 230.892261037228, 0.00033556226921322, 2.35,627.390319824219
0.118499751666667, 230.899210027905, 0.00024439084864258, 2.3625,627.390319824219
0.119166543333333, 230.906425861156, 0.00015397988989317, 2.375,629.506591796875
0.119833153333333, 230.913685512976, 0.000114507872538234, 2.38875,614.526977539063
0.120499878333333, 230.921029132905, -0.000209393358238982, 2.40125,619.394104003906
0.12116661, 230.928220495439, 4.94201418461166E-05, 2.415,617.136779785156
0.121833011666667, 230.935296454106, 0.000515421235096369, 2.43,617.136779785156
0.122499748333333, 230.941786094201, 0.00112031385196848, 2.44125,618.139709472656
0.123166515, 230.94899156683, 0.00126138026633639, 2.455,615.77978515625
0.123833191666667, 230.955976321991, 0.00110111181644234, 2.46875,612.136840820313
0.124499768333333, 230.962468747781, 0.00119352067483695, 2.4825,736.674194335938
0.12516679, 230.969725519821, 0.0008712588617088, 2.49625,736.674194335938
0.125833216666667, 230.976922353263, 0.000533000352099379, 2.50875,612.330505371094
0.126499705, 230.983624165743, 0.000621741894669151, 2.52125,611.709533691406
0.127166405, 230.99044004943, 0.000799695956198843, 2.535,604.023986816406
0.12783318, 230.997739778125, 0.000694294750412783, 2.5475,609.399963378906
0.1284998, 231.004502296388, 0.000758814009692303, 2.56125,609.399963378906
0.129166358333333, 231.011384215879, 0.000647905080477284, 2.57375,610.469665527344
0.129833191666667, 231.018478766299, 0.000558325079996057, 2.5875,619.711486816406
0.130499983333333, 231.025568065688, 0.000601507910983531, 2.60125,610.779907226563
0.131166395, 231.032778734481, 0.000466967668799413, 2.61375,611.810363769531
0.131833091666667, 231.040102355012, 0.000178607152836064, 2.62625,611.810363769531
0.132499745, 231.047941333404, 0.000386552207994896, 2.64,606.409851074219
0.133166543333333, 231.055655673353, 0.000234842328233621, 2.65375,612.44580078125
0.133833246666667, 231.064373749462, 0.000266733726379246, 2.66625,610.945495605469
0.134499721666667, 231.07295656099, 0.0001951258231797, 2.68,611.599304199219
0.135166715, 231.082512402693, -2.48745876628825E-08, 2.6925,611.599304199219
0.135833056666667, 231.09141132303, 0.000153277925208683, 2.705,617.020141601563
0.136499738333333, 231.100731370275, 0.000510655974480817, 2.71875,614.652526855469
0.13716639, 231.109736767251, 0.000458397099356428, 2.7325,614.689208984375
0.137833213333333, 231.118960815121, 0.000854293213914247, 2.745,616.31005859375
0.138499731666667, 231.126923942434, 0.00153911231617165, 2.75875,616.31005859375
0.139166393333333, 231.136453232442, 0.00121888590079879, 2.77125,604.43603515625
0.139833113333333, 231.145697811014, 0.000985947601036398, 2.785,602.533813476563
0.140499745, 231.155411698401, 0.000592044886371828, 2.79875,607.199584960938
0.141166508333333, 231.164944853939, 9.41958928048987E-05, 2.8125,723.126892089844
0.141833056666667, 231.175465739639, -0.000273704127983941, 2.82625,723.126892089844
0.14249972, 231.185372375645, -0.000360770254740225, 2.8375,606.210327148438
0.143166415, 231.196049858513, -0.000618184325102035, 2.85125,608.753601074219
0.14383305, 231.206268655956, -0.000208418407228086, 2.865,609.170227050781
0.144499758333333, 231.217159493011, 7.20990026491125E-05, 2.87875,612.605529785156
0.145166636666667, 231.228170681551, -0.000269333347507701, 2.8925,612.605529785156
0.1458332, 231.239062909879, -0.00042661694732917, 2.905,598.668518066406
0.146499808333333, 231.250024487733, -0.000356051491759921, 2.91875,600.699157714844
0.147166443333333, 231.2612190413, -0.000693633535357202, 2.9325,602.561645507813
0.147833201666667, 231.272116329294, -0.000728373290412204, 2.94625,603.471313476563
0.148499785, 231.282821404324, -0.000387359419206408, 2.95875,603.471313476563
0.149167193333333, 231.293822256357, -0.000438617844520029, 2.9725,600.596862792969
0.149833153333333, 231.30402789056, -8.36951719423647E-05, 2.98625,604.489440917969
0.150499713333333, 231.314700811635, 1.69017751724049E-05, 2.99875,603.504943847656
0.151166396666667, 231.325586974802, -0.000124073143806901, 3.0125,602.754699707031
0.151833166666667, 231.336873911711, -3.09398217979886E-05, 3.02625,602.754699707031
0.152499711666667, 231.347515644129, 0.000229801081442853, 3.03875,598.393920898438
0.153166401666667, 231.358649362145, -0.000239504345820383, 3.0525,605.361145019531
0.153833221666667, 231.36927100554, -0.000360626261997513, 3.06625,599.067504882813
0.154499708333333, 231.379834858549, -0.000273614132541, 3.08,605.930358886719
0.155166385, 231.390245874904, -0.000229709837830544, 3.09375,605.930358886719
0.155833191666667, 231.401098529984, -0.000775277434524291, 3.10625,594.528564453125
0.156499848333333, 231.411975658756, -0.000954140450454898, 3.12,611.52734375
0.157166618333333, 231.423170526599, -0.000862975029603125, 3.1325,601.679138183594
0.157833343333333, 231.434205077164, -0.000711868119515722, 3.14625,721.784790039063
0.158499778333333, 231.444559221097, -0.00102877070185836, 3.16,721.784790039063
0.159166401666667, 231.455163043269, -0.000442324158464373, 3.1725,601.943176269531
0.159833173333333, 231.46586691655, -0.000101682268531839, 3.18625,601.687316894531
0.160499805, 231.476691092851, -3.80119666345952E-05, 3.2,607.006530761719
0.161166383333333, 231.487189272342, -0.000398400364694166, 3.21375,599.399658203125
