Time (min), Depth (µm), Load (N), Position (µm), Acoustic (aJ)
7.89E-06, 229.360505703083, 6.21866635898832E-05, 0,624.214965820313
0.000665543333333333, 229.360912556892, -0.000280834106828791, 0.005,630.234252929688
0.00133235166666667, 229.361411748722, -0.000447171251899874, 0.01875,635.594848632813
0.001998815, 229.363490668646, -0.000430028612983229, 0.03375,638.307373046875
0.00266539, 229.366665801076, -8.01801854906955E-05, 0.04875,641.30712890625
0.00333207333333333, 229.372622427398, -0.00020089562209078, 0.0625,641.30712890625
0.00399883333333333, 229.380040211298, -0.000273332983676615, 0.075,647.621887207031
0.004665485, 229.388591472218, -0.000370792088408417, 0.08875,647.814331054688
0.00533208166666667, 229.39788613571, -0.000194117462564737, 0.10375,648.507507324219
0.00599869, 229.408256420876, -0.000642546938412742, 0.11625,781.562866210938
0.00666541166666667, 229.4179879884, -0.000572390962226836, 0.13,658.412414550781
0.00733207833333333, 229.428502881727, -0.000515071341336945, 0.1425,658.412414550781
0.007998985, 229.439506980077, -0.000402498995724917, 0.15625,656.4892578125
0.00866558166666667, 229.450095832472, -0.00030944216986057, 0.17,659.190612792969
0.00933198333333333, 229.460027264883, -0.00030901019156867, 0.1825,653.270751953125
0.009998785, 229.469778532241, -0.000401608040501857, 0.19625,653.270751953125
0.01066536, 229.479190333054, -0.000490630069062563, 0.21,674.468322753906
0.0113320116666667, 229.488565530283, -0.000412633986724329, 0.2225,663.866394042969
0.0119986466666667, 229.498161640048, -0.000596473752675109, 0.23625,668.654724121094
0.01266538, 229.508390977577, -0.000457805717789333, 0.25,665.624877929688
0.0133320416666667, 229.518489528834, -3.21585975919111E-05, 0.26125,665.624877929688
0.0139987366666667, 229.52887733481, -7.58274041072938E-05, 0.275,674.896545410156
0.0146653183333333, 229.539294986687, -0.000620141063787377, 0.28875,674.812622070313
0.0153320866666667, 229.549199292343, -0.000831924426110514, 0.30125,680.246337890625
0.0159988033333333, 229.558329080533, -0.000792243919263525, 0.31625,677.248901367188
0.0166663016666667, 229.567513866196, -0.00120726257331161, 0.32875,677.248901367188
0.0173320783333333, 229.5761341054, -0.00124349325349975, 0.34125,681.85546875
0.0179987333333333, 229.584292040816, -0.00115487770460111, 0.355,684.269897460938
0.0186671933333333, 229.592625331574, -0.00101767809600368, 0.36875,690.775939941406
0.0193320516666667, 229.601981932635, -0.0013207438733033, 0.3825,692.284545898438
0.0200000333333333, 229.612237278053, -0.00149307021751553, 0.395,692.284545898438
0.0206654533333333, 229.622372452847, -0.00124254980088007, 0.40875,691.846618652344
0.0213320883333333, 229.633121312273, -0.000982158380067697, 0.4225,691.073852539063
0.02199881, 229.644336815694, -0.000879824520153889, 0.435,695.036193847656
0.0226654033333333, 229.65561976634, -0.000757232677849026, 0.45,839.063537597656
0.0233320516666667, 229.666470308979, -0.000309110686588705, 0.4625,690.974060058594
0.0239988683333333, 229.677584795707, -0.000171755085810828, 0.475,690.974060058594
0.0246654033333333, 229.689182710512, -0.000260525127008025, 0.49,694.0087890625
0.0253321133333333, 229.700365313726, -0.000520453071116031, 0.5025,693.432556152344
0.0259986566666667, 229.711276906855, -0.000345860340726646, 0.51625,695.642822265625
0.0266653066666667, 229.721972029317, -0.000535695305516191, 0.53,695.642822265625
0.0273321366666667, 229.733082658329, -0.000626289255042798, 0.5425,690.414123535156
0.027999075, 229.743576398526, -0.000388791184308101, 0.55625,697.194396972656
0.0286654266666667, 229.75512844379, -5.55244239628861E-05, 0.57,693.912109375
0.02933201, 229.766228642176, -0.000194258455501151, 0.5825,691.172424316406
0.029998725, 229.778068053782, -0.000260558125323642, 0.59625,691.172424316406
0.0306653483333333, 229.7889409568, -0.000326146830893973, 0.60875,691.432006835938
0.0313321566666667, 229.800165735568, -0.000334202926245387, 0.62375,686.498718261719
0.0319989083333333, 229.810509016585, -0.000317388770773055, 0.63625,692.713989257813
0.0326655283333333, 229.821807902282, -2.65338801020057E-05, 0.65125,688.554565429688
0.033332245, 229.832445055313, 0.000126701423032432, 0.6625,688.554565429688
0.0339992283333333, 229.844132989308, 0.000311088661454164, 0.67625,687.937622070313
0.0346655316666667, 229.855354470249, 6.98587781877929E-05, 0.69,689.353271484375
0.0353321783333333, 229.866971511798, -0.000222556034117694, 0.7025,684.905456542969
0.0359987416666667, 229.878057174307, -0.000437378243834439, 0.71625,694.901672363281
0.0366654766666667, 229.889119469036, -0.000562206473849642, 0.73,694.901672363281
0.03733202, 229.899910689372, -0.000736343227135419, 0.74375,691.044372558594
0.0379987966666667, 229.910707211296, -0.000373149969974166, 0.75625,692.157958984375
0.0386656033333333, 229.921593083753, -0.000305351875396518, 0.77,687.087707519531
0.0393321383333333, 229.932577737789, -0.000277180290429849, 0.7825,821.9609375
0.0399986883333333, 229.943730014615, -0.000467801215712971, 0.795,687.830688476563
0.0406653466666667, 229.954780152568, -0.000424469892167067, 0.80875,687.830688476563
0.0413319966666667, 229.966500786636, -0.000789916036185841, 0.8225,685.2490234375
0.0419987983333333, 229.977343422233, -0.000582305464253952, 0.83625,686.789733886719
0.0426654533333333, 229.988072031346, -0.000359140673582263, 0.84875,679.012451171875
0.0433320666666667, 229.998904741076, 7.02562582609267E-05, 0.86125,679.012451171875
0.0439985866666667, 230.009859661909, 0.000375112945616847, 0.875,680.521789550781
0.044665285, 230.02038968418, 0.000545151904710285, 0.8875,682.017395019531
0.0453321816666667, 230.031110088629, 0.000336359392114833, 0.90125,679.792358398438
0.0459988366666667, 230.041849368317, 0.000173784058105998, 0.915,682.364624023438
0.0466653816666667, 230.052626382452, 3.24821555430193E-05, 0.9275,682.364624023438
0.04733199, 230.063325343698, -0.000409655136370614, 0.94125,687.829467773438
0.0479988133333333, 230.073730661771, -0.000565083329386443, 0.955,680.548522949219
0.04866547, 230.084047894666, -0.000874208802337928, 0.9675,679.864624023438
0.04933201, 230.094104099761, -0.000863796325345168, 0.98125,681.62158203125
0.04999891, 230.103640343721, -0.00081974503797943, 0.99375,681.62158203125
0.05066555, 230.113710482895, -0.000995429713546927, 1.0075,686.762817382813
0.0513319133333333, 230.123237215451, -0.00117346177114559, 1.02,687.780517578125
0.0519990083333333, 230.132721042368, -0.00103264284432548, 1.03375,690.605773925781
0.052665495, 230.142296434834, -0.0013018133241579, 1.0475,690.6455078125
0.0533320583333333, 230.152204798919, -0.00146578508801997, 1.06,690.6455078125
0.0539994716666667, 230.16167911435, -0.00125605062275049, 1.0725,683.208068847656
0.0546653616666667, 230.171775488015, -0.00115243432730187, 1.08625,697.332885742188
0.05533205, 230.182034952095, -0.00111763307532508, 1.1,695.428894042969
0.055998965, 230.192176679251, -0.00103850005009789, 1.1125,832.790466308594
0.05666538, 230.202614985431, -0.00128477268012194, 1.12625,686.901489257813
0.05733199, 230.212530744413, -0.00141684554623761, 1.13875,686.901489257813
0.0579988333333333, 230.222507124147, -0.00133047538451071, 1.1525,683.700073242188
0.05866587, 230.232543428914, -0.0011842852274886, 1.16625,690.171691894531
0.0593326383333333, 230.242851766033, -0.00118894549339593, 1.18,684.404663085938
0.0599988083333333, 230.252754119368, -0.000909805014312207, 1.1925,684.404663085938
0.0606653516666667, 230.262914752218, -0.00082319036488632, 1.20875,680.399108886719
0.0613320583333333, 230.274145668258, -0.000919353534699911, 1.22,692.687683105469
0.0619986716666667, 230.285116504032, -0.00086217190685512, 1.2325,686.034973144531
0.062665535, 230.295119350035, -0.000671787969648966, 1.24625,685.634765625
0.063332205, 230.304827863126, -0.000494468376248123, 1.26,685.634765625
0.0639986983333333, 230.313742161981, -0.000259677669550151, 1.27375,681.253173828125
0.064665445, 230.321612852275, -0.000138912735466013, 1.28625,683.833251953125
0.06533205, 230.328949031542, -9.615138336338E-05, 1.30125,685.943969726563
0.06599935, 230.337053410431, -0.000338183726313018, 1.31375,688.970886230469
0.0666654716666667, 230.344366878282, -0.00036333296307577, 1.32625,688.970886230469
0.067331985, 230.352283360407, -0.000504931850691848, 1.34,684.142578125
0.0679988983333333, 230.359032159373, -0.000459724121441165, 1.35375,687.248840332031
0.06866544, 230.366677100027, -0.000833790332471995, 1.36625,681.405700683594
0.0693320483333333, 230.373403409039, -0.000680861013958331, 1.38125,685.811096191406
0.0699987966666667, 230.380391433809, -0.000962200382578547, 1.39375,685.811096191406
0.0706670433333333, 230.386903809826, -0.00103670464031088, 1.4075,684.250366210938
0.0713320216666667, 230.393604051654, -0.00116395824846873, 1.42125,687.6083984375
0.0719986816666667, 230.399735380177, -0.000921621420822719, 1.43375,821.619750976563
0.0726654633333333, 230.406239854377, -0.000609712087689943, 1.4475,682.956481933594
0.07333211, 230.412778601684, -0.000175474898968531, 1.46,688.447937011719
0.073998675, 230.419550398701, -0.000177303307113659, 1.47375,688.447937011719
0.0746655466666667, 230.426484286438, -0.000107327321919906, 1.48875,691.526245117188
0.075332135, 230.433271701851, 0.000259846735308978, 1.50125,689.123107910156
0.0759989483333333, 230.440039059076, 0.000177752858778404, 1.515,684.602172851563
0.0766653233333333, 230.44735451969, 0.000215994937910127, 1.5275,684.602172851563
0.0773320483333333, 230.455266868499, 0.000298642286609266, 1.54125,684.605102539063
0.077998795, 230.462750371213, 0.000768420190144545, 1.555,691.193542480469
0.0786653816666667, 230.470702900478, 0.000414476968350986, 1.5675,683.1083984375
0.07933209, 230.478613650951, 0.000425522413569446, 1.58125,679.946838378906
0.079998885, 230.486148119825, 0.000344716972356319, 1.59375,679.946838378906
0.0806654133333333, 230.49320428461, 0.000486023374713762, 1.6075,684.065673828125
0.081331995, 230.500416016835, 0.000154096047051942, 1.62125,683.0087890625
0.0819987616666667, 230.50743874432, 0.000387145341220175, 1.635,691.668273925781
0.0826653566666667, 230.514594709521, 0.000150896707768441, 1.6475,686.83154296875
0.0833321366666667, 230.522008473761, -0.000356503806056254, 1.66,686.83154296875
0.08399894, 230.529076586103, -0.000435648830678671, 1.67375,687.436340332031
0.084665365, 230.536512835608, -0.000590876033781954, 1.6875,698.673889160156
0.0853320166666667, 230.543835055477, -0.000665195800791435, 1.70125,688.370056152344
0.085998985, 230.550708843952, -0.000610460550094693, 1.71375,686.904663085938
0.086666075, 230.557872617011, -0.000562102979044563, 1.72625,686.904663085938
0.0873320066666667, 230.564692310173, -0.000551515010875367, 1.74,683.289611816406
0.0879986116666667, 230.571849701216, -0.000446197800834636, 1.7525,696.569091796875
0.0886654033333333, 230.578807328012, -0.000420241604615406, 1.76625,829.67919921875
0.089332025, 230.586299237573, -0.000623914874329867, 1.77875,688.470275878906
0.0899988883333333, 230.593080631745, -0.000645257302298273, 1.7925,678.664184570313
0.0906653216666667, 230.600417853053, -0.000697409682768777, 1.80625,678.664184570313
0.0913321483333333, 230.607126284676, -0.000984630255994364, 1.82,682.417724609375
0.0919989266666667, 230.613813852713, -0.00114928598546933, 1.8325,682.505615234375
0.0926654366666667, 230.620207862837, -0.00127677358189784, 1.845,687.211791992188
0.093332195, 230.626930194879, -0.000817498150840776, 1.85875,687.211791992188
0.0939989033333333, 230.632811162502, -0.00088309435596936, 1.87125,686.901733398438
0.0946655316666667, 230.639428984391, -0.000868158106168719, 1.885,681.503784179688
0.0953319966666667, 230.645767838557, -0.00104363579208355, 1.89875,682.450622558594
0.0959987766666667, 230.652281393509, -0.000973530813369863, 1.91125,692.884338378906
0.0966654, 230.658282473571, -0.00117749206861226, 1.925,692.884338378906
0.09733211, 230.664630905304, -0.0012946031862762, 1.9375,686.005676269531
0.0979988383333333, 230.671189224894, -0.00115176536086923, 1.95125,688.753723144531
0.0986653883333333, 230.677760709961, -0.00106527670511448, 1.965,678.0205078125
0.099332065, 230.684366991796, -0.000863812824428587, 1.97875,670.088745117188
0.0999987516666667, 230.691073589443, -0.000929508024610295, 1.99125,670.088745117188
0.100665815, 230.698081219915, -0.000881502935879946, 2.005,668.324584960938
0.101332005, 230.704476163819, -0.000852368399255099, 2.01875,665.557189941406
0.10199871, 230.710739479254, -0.000498462675571622, 2.03125,672.594848632813
0.102665365, 230.716882109346, -0.000402311505132002, 2.04625,670.737487792969
0.103332026666667, 230.722961092263, -0.000463241444676903, 2.05875,670.737487792969
0.10399867, 230.729010481975, -0.000328540710517875, 2.07125,666.822814941406
0.10466538, 230.735168051102, -0.000514112889451976, 2.085,669.488159179688
0.105332086666667, 230.742014623466, -0.000901439934427451, 2.09875,809.466003417969
0.105998711666667, 230.748352361038, -0.00105560219103439, 2.11125,672.086853027344
0.106665443333333, 230.755121397489, -0.00123805902643032, 2.125,672.355773925781
0.107332021666667, 230.76178378134, -0.00140444416910356, 2.1375,672.355773925781
0.107998971666667, 230.767874770809, -0.00115432123249872, 2.15125,668.06982421875
0.108665505, 230.77385343905, -0.00102444575603765, 2.16625,667.102783203125
0.109332223333333, 230.780383356187, -0.000838554093163144, 2.17875,673.197509765625
0.109998816666667, 230.786683437709, -0.000473898409432411, 2.19125,673.197509765625
0.110665351666667, 230.793253902957, -0.000555602305533122, 2.205,668.27001953125
0.111332071666667, 230.799963507438, -0.000532884446589371, 2.21875,666.231689453125
0.111999476666667, 230.806398042344, -0.000395999822180388, 2.2325,672.998291015625
0.11266539, 230.812646828006, -0.000669053606972983, 2.24625,668.221313476563
0.113332011666667, 230.81869921295, -0.000600499550411076, 2.25875,668.221313476563
0.11399871, 230.824425571536, -8.251556821165E-05, 2.2725,674.039306640625
0.114665541666667, 230.830458500387, -3.66628713400419E-05, 2.285,668.368713378906
0.115332026666667, 230.836662026749, -2.85017812803996E-05, 2.29875,665.500854492188
0.115998681666667, 230.843293479112, 0.000286116415770996, 2.3125,666.725402832031
0.116665631666667, 230.849635245871, 0.000164303034358948, 2.325,666.725402832031
0.117331973333333, 230.856566831711, -0.000126431862338587, 2.34,668.782775878906
0.117998831666667, 230.863297189486, -0.000251116099589823, 2.3525,666.069946289063
0.118665281666667, 230.870396320513, -0.000376175317941873, 2.365,663.928833007813
0.119332065, 230.876994796168, -0.000621843478303886, 2.38,664.422912597656
0.119998828333333, 230.88397830627, -0.000492335483364117, 2.39125,664.422912597656
0.120665431666667, 230.890597332779, -0.000383968926480209, 2.40625,659.555908203125
0.121332105, 230.89764689176, -0.00029882870297652, 2.41875,666.328063964844
0.1219989, 230.904372576099, -0.000393128966383708, 2.43125,791.687438964844
0.122665493333333, 230.911676104248, -0.000282805007813484, 2.445,655.968627929688
0.123332083333333, 230.919155482685, -0.000542650456015548, 2.45875,658.37939453125
0.123998698333333, 230.926915674122, -0.000527379723051726, 2.47125,658.37939453125
0.1246655, 230.934528607563, -0.00033864870283552, 2.485,654.153137207031
0.125332271666667, 230.942634606699, -0.000326179829124574, 2.49875,654.23046875
0.12599888, 230.950456088487, 4.17407754067052E-06, 2.51125,653.486389160156
0.126665353333333, 230.959113919183, 0.000449156726514874, 2.525,653.486389160156
0.127332138333333, 230.967817653689, 0.000422669556929367, 2.5375,652.009826660156
0.12799877, 230.976920487589, 0.000489237713305058, 2.55125,654.268798828125
0.128665505, 230.98600503119, 0.000618538718655923, 2.565,646.24169921875
0.12933221, 230.995548066819, 0.000150304237565392, 2.5775,651.506652832031
0.12999873, 231.00523263943, -0.000210699129605785, 2.59,651.506652832031
0.130665345, 231.014787192229, -0.000346274319776929, 2.60375,659.306213378906
0.131332013333333, 231.024326317291, -0.00024256952878851, 2.61625,650.596862792969
0.131998886666667, 231.034086317756, -0.000235402888799515, 2.63,653.640930175781
0.132665291666667, 231.043484480803, 0.000358757767118183, 2.64375,654.534423828125
0.133332151666667, 231.052691250288, 0.000571891061659302, 2.65625,654.534423828125
0.133998825, 231.062141531086, 0.000590658118959724, 2.67,650.682861328125
0.134665515, 231.071779661571, 0.000298829777223436, 2.6825,651.756469726563
0.135332103333333, 231.081181969798, 0.000475756390388117, 2.69625,654.380126953125
0.135998645, 231.090915455488, 0.000321009163200147, 2.71,653.393920898438
0.136665355, 231.100414913022, 0.000365034951787267, 2.7225,653.393920898438
0.13733206, 231.109968553873, 0.000635999341567313, 2.735,656.024658203125
0.137998728333333, 231.118986124727, 0.00067194503607633, 2.7475,657.840698242188
0.138665356666667, 231.128047021385, 0.000261588147859972, 2.76125,654.465698242188
0.139332173333333, 231.13716760869, -0.000197451795023277, 2.775,648.369445800781
0.139998783333333, 231.146713389702, -0.000796476706588396, 2.78875,647.783752441406
0.140665343333333, 231.156288677263, -0.00105279433202014, 2.8025,647.783752441406
0.141331988333333, 231.165858984158, -0.00125666259192828, 2.815,642.643859863281
0.141999136666667, 231.175610744184, -0.00101167989718858, 2.82875,644.592407226563
0.142665673333333, 231.185277878434, -0.00093550472341597, 2.84125,653.330200195313
0.143332073333333, 231.194932584223, -0.000347192273745518, 2.855,653.330200195313
0.143998683333333, 231.20495455443, -0.000398197211877497, 2.86875,646.705444335938
0.144665775, 231.215788379742, -0.000414193908401274, 2.8825,648.639770507813
0.145331998333333, 231.225995691755, -0.000281446076155353, 2.895,644.331726074219
0.145998773333333, 231.237207403209, -0.000129542706082296, 2.91,650.220336914063
0.146665453333333, 231.247573562339, -0.000217153305503233, 2.92125,650.220336914063
0.147332026666667, 231.258186385313, -4.3144045791732E-05, 2.935,649.853942871094
0.147998783333333, 231.268725969639, -9.65503632546466E-05, 2.94875,646.603637695313
0.148665361666667, 231.27970268637, -0.000459883113406657, 2.9625,647.302490234375
0.149332063333333, 231.289805325889, -0.000473088450127127, 2.97625,643.9130859375
0.149998756666667, 231.300796920934, -0.00070445932861181, 2.98875,643.9130859375
0.150665345, 231.311240725806, -0.00102059094964114, 3.0025,649.894287109375
0.151332201666667, 231.321339275672, -0.00103764059324479, 3.015,635.716613769531
0.151998818333333, 231.33120099557, -0.000685723769660094, 3.03,638.893127441406
0.152665355, 231.341001558936, -0.000389410653192917, 3.04375,638.893127441406
0.153332123333333, 231.350666248724, -0.000396119816196411, 3.05625,636.278625488281
0.154001296666667, 231.360222610057, -0.000200837124996545, 3.07,639.225341796875
0.154665365, 231.369857792625, 0.000273268061186026, 3.0825,773.9345703125
0.155332026666667, 231.379574278578, 0.000266039924253989, 3.09625,638.429931640625
0.155998841666667, 231.389745391088, -4.33990329190317E-05, 3.11,641.803466796875
0.156665533333333, 231.399441156395, 7.13587028886081E-05, 3.1225,637.529357910156
0.157332031666667, 231.409074931538, 0.000101544686668918, 3.13625,637.529357910156
0.157998875, 231.418823187645, -0.000111878093324538, 3.15,643.496948242188
0.158665523333333, 231.429354497452, -0.000424340898647133, 3.16375,638.8466796875
0.15933213, 231.439388885021, -0.000488020200112051, 3.17625,635.89794921875
0.159998851666667, 231.449927015769, -0.000315407370253778, 3.19,635.89794921875
