Time (min), Depth (µm), Load (N), Position (µm), Acoustic (aJ)
7.93166666666667E-06, 229.273334362935, 0.00018335815168299, 0,323.557800292969
0.000664041666666667, 229.27326521909, 7.57700557344061E-05, 0.005,322.199401855469
0.00133039666666667, 229.273862291731, 0.000122801693378262, 0.0175,330.930511474609
0.00199730166666667, 229.275527136607, 0.000225362041876961, 0.03375,331.814544677734
0.002663745, 229.278625884835, 0.000294889549546616, 0.04875,334.472808837891
0.00333042833333333, 229.283078682584, 0.000537673354792319, 0.06125,334.472808837891
0.00399738333333333, 229.288787319556, 0.000431561184690336, 0.07625,334.960845947266
0.004663845, 229.296290052226, 0.000451232696618464, 0.08875,343.363861083984
0.00533049166666667, 229.303916036259, 0.00047675841449145, 0.10375,344.823516845703
0.00599733666666667, 229.311660003693, 0.000566353414216708, 0.11625,347.566741943359
0.00666447833333333, 229.319713852343, 0.000578949781523186, 0.13,347.566741943359
0.007330285, 229.329817683288, 0.000524273027856917, 0.1425,416.743194580078
0.00799744, 229.338667247969, 0.00049526748473075, 0.15625,347.581176757813
0.00866370666666667, 229.348736159129, 0.000532338122712242, 0.17,350.279632568359
0.009330355, 229.35801976123, 0.000552441612953525, 0.18125,349.770324707031
0.00999754666666667, 229.367223742588, 0.000783798992118579, 0.195,349.770324707031
0.010663845, 229.375496840377, 0.00109364892868436, 0.20875,363.9658203125
0.0113306266666667, 229.384788989609, 0.00109541134019826, 0.2225,368.630004882813
0.0119975766666667, 229.393521264507, 0.00112443188250469, 0.23625,364.539154052734
0.0126638916666667, 229.403553428723, 0.000885891364118446, 0.24875,373.513336181641
0.0133308133333333, 229.413547329278, 0.00039703141905179, 0.2625,373.513336181641
0.0139970383333333, 229.42387628256, 0.00024055477875056, 0.275,374.378936767578
0.014664265, 229.433869228404, 0.000122398213628769, 0.28875,379.302856445313
0.0153308216666667, 229.443820405971, -0.000192651961693273, 0.30125,388.39697265625
0.01599713, 229.453867225289, -0.000318570636962186, 0.315,398.103942871094
0.01666396, 229.463996707273, -0.000441559959340183, 0.3275,398.103942871094
0.0173302633333333, 229.47408141602, -0.000731663387757676, 0.34125,392.717956542969
0.0179971333333333, 229.484702384245, -0.000809936956174276, 0.355,399.291595458984
0.0186639066666667, 229.495772818858, -0.000726313156518583, 0.36875,404.689910888672
0.0193301316666667, 229.506852310865, -0.000622717859990349, 0.3825,409.956207275391
0.0199973866666667, 229.517770071987, -0.000249412110738241, 0.395,409.956207275391
0.0206640933333333, 229.52901384911, -3.24975061601404E-05, 0.40875,401.415924072266
0.021330335, 229.540127087077, -0.00010426140151888, 0.42125,413.816314697266
0.0219970683333333, 229.550951134379, -7.9691135660802E-05, 0.435,411.332885742188
0.0226638683333333, 229.561796028392, -9.158553821903E-05, 0.44875,414.425170898438
0.0233303466666667, 229.573455568963, -0.000315230304784778, 0.46125,414.425170898438
0.023997125, 229.584677933915, -0.000624502770349037, 0.47625,491.662963867188
0.02466368, 229.595982094948, -0.000757153107444984, 0.48875,405.108825683594
0.0253303166666667, 229.607550272815, -0.000931565846905977, 0.5025,409.928192138672
0.0259971833333333, 229.618692881425, -0.00119017535722972, 0.51625,409.163879394531
0.02666413, 229.629427460014, -0.00139849239364056, 0.52875,409.163879394531
0.0273302933333333, 229.639892746202, -0.00127990235030247, 0.5425,410.916229248047
0.02799717, 229.650499278641, -0.000923946229619673, 0.555,417.570587158203
0.0286639466666667, 229.661035418991, -0.000901376863234353, 0.57,408.976867675781
0.0293305416666667, 229.671725506649, -0.000830721412179654, 0.5825,414.463287353516
0.02999722, 229.682226436606, -0.000735914174281656, 0.59625,414.463287353516
0.0306645533333333, 229.693430720394, -0.000856293627751649, 0.60875,409.338317871094
0.0313305866666667, 229.704413057531, -0.00106077685677139, 0.6225,412.102416992188
0.0319975783333333, 229.715768686657, -0.000752684831925039, 0.63625,411.582733154297
0.0326640216666667, 229.726821187512, -0.000611450425981461, 0.65,413.607513427734
0.0333306433333333, 229.738199193631, -0.000764067760134232, 0.6625,413.607513427734
0.03399769, 229.748987031405, -0.000552990862268791, 0.67625,410.616455078125
0.0346638783333333, 229.759417654849, -0.000470463507543166, 0.68875,407.406219482422
0.0353307116666667, 229.769857767053, -0.000778768521697291, 0.7025,407.549285888672
0.0359972783333333, 229.780751502032, -0.00102744853077114, 0.71625,410.10595703125
0.0366638933333333, 229.79144748916, -0.00103242228098502, 0.72875,410.10595703125
0.0373308166666667, 229.80235981429, -0.00131568905278223, 0.7425,406.999114990234
0.037997695, 229.813306088384, -0.00142344814017655, 0.755,406.322845458984
0.0386638783333333, 229.823843366492, -0.00157665944452054, 0.76875,401.663635253906
0.039330575, 229.834198023885, -0.00146706444935907, 0.7825,407.232879638672
0.0399970016666667, 229.844365352719, -0.00123962487341546, 0.795,407.232879638672
0.0406639983333333, 229.854551907204, -0.00102961892180774, 0.80875,483.444610595703
0.04133259, 229.865177142666, -0.000738813528641998, 0.8225,395.377502441406
0.0419977333333333, 229.875327547483, -0.000232969936624188, 0.835,398.932556152344
0.042664465, 229.886157980893, -0.000102497490123091, 0.84875,400.051025390625
0.0433307683333333, 229.896778365925, 0.000104535610849781, 0.86125,400.051025390625
0.04400524, 229.907393062586, 0.00039555399330204, 0.875,391.21533203125
0.0446642983333333, 229.917706684557, 0.000334871541347438, 0.8875,385.751831054688
0.0453302333333333, 229.927963719841, 0.000410254754928862, 0.90125,388.581085205078
0.0459971083333333, 229.937645215999, 0.000525415970507248, 0.91375,392.97021484375
0.0466636566666667, 229.94776452922, 0.000254331586753688, 0.9275,392.97021484375
0.0473303533333333, 229.95770689715, 0.000147664444537483, 0.94,394.228973388672
0.0479973666666667, 229.967594811114, 4.84414284098928E-05, 0.95375,394.238189697266
0.048663815, 229.978578958374, -0.000226025285425621, 0.9675,389.874389648438
0.0493302983333333, 229.989464925771, -0.000265705792293864, 0.98125,393.628234863281
0.0499969366666667, 230.000151286429, 8.37151566799792E-05, 0.99375,393.628234863281
0.0506637166666667, 230.010725321551, -4.67242915054999E-05, 1.00625,393.925842285156
0.0513305583333333, 230.021414919729, -0.000337043709058316, 1.02,404.279907226563
0.0519970083333333, 230.031352218014, 0.00016518956428323, 1.03375,406.651550292969
0.0526636283333333, 230.041594841152, 0.00013543255892476, 1.0475,407.735260009766
0.0533303733333333, 230.05179709244, -9.79572181467741E-05, 1.06,407.735260009766
0.0539971, 230.061945991524, -5.41624178752472E-05, 1.0725,412.198822021484
0.0546654766666667, 230.072402502267, 0.000260089797515483, 1.08625,413.793395996094
0.0553303316666667, 230.082797414061, -1.37349485479112E-05, 1.09875,415.009124755859
0.0559973633333333, 230.092993371629, -1.42824210188626E-05, 1.1125,410.544677734375
0.0566636316666667, 230.103501694337, -0.000157616721509575, 1.12625,481.748138427734
0.0573303, 230.114050204721, 5.62455364190515E-05, 1.14,481.748138427734
0.0579978883333333, 230.124154835847, 0.000118621403386251, 1.1525,405.033477783203
0.0586636033333333, 230.13486852901, -0.000143796415634991, 1.165,405.066558837891
0.0593320116666667, 230.145052925242, -0.000117886717072262, 1.18,400.326171875
0.0599976933333333, 230.154992241191, -3.29474834598636E-05, 1.1925,400.326171875
0.06066447, 230.164896164177, -0.000230174076983909, 1.20875,391.969482421875
0.0613310283333333, 230.176043098918, -0.000350517532225715, 1.22,399.354034423828
0.0619974116666667, 230.186861378927, -0.000155957804758253, 1.2325,394.843811035156
0.0626645016666667, 230.197722832917, -0.000515828728792429, 1.24625,410.186492919922
0.0633307533333333, 230.207700691263, -0.000661439914931115, 1.26,410.186492919922
0.06399786, 230.217807008492, -0.000678927536545526, 1.2725,396.670684814453
0.064664485, 230.226694355772, -0.000892026332867878, 1.28625,393.125122070313
0.06533179, 230.23481470927, -0.00116035835485262, 1.3,405.716949462891
0.0659970066666667, 230.24342149851, -0.00102835598520515, 1.31375,403.580078125
0.0666639, 230.252271913532, -0.000830205438078663, 1.32625,403.580078125
0.067330385, 230.260973492388, -0.000872315822926519, 1.34,401.620361328125
0.0679969866666667, 230.269519305288, -0.000719152516163439, 1.35375,396.174926757813
0.068663625, 230.278054899896, -0.000792674323220354, 1.36625,399.41748046875
0.069330365, 230.286005756268, -0.000616296682493535, 1.38125,396.630401611328
0.069997055, 230.294134794151, -0.00111140981346008, 1.39375,396.630401611328
0.070663675, 230.302069943978, -0.0011856620838289, 1.4075,394.837707519531
0.0713303083333333, 230.309667445071, -0.00132362065430191, 1.42125,407.065612792969
0.0719972633333333, 230.31695495703, -0.00112888393571235, 1.43375,403.063018798828
0.07266375, 230.324149633048, -0.00127290220183722, 1.4475,398.304229736328
0.073330245, 230.331601427339, -0.000756379146240362, 1.46,477.66650390625
0.07399707, 230.338802134139, -0.000895201673318419, 1.47375,477.66650390625
0.0746635466666667, 230.346537998825, -0.000788041055888526, 1.4875,403.570404052734
0.0753303033333333, 230.354195465808, -0.000599179542206728, 1.50125,393.873352050781
0.0759972316666667, 230.362026174136, -0.000442263423949073, 1.51375,402.714416503906
0.0766637483333333, 230.368870035139, -0.000594180293320506, 1.5275,402.714416503906
0.0773302733333333, 230.376214160262, -0.000521966420555773, 1.54,406.640075683594
0.0779974033333333, 230.383003405986, -0.000624808754906047, 1.555,396.034515380859
0.07866447, 230.389865556747, -0.000901417361129479, 1.5675,408.069305419922
0.079330265, 230.397011476228, -0.00103266226884703, 1.58125,408.069305419922
0.0799969916666667, 230.404085290063, -0.00135325466583805, 1.59375,402.567413330078
0.0806637683333333, 230.410785922108, -0.00138517156265603, 1.6075,409.223693847656
0.081330295, 230.417254829411, -0.00130617803039834, 1.62125,417.279174804688
0.08199774, 230.424695293339, -0.00116773648420373, 1.635,410.758636474609
0.0826649633333333, 230.430814823808, -0.00118522860557009, 1.6475,413.818603515625
0.083330575, 230.43832903488, -0.00101076936847385, 1.66,413.818603515625
0.0839970516666667, 230.444981793658, -0.000757874571125459, 1.67375,412.564483642578
0.0846638216666667, 230.452154565408, -0.000868486515202363, 1.68625,416.075500488281
0.0853303616666667, 230.458196735321, -0.000842569316996364, 1.7,412.648040771484
0.085997, 230.464997422424, -0.000946737584710406, 1.71375,407.796051025391
0.0866637683333333, 230.470205121429, -0.000544352796100134, 1.72625,407.796051025391
0.0873302666666667, 230.476035000493, -0.000678549555532143, 1.74,407.796051025391
0.0879970733333333, 230.48104256365, -0.000611705413066253, 1.7525,404.284027099609
0.088664305, 230.487353706481, -0.000644843248603526, 1.76625,403.611358642578
0.0893303933333333, 230.492925759317, -0.000339629579175868, 1.77875,487.208312988281
0.0899972166666667, 230.499230590804, -0.000821108395000101, 1.7925,402.557800292969
0.09066377, 230.504974665667, -0.000709275512246404, 1.805,402.557800292969
0.091332205, 230.511384849544, -0.000719089519317248, 1.81875,405.920623779297
0.09199765, 230.516803156154, -0.00112287673747836, 1.8325,407.705993652344
0.092663665, 230.523209197863, -0.00123719349542643, 1.845,406.690185546875
0.0933303283333333, 230.52921929395, -0.00112916292171512, 1.85875,406.690185546875
0.0939971316666667, 230.536118987256, -0.00108307023687523, 1.87125,407.24365234375
0.0946638483333333, 230.543175743976, -0.00121961737827222, 1.885,406.326202392578
0.09533061, 230.55043855938, -0.00103426568828916, 1.89875,403.236541748047
0.0959972466666667, 230.557576520585, -0.00116959639080383, 1.91125,405.119720458984
0.0966637266666667, 230.564747496408, -0.00128863941137547, 1.925,405.119720458984
0.0973306233333333, 230.572028720972, -0.00155004628117888, 1.9375,408.529235839844
0.097997245, 230.57920675066, -0.00143517755094415, 1.95,414.289794921875
0.0986639916666667, 230.586334711708, -0.001470710766136, 1.965,390.017761230469
0.0993305866666667, 230.593205748872, -0.00145238618657705, 1.97875,383.155639648438
0.09999721, 230.601085359853, -0.00148371961273839, 1.99125,383.155639648438
0.100663921666667, 230.608564355575, -0.00125370916592126, 2.005,388.763000488281
0.101330425, 230.616806885694, -0.0015536101022199, 2.0175,385.297424316406
0.101997288333333, 230.62450321415, -0.00136691297981332, 2.03125,381.592224121094
0.102663773333333, 230.632804742234, -0.00144724894462447, 2.045,385.485107421875
0.103330415, 230.640234634517, -0.00113108282531261, 2.05875,385.485107421875
0.103997453333333, 230.648594631091, -0.00130327117647974, 2.07125,393.583251953125
0.104664046666667, 230.656819592192, -0.00119553458799398, 2.085,382.271820068359
0.105330428333333, 230.665563526496, -0.00129631002613399, 2.0975,392.790618896484
0.105997713333333, 230.674328674257, -0.0012756560635517, 2.11125,459.43310546875
0.106663785, 230.683802023594, -0.00141636399592346, 2.125,384.867584228516
0.107330383333333, 230.693193026061, -0.0014949060508295, 2.13875,384.867584228516
0.107997451666667, 230.701988916459, -0.00113142630802221, 2.15125,382.864593505859
0.108663866666667, 230.711507633817, -0.00115566509054466, 2.165,389.564392089844
0.109330453333333, 230.720854872045, -0.00126891840194204, 2.1775,386.078338623047
0.109997311666667, 230.730599204621, -0.00131949286168526, 2.19125,386.078338623047
0.11066413, 230.739446057118, -0.00110734651759278, 2.205,387.374725341797
0.111330546666667, 230.749497700089, -0.00135491808236259, 2.21875,382.632690429688
0.111997133333333, 230.758901379944, -0.00119819395442855, 2.2325,383.782012939453
0.11266469, 230.768433797994, -0.00103456417337294, 2.245,386.780578613281
0.113330375, 230.777778553303, -0.00100342573742653, 2.25875,386.780578613281
0.113997163333333, 230.787727183498, -0.0010160941010831, 2.2725,390.652496337891
0.114663685, 230.796752279453, -0.00116213876543809, 2.285,388.880157470703
0.115330405, 230.806582999342, -0.00108778899998306, 2.29875,385.991241455078
0.115997085, 230.815965298981, -0.00107843996956224, 2.3125,385.375549316406
0.116663611666667, 230.825538191264, -0.001064319678807, 2.325,385.375549316406
0.117330701666667, 230.834693285247, -0.000954339203010141, 2.33875,383.313598632813
0.117997598333333, 230.844086881579, -0.000700181469080411, 2.3525,380.0888671875
0.118664115, 230.853154042448, -0.000977034563024081, 2.365,384.223510742188
0.119330485, 230.862704701719, -0.00115134830745321, 2.38,376.725280761719
0.119997388333333, 230.871985027668, -0.0011635411950527, 2.39125,376.725280761719
0.12066415, 230.881665032179, -0.00142280017274933, 2.405,373.498901367188
0.121330431666667, 230.890922929641, -0.00150298764502329, 2.41875,372.994720458984
0.12199754, 230.899980278238, -0.00100660557775655, 2.43125,369.997802734375
0.122663941666667, 230.909355782867, -0.000718675540181948, 2.445,446.250732421875
0.12333041, 230.918731805119, -0.000636122686698961, 2.45875,446.250732421875
0.123997163333333, 230.928015627213, -0.000495584245806019, 2.47125,370.493865966797
0.12466388, 230.937334909419, -4.79722289065678E-05, 2.485,368.661071777344
0.12533034, 230.946498147092, -0.000311526990816766, 2.4975,362.085479736328
0.125997146666667, 230.955099153085, -3.82767159060896E-05, 2.51,361.224792480469
0.126663691666667, 230.963709658704, 2.12852923705E-05, 2.52375,361.224792480469
0.127330738333333, 230.972362536932, 3.82239415895562E-05, 2.5375,359.885803222656
0.127997751666667, 230.980919755994, 0.000255434031360115, 2.55125,354.647186279297
0.128664293333333, 230.989243401161, 0.00038461054298551, 2.56375,351.486785888672
0.129330358333333, 230.998199697291, 0.000251637722057847, 2.57625,351.486785888672
0.129997203333333, 231.00703117191, 0.000198603385910702, 2.59,350.364593505859
0.130663781666667, 231.015380157384, 0.000164198114040135, 2.60375,360.129180908203
0.13133195, 231.024143302138, -0.000451670951527889, 2.61625,357.900085449219
0.131997106666667, 231.032712976461, -0.000371823962157222, 2.63,359.822113037109
0.132664153333333, 231.040572184523, -0.000270654043835392, 2.64375,360.482635498047
0.133330456666667, 231.047937375444, 0.000164901578606517, 2.65625,360.482635498047
0.133997155, 231.05592160888, 0.000144745591032374, 2.66875,366.242095947266
0.134663816666667, 231.063108584249, 0.000255014052399678, 2.6825,360.167083740234
0.135330505, 231.070590759394, 0.000453002607626849, 2.69625,360.897430419922
0.135997365, 231.078099854381, 0.000245641023188409, 2.70875,364.597503662109
0.13666403, 231.085833394761, -3.08340897418784E-05, 2.72125,364.597503662109
0.137330456666667, 231.093268323834, 5.17802606203889E-05, 2.735,376.995361328125
0.13799725, 231.100910451452, -2.50623796604537E-05, 2.7475,375.316864013672
0.138664111666667, 231.108380310945, -0.000354883813056271, 2.76125,362.418823242188
0.139330421666667, 231.116078095939, -0.000689617499744176, 2.775,429.745147705078
0.139997166666667, 231.123281268505, -0.000722530346578452, 2.7875,357.287200927734
0.140664118333333, 231.130855723274, -0.00050717716349543, 2.80125,357.287200927734
0.141331526666667, 231.138594213564, -0.000369700068798381, 2.815,364.456359863281
0.141997521666667, 231.146932146739, -0.000586218693312768, 2.82875,354.257202148438
0.14266387, 231.155435596389, -0.000297417199532352, 2.84125,354.768768310547
0.1433304, 231.164597984667, -0.000318176156822875, 2.855,354.768768310547
0.143997725, 231.173813901827, -9.64857921158914E-05, 2.8675,361.034027099609
0.144663883333333, 231.183178931772, -0.000118147704045954, 2.88125,359.420043945313
0.145330325, 231.192798689437, 0.000294102089064872, 2.895,351.571411132813
0.145997415, 231.202738114982, 0.000273002648849794, 2.90875,357.313568115234
0.146664171666667, 231.213146957102, 0.000331348218244054, 2.92125,357.313568115234
0.147331111666667, 231.223765572785, -0.000117603231402555, 2.935,350.822357177734
0.14799921, 231.234207962233, 0.000195330550267679, 2.94875,347.374450683594
0.148664063333333, 231.244282474498, 0.000161618243598941, 2.96125,352.205474853516
0.149330555, 231.254662807037, 0.000348936334814738, 2.975,347.553771972656
0.149997763333333, 231.264784710847, 0.000199972817082164, 2.98875,347.553771972656
0.150664026666667, 231.275059319166, 0.000162345707062046, 3.00125,346.999603271484
0.151330346666667, 231.285606713444, -0.00011371542666918, 3.015,344.774322509766
0.151997558333333, 231.296173867483, -0.000141180547135643, 3.02875,347.713104248047
0.152664053333333, 231.30629910774, -0.00031135299954348, 3.0425,344.944549560547
0.153330423333333, 231.3167004644, -5.76602422637757E-05, 3.055,344.944549560547
0.153997851666667, 231.326237671013, 6.12027873582201E-05, 3.06875,344.662109375
0.154664035, 231.336260750334, 0.000122140226525138, 3.0825,349.831268310547
0.155330426666667, 231.346514887568, 1.79749586386493E-05, 3.09625,418.360412597656
0.155997693333333, 231.356913586615, 5.2678715486719E-05, 3.10875,347.282867431641
0.15666378, 231.367453889628, -0.000343001409957031, 3.1225,347.725036621094
0.157330771666667, 231.377857232002, -0.000360442533914941, 3.13625,347.725036621094
0.157997456666667, 231.387935040591, -0.000303977870062432, 3.15,347.415649414063
0.158663975, 231.398061278387, -0.000233895390236047, 3.16375,353.415008544922
0.159330606666667, 231.408205007825, -0.000403751358552288, 3.17625,344.024719238281
0.159997168333333, 231.417959589723, -3.45914010309163E-05, 3.18875,344.024719238281
