Time (min), Depth (µm), Load (N), Position (µm), Acoustic (aJ)
8.26833333333333E-06, 229.316587657427, 0.000489086215222971, 0,323.013244628906
0.00066465, 229.316610826204, 0.000284478492456502, 0.005,313.210235595703
0.00133112833333333, 229.317692759686, 0.000200596705739687, 0.01875,318.46533203125
0.00199753, 229.319306058087, 6.03547834782117E-06, 0.03375,312.913696289063
0.00266453166666667, 229.324750386598, -0.000335431370155283, 0.05125,312.913696289063
0.00349823, 229.330026077946, -0.000117223830529033, 0.06625,324.314971923828
0.00416459833333333, 229.336194261185, 0.00015716638714066, 0.07875,324.314971923828
0.004831805, 229.343839255332, 0.000214247520007925, 0.0925,397.104614257813
0.00549804833333333, 229.351841058579, 0.000420541158101213, 0.10625,330.082885742188
0.00616538333333333, 229.360545575866, 0.000850803546452607, 0.12,337.787658691406
0.00683114666666667, 229.369783019507, 0.000710415098042499, 0.13375,338.194519042969
0.00749750166666667, 229.379982190504, 0.000673908431721648, 0.14625,338.194519042969
0.00816437, 229.389927464046, 0.000743767422790692, 0.16,332.426910400391
0.00883101333333333, 229.400398423219, 0.000417362817738103, 0.17375,335.156036376953
0.00949755666666667, 229.409944449241, 0.000383487019288156, 0.18625,331.474243164063
0.01016503, 229.420253415107, 9.94162879045255E-05, 0.2,331.474243164063
0.0108309616666667, 229.430638615578, 8.07837568261566E-06, 0.2125,340.984161376953
0.0114976633333333, 229.440475927895, 3.99772734502572E-05, 0.22625,345.812347412109
0.0121643733333333, 229.45037217204, 0.000206167425929821, 0.23875,352.628723144531
0.0128318683333333, 229.461208899663, 5.14261984394636E-05, 0.2525,352.644500732422
0.0134977116666667, 229.471455848306, 0.00024084418418114, 0.26625,355.12060546875
0.01416457, 229.481000541551, 0.000546857313485768, 0.27875,355.12060546875
0.014831055, 229.491309323854, 0.000523146504438281, 0.29125,364.369873046875
0.0154974883333333, 229.501504568273, 0.000426243871766358, 0.305,374.152923583984
0.0161645183333333, 229.51148844784, 0.000458301761520745, 0.31875,371.646575927734
0.0168310816666667, 229.521741465227, 0.000456299362081076, 0.335,370.226531982422
0.017664255, 229.532603383471, -0.000123270026776254, 0.34875,378.495452880859
0.0183312633333333, 229.54354341474, -0.000343481465745322, 0.36125,378.495452880859
0.018997545, 229.554799821711, -0.000559605610056636, 0.375,382.066955566406
0.0196643416666667, 229.565983501401, -0.000483383938563758, 0.38875,389.059509277344
0.0203321066666667, 229.577527171874, -0.000244841920274361, 0.4025,466.297607421875
0.02099759, 229.588939901792, -8.28500569434096E-05, 0.415,385.611663818359
0.02166538, 229.600867533706, 0.000166833401662493, 0.42875,385.611663818359
0.02233123, 229.612513217608, 0.000470620642748857, 0.4425,386.308746337891
0.0229976083333333, 229.62502283755, 0.000212420611829708, 0.455,382.755554199219
0.0236644183333333, 229.636976556428, -2.27930736349992E-05, 0.46875,384.147186279297
0.0243314183333333, 229.64944143496, 0.000123295088485177, 0.4825,382.733062744141
0.0249976666666667, 229.66115925457, 4.08637289426154E-05, 0.49625,382.733062744141
0.02566439, 229.673590131346, 7.64344422658009E-05, 0.50875,379.733001708984
0.0263310766666667, 229.685154392136, 0.000258814781517163, 0.5225,390.381988525391
0.0269977516666667, 229.697476233358, 4.94222990966456E-05, 0.53625,391.657043457031
0.027664845, 229.708950289627, 4.09252259069113E-05, 0.55,386.147796630859
0.02833116, 229.720935361252, 0.000180041738210516, 0.5625,386.147796630859
0.0289976066666667, 229.732316941214, 0.000222662097419242, 0.57625,391.023712158203
0.0296639466666667, 229.744208084261, 0.000235327461227015, 0.59,382.831359863281
0.03033134, 229.755776996122, 0.000106230445616247, 0.60375,392.914398193359
0.0309977716666667, 229.767947888736, -0.000124649957461046, 0.61625,393.167633056641
0.03166456, 229.77999850193, -0.000198602242906713, 0.63,393.167633056641
0.0323311266666667, 229.791585382141, -0.000446010315810299, 0.6425,382.368347167969
0.0329977716666667, 229.80329389505, -0.000755201785456782, 0.65625,384.794097900391
0.0336643616666667, 229.814727124653, -0.000764672309775518, 0.67,389.908294677734
0.0343315066666667, 229.826005331968, -0.000643359903199174, 0.6825,384.287811279297
0.0349978033333333, 229.836784495559, -0.000551536015406846, 0.69625,384.287811279297
0.0356646066666667, 229.848836321681, -0.000499767615668592, 0.71,384.614196777344
0.0363310766666667, 229.860333219119, -9.95982157632521E-05, 0.7225,387.317565917969
0.0369978216666667, 229.872181587287, 5.34405972743585E-05, 0.73625,461.829254150391
0.0376639966666667, 229.883745573429, 0.000356027898604322, 0.75,382.145965576172
0.0383309533333333, 229.895684901291, 0.000198985786675539, 0.7625,382.145965576172
0.0389978266666667, 229.906996206928, 4.87303672275536E-06, 0.77625,383.530792236328
0.0396644833333333, 229.919150569036, -0.000218783729216965, 0.79,378.089294433594
0.040331105, 229.930859822622, -0.000157591302816477, 0.8025,381.159393310547
0.0409979516666667, 229.942766585121, -0.000678297648275406, 0.81625,372.085388183594
0.0416641683333333, 229.954776909149, -0.000630840031994755, 0.82875,372.085388183594
0.0423311816666667, 229.966971959314, -0.000490930059511794, 0.84125,370.226470947266
0.0429977566666667, 229.978510760512, -0.000447334749270917, 0.855,371.664672851563
0.04366429, 229.989885536884, -0.000520165091114168, 0.86875,370.758636474609
0.0443312516666667, 230.001127529701, -0.000458219702535719, 0.8825,380.874755859375
0.0449978716666667, 230.011994077514, -0.000740094544274169, 0.895,380.874755859375
0.0456640666666667, 230.022190540123, -0.000534073892486037, 0.90875,375.0078125
0.0463311166666667, 230.032591335005, -0.000501906508207704, 0.92125,368.419372558594
0.04699763, 230.043281992877, -0.000227684282092429, 0.935,365.219512939453
0.0476659383333333, 230.054184728902, -0.000230781626559018, 0.9475,369.476257324219
0.0483320533333333, 230.064953465108, -0.00013910773122827, 0.96125,369.476257324219
0.0489978616666667, 230.075733861119, -1.96582310583296E-05, 0.97375,370.090942382813
0.0496643633333333, 230.085955589794, -6.40095033472275E-05, 0.9875,375.69970703125
0.0503311083333333, 230.095864620302, -0.000302889004648611, 1,373.966064453125
0.050997835, 230.10561451365, -0.000464741374967552, 1.01375,384.266815185547
0.0516638933333333, 230.115116728409, -0.000672105959254799, 1.02625,384.266815185547
0.0523311533333333, 230.124066813836, -0.00124568914875602, 1.04,384.972290039063
0.05299761, 230.13309717886, -0.00101868305104997, 1.05375,389.791351318359
0.053664645, 230.14134313995, -0.000876721181643284, 1.06625,460.423492431641
0.0543317116666667, 230.1496517883, -0.000689157102782845, 1.08,390.726867675781
0.054998365, 230.157303235585, -0.000397462254339701, 1.0925,388.589141845703
0.0556650433333333, 230.165751600547, 7.54954895255993E-05, 1.10625,388.589141845703
0.05633133, 230.173559533196, -0.000301498574471742, 1.12,392.096221923828
0.0569977833333333, 230.181712211538, -0.000238093759236383, 1.13375,386.110595703125
0.0576646983333333, 230.18893748678, 8.79598634420817E-05, 1.14625,382.605651855469
0.0583312733333333, 230.197252955742, -4.93672387508786E-05, 1.15875,382.605651855469
0.0589978733333333, 230.204522881805, -8.56264175239382E-05, 1.1725,386.079467773438
0.05966443, 230.21156744749, 0.000131000201547483, 1.18625,380.808471679688
0.06033134, 230.21825985392, 0.000134630019198482, 1.19875,380.807586669922
0.0609973783333333, 230.226097212603, -0.00022970318067928, 1.215,382.153900146484
0.0616645316666667, 230.234690687018, -0.000264175949169248, 1.22625,382.153900146484
0.0623309883333333, 230.242939646826, -0.000537607714953973, 1.24,382.853729248047
0.0629977416666667, 230.251502872371, -0.000698533131821667, 1.2525,383.794189453125
0.0636648616666667, 230.260193375414, -0.000796002736024292, 1.26625,380.545623779297
0.0643311716666667, 230.268044178551, -0.000563775400556569, 1.28,383.467529296875
0.0649977033333333, 230.27455124924, -0.000439734630980601, 1.2925,383.467529296875
0.0656644683333333, 230.281465701992, -0.000422890477041458, 1.30625,381.218292236328
0.0663310666666667, 230.288031320649, -0.000375189873007479, 1.32,380.631225585938
0.0669976433333333, 230.294849391021, -0.000462875468627325, 1.33375,380.963806152344
0.0676646983333333, 230.301878373269, -0.000721020002279792, 1.3475,384.602600097656
0.068331255, 230.308705396435, -0.000956020698457982, 1.36,384.602600097656
0.0689981883333333, 230.315121616606, -0.000655701283187064, 1.3725,383.429962158203
0.0696646483333333, 230.322131782939, -0.000588927637168128, 1.3875,382.021423339844
0.0703313933333333, 230.329030617183, -0.00063414886573844, 1.40125,459.379821777344
0.070997355, 230.335225603088, -0.000410922578208725, 1.415,379.244537353516
0.071664945, 230.341664854146, -0.000515125344205295, 1.4275,378.828155517578
0.07233168, 230.348533768601, -0.000725693767591761, 1.44125,378.828155517578
0.0729977616666667, 230.354348855378, -0.000502104498250188, 1.45375,380.296813964844
0.0736646916666667, 230.36054389664, -0.000224591437484068, 1.46875,382.754547119141
0.074331365, 230.367082541817, 1.50020280032998E-05, 1.48125,387.344543457031
0.0749978333333333, 230.373034766223, 0.000302137105516647, 1.495,387.344543457031
0.07566471, 230.37954251244, -0.000225791377176707, 1.5075,383.98486328125
0.076331395, 230.386666548341, -0.0008030583816287, 1.52125,382.3759765625
0.0769977916666667, 230.3930444959, -0.00138525713839002, 1.535,379.870025634766
0.077664245, 230.398893522458, -0.00177987831699253, 1.54875,387.185455322266
0.0783312683333333, 230.405532632567, -0.00199174117535155, 1.56125,387.185455322266
0.0789977, 230.41158221041, -0.00183367911461601, 1.575,385.625793457031
0.0796645283333333, 230.416943480519, -0.00115107090131158, 1.5875,388.243408203125
0.08033135, 230.422805021997, -0.00074900259677165, 1.60125,391.767028808594
0.0809981166666667, 230.429715693319, -0.000746046245262731, 1.61375,383.873474121094
0.0816649566666667, 230.435963186086, -0.000651988969630124, 1.62625,383.873474121094
0.082330555, 230.442462290679, -0.000435750831085417, 1.64,391.174285888672
0.0829977516666667, 230.449385549913, -0.000805120778001991, 1.65375,392.143157958984
0.08366471, 230.45604374528, -0.00100719662795068, 1.6675,391.522247314453
0.0843313133333333, 230.462192699076, -0.00104003447854354, 1.68,398.689636230469
0.08499799, 230.468233742506, -0.00106527221090984, 1.69375,398.689636230469
0.0856645566666667, 230.473232746135, -0.000863055368024742, 1.70625,390.724456787109
0.086331215, 230.478669492179, -0.000781424968241045, 1.72,394.171417236328
0.08699759, 230.483909699088, -0.00059352940600247, 1.73375,463.048431396484
0.0876644366666667, 230.489546278529, -0.000633053920754029, 1.74625,383.9697265625
0.08833154, 230.494621115336, -0.000730429029697994, 1.76,385.919586181641
0.0889973416666667, 230.500342255644, -0.000856428700884682, 1.7725,385.919586181641
0.0896638516666667, 230.505965325862, -0.00107283483104757, 1.78625,389.659271240234
0.0903312666666667, 230.511496354309, -0.00103201588134471, 1.8,390.933624267578
0.09099787, 230.516429272167, -0.00105500372668105, 1.8125,388.807464599609
0.0916644066666667, 230.522097778061, -0.000967691612280125, 1.825,388.807464599609
0.0923311816666667, 230.527968215497, -0.0011838187564615, 1.83875,388.045471191406
0.092997655, 230.533579000631, -0.000835819736055739, 1.85125,386.170104980469
0.0936647366666667, 230.539434276792, -0.000846047722346899, 1.865,392.050201416016
0.09433139, 230.545392220762, -0.000625086320984915, 1.88,395.168914794922
0.09499761, 230.551774063374, -0.000465362343776771, 1.89125,395.168914794922
0.0956656533333333, 230.557831227646, -0.000324762405940787, 1.905,388.566741943359
0.0963312066666667, 230.564713753257, -0.000368287219734711, 1.91875,387.959075927734
0.0969977183333333, 230.571289861974, -0.000294616920119366, 1.93125,393.207458496094
0.09766466, 230.578521710427, -0.000313067493349447, 1.94375,397.367645263672
0.09833131, 230.584501716855, -0.00020409646684601, 1.9575,397.367645263672
0.0989980233333333, 230.591512200587, -0.000588879639587223, 1.97125,378.538543701172
0.09966442, 230.597848872383, -0.000811730945994869, 1.985,370.907348632813
0.100331096666667, 230.605640623884, -0.0013029817709854, 1.99875,375.047271728516
0.100997606666667, 230.61322518075, -0.00157073332211981, 2.01125,369.369232177734
0.101664883333333, 230.621119914693, -0.0015899338577003, 2.025,369.369232177734
0.102331565, 230.630021946766, -0.00132101986496208, 2.03875,370.972290039063
0.102998103333333, 230.639765104792, -0.00127388173270684, 2.05125,445.625305175781
0.103665723333333, 230.648769157825, -0.000935491229707428, 2.06625,373.631011962891
0.10433299, 230.657960616457, -0.000962564869798371, 2.07875,371.117401123047
0.104998086666667, 230.667697855222, -0.000920557979755593, 2.09125,375.72900390625
0.105665033333333, 230.676506637677, -0.000792543909776518, 2.105,375.72900390625
0.106331791666667, 230.684594111554, -0.000541342527334453, 2.11875,375.361114501953
0.106997953333333, 230.692828176136, -0.000469781121770154, 2.13125,373.628540039063
0.107664565, 230.701006171346, -0.00042973313335935, 2.145,368.453918457031
0.108330796666667, 230.709786503749, -0.000538516669269871, 2.15875,368.453918457031
0.108998973333333, 230.718482427809, -0.000304451926110601, 2.17125,373.055633544922
0.109664633333333, 230.727458632276, -0.000451006564847715, 2.185,369.028045654297
0.1103313, 230.73628597475, -0.000330111137319239, 2.19875,377.050628662109
0.110997661666667, 230.745360147598, -0.000192220063423129, 2.2125,377.504608154297
0.111664398333333, 230.754423578722, -0.000497667721100204, 2.225,377.504608154297
0.11233137, 230.763427652145, -0.000748561618954584, 2.24,371.349365234375
0.112997675, 230.77250644827, -0.000676368745131497, 2.25125,369.952941894531
0.113664823333333, 230.782077982146, -0.00081500228171349, 2.26625,369.347625732422
0.114331276666667, 230.791417571472, -0.000698840616388097, 2.27875,379.220123291016
0.114997613333333, 230.800175683423, -0.000286148345472039, 2.2925,379.220123291016
0.115665085, 230.809417223434, -0.000432506494048564, 2.30625,375.634521484375
0.116331178333333, 230.818370664864, -0.000416614792275523, 2.31875,373.972686767578
0.116997933333333, 230.827547096492, -0.000517033248386305, 2.33125,371.268798828125
0.11766455, 230.836843792562, -0.00056768570413474, 2.345,369.684936523438
0.118331516666667, 230.846537024058, -0.000710657022856102, 2.35875,369.684936523438
0.11899809, 230.855810601409, -0.000287315286870315, 2.37125,367.881439208984
0.119664625, 230.865222615372, -0.000322259031686668, 2.385,443.468902587891
0.120331395, 230.874312205366, -3.06046811811576E-05, 2.39875,359.079162597656
0.120997798333333, 230.883057692289, -0.00010322503354419, 2.41125,369.452880859375
0.12166456, 230.892103747315, 2.26966415522747E-05, 2.425,359.497131347656
0.122331118333333, 230.900859766247, -6.39255074956286E-05, 2.43875,359.497131347656
0.122997845, 230.909883557046, 6.46900322754234E-05, 2.45125,361.772827148438
0.123664643333333, 230.918992658912, 4.56514885517407E-05, 2.465,352.227752685547
0.124331196666667, 230.928075671538, 0.00013924528743747, 2.47875,361.186859130859
0.124997813333333, 230.937195624244, 0.000379593214984692, 2.49125,361.186859130859
0.125664391666667, 230.946465824504, 0.000384290979002098, 2.505,353.674774169922
0.126331691666667, 230.95588319406, 0.000328885261990829, 2.5175,350.540008544922
0.126997551666667, 230.965013091656, 0.000463834983622052, 2.53125,354.263244628906
0.127664423333333, 230.974013359924, 0.000521819071150111, 2.545,355.663482666016
0.128331283333333, 230.98270562355, 0.000351535624293925, 2.55625,355.663482666016
0.128997723333333, 230.991278835071, 0.000547992756471575, 2.57,345.273986816406
0.129664568333333, 230.999234678004, 0.000617665756850853, 2.58375,357.561462402344
0.130331225, 231.007482760083, 0.000364089993674603, 2.59625,350.108459472656
0.130998186666667, 231.015771412428, 0.000396260377780488, 2.61,350.836853027344
0.131664713333333, 231.023680872715, 0.000611346574192206, 2.62375,350.836853027344
0.132331145, 231.031981996145, 0.000150883202795216, 2.63625,352.767395019531
0.1329978, 231.040390610171, 8.12357011307932E-05, 2.65,350.0947265625
0.133666305, 231.048340466703, 0.000184556511471977, 2.6625,354.030059814453
0.13433111, 231.0565743212, -1.3813024617383E-05, 2.67625,354.908294677734
0.134997736666667, 231.064748776788, -0.000262319042417949, 2.68875,354.908294677734
0.135665441666667, 231.072657326972, -5.48094315451532E-06, 2.7025,351.784942626953
0.136332511666667, 231.080651434998, -0.000231483591243504, 2.71625,430.703948974609
0.136999796666667, 231.088656349057, -0.000295102895689783, 2.72875,357.528350830078
0.137664541666667, 231.096880696221, -0.000276202345032455, 2.74125,362.774597167969
0.138331775, 231.104512125227, -0.000442755479260115, 2.755,362.774597167969
0.138997813333333, 231.112024901223, -0.000562048987249608, 2.76875,351.013000488281
0.13966616, 231.119458071567, -0.000351144580754304, 2.7825,352.4423828125
0.14033096, 231.127250072941, -0.000411536047395928, 2.795,348.865356445313
0.140997813333333, 231.134378216067, -0.000447054263364999, 2.80875,343.181518554688
0.141664618333333, 231.143106884672, -0.000387715743845749, 2.82125,343.181518554688
0.142331326666667, 231.152042342264, -0.000583106429560141, 2.835,348.515380859375
0.142997703333333, 231.161174517368, -0.000441779028282307, 2.84875,351.101470947266
0.143665336666667, 231.170210528118, -0.00032066311180279, 2.8625,357.250030517578
0.144331318333333, 231.17980453479, -0.000135771898696547, 2.87625,342.965393066406
0.14499772, 231.189215204845, -0.000255842367654452, 2.88875,342.965393066406
0.145664868333333, 231.198768260623, -7.68698572636616E-05, 2.90125,346.701965332031
0.14633118, 231.209023714359, -0.000470846068245245, 2.915,344.90576171875
0.146998815, 231.219184228695, -0.000694724823081664, 2.92875,348.732940673828
0.14766482, 231.229016941213, -0.000682366943797813, 2.94125,339.586791992188
0.148331411666667, 231.238780141135, -0.000529122641116956, 2.955,339.586791992188
0.148997828333333, 231.248204592991, -0.000423511445871932, 2.96875,343.065887451172
0.149664415, 231.257400411989, -9.2974548408236E-05, 2.9825,346.200714111328
0.150331913333333, 231.267204841268, -6.7610822392056E-05, 2.99625,337.965057373047
0.150998091666667, 231.276834511898, -0.000158404261970567, 3.00875,340.1103515625
0.15166466, 231.286441176354, -0.000388471705915024, 3.02125,340.1103515625
0.152331368333333, 231.295834677335, -0.00047535634179726, 3.03625,339.480224609375
0.152997643333333, 231.305459509936, -0.000871661935802185, 3.05,404.372619628906
0.153666363333333, 231.314515940678, -0.000973113839954336, 3.06375,340.792144775391
0.154330963333333, 231.323584842748, -0.000978179085535556, 3.075,334.501342773438
0.154998126666667, 231.332560447661, -0.000873743831213973, 3.08875,334.501342773438
0.155664451666667, 231.342179175866, -0.00113365527613229, 3.1025,339.353698730469
0.156331251666667, 231.351300845823, -0.000896952165480097, 3.11625,341.456329345703
0.156997598333333, 231.360396076824, -0.000735720763970376, 3.13,340.859771728516
0.157664941666667, 231.369467996683, -0.000645120814703648, 3.14375,339.208374023438
0.158331273333333, 231.378266475648, -0.000356284822640703, 3.15625,339.208374023438
0.158997606666667, 231.386901278558, -0.00025582886841984, 3.16875,345.666076660156
0.159664588333333, 231.395799046296, -0.000130742651364768, 3.1825,349.290069580078
