Time (min), Depth (µm), Load (N), Position (µm), Acoustic (aJ)
7.78833333333333E-06, 229.37559105493, -0.00104554212477754, 0,623.458129882813
0.000664725, 229.37546637268, -0.000729259011340969, 0.005,623.458129882813
0.00133113666666667, 229.375736582683, -0.000325990767087146, 0.01875,618.068725585938
0.00199926833333333, 229.378101151399, -0.000245260322072928, 0.035,638.0029296875
0.00266430666666667, 229.381882283898, 6.58302809874775E-06, 0.05,638.681274414063
0.00333070666666667, 229.387699272096, 0.000259698314376927, 0.0625,639.194580078125
0.00399768, 229.39481982441, 0.000367476900767233, 0.07625,639.194580078125
0.00466396333333333, 229.403974888966, 0.000469330784723219, 0.09,650.160278320313
0.005331475, 229.412901707024, 0.000624238503843592, 0.10375,649.471557617188
0.005997325, 229.422098142738, 0.000577485852181251, 0.1175,648.566955566406
0.00666414666666667, 229.430802710196, 0.000350649245954018, 0.13,652.6376953125
0.00733167333333333, 229.439176673518, 0.000200953764985129, 0.14375,652.6376953125
0.00799768, 229.446333373959, -3.26145031329005E-05, 0.15625,781.081237792969
0.00866405, 229.452776605715, 1.08458139329376E-05, 0.17,643.560668945313
0.00933063166666667, 229.457554386424, -3.74442604977923E-05, 0.1825,658.969909667969
0.00999730833333333, 229.462505346803, 0.000130523302654681, 0.195,672.168518066406
0.0106648716666667, 229.468128809175, 0.000124718594215131, 0.21,672.168518066406
0.0113313283333333, 229.475106060866, 5.63850265405025E-05, 0.2225,671.370178222656
0.0119991266666667, 229.482898546708, 0.00018976582694836, 0.23625,688.327514648438
0.012664615, 229.49255691181, 9.63970167443738E-05, 0.25,677.774536132813
0.01333143, 229.502738774311, -2.11085810376245E-05, 0.2625,684.804870605469
0.01399797, 229.513051246143, -4.71307739731052E-05, 0.275,684.804870605469
0.01466392, 229.523015176932, -0.000281255514108506, 0.28875,684.470092773438
0.015331175, 229.532794003505, -0.000301363504101744, 0.3025,692.383972167969
0.0159979783333333, 229.542806265558, -0.00012088806920384, 0.31625,699.442321777344
0.0166647166666667, 229.552853103422, -4.13845625852818E-05, 0.32875,700.839965820313
0.0173307066666667, 229.563591997496, 9.01440591774831E-06, 0.3425,700.839965820313
0.017998005, 229.574182534905, 0.000204207101589656, 0.355,717.600280761719
0.01866457, 229.585169655998, -2.42779218330607E-05, 0.36875,710.88427734375
0.01933171, 229.595889936419, -2.05071112031394E-05, 0.3825,719.033935546875
0.0199980316666667, 229.606616853635, -9.85046934657774E-05, 0.395,719.368408203125
0.0206646233333333, 229.617509605091, -0.000330412544971843, 0.40875,719.368408203125
0.02133065, 229.628419766595, -0.000528594590489543, 0.4225,721.159851074219
0.0219976783333333, 229.639182214316, -0.000640617963684961, 0.43625,716.612854003906
0.022665005, 229.650301306079, -0.000546314700492729, 0.45,715.799194335938
0.02333125, 229.661359281597, -0.000436214230701098, 0.46125,715.389221191406
0.0239972816666667, 229.67214550637, -0.00015197250785048, 0.475,715.389221191406
0.0246640183333333, 229.683301187058, -0.000242048983436709, 0.49,860.312377929688
0.025331175, 229.694724150901, -0.000444490815024808, 0.5025,723.389587402344
0.0259976966666667, 229.706014086616, -0.00073109191932307, 0.51625,712.075927734375
0.0266649783333333, 229.717646936147, -0.00116894692630026, 0.53,720.388977050781
0.0273317433333333, 229.728968475712, -0.00149444107707003, 0.5425,720.388977050781
0.0279978883333333, 229.740386808627, -0.00124837693662305, 0.55625,718.758850097656
0.0286640083333333, 229.751368773443, -0.000869086487981751, 0.57,722.172546386719
0.0293312183333333, 229.762601253097, -0.000718041074837389, 0.585,717.11083984375
0.0301650466666667, 229.774023430131, -0.000618527073333059, 0.6,716.046325683594
0.0308314016666667, 229.785201407192, -0.000164189394261679, 0.6125,715.408325195313
0.0314979683333333, 229.796835750269, -0.000224765351562395, 0.62625,715.408325195313
0.0321642016666667, 229.808558691998, -0.000324217856123684, 0.64,719.824523925781
0.0328313433333333, 229.820151596605, -0.000439539563613219, 0.65375,724.494323730469
0.03349795, 229.831475149984, -0.000345066808899656, 0.66625,715.273803710938
0.0341646883333333, 229.84340968472, -0.000270616548445837, 0.68,713.0947265625
0.0348306733333333, 229.854463454669, -0.000190093093063031, 0.6925,713.0947265625
0.0354973183333333, 229.866333969217, -0.000201979996020497, 0.70625,726.323059082031
0.0361640016666667, 229.877404753553, 0.000183617635820464, 0.72,711.701965332031
0.0368307633333333, 229.889209734867, 0.000454229543259474, 0.73375,711.035095214844
0.0374974383333333, 229.900273107843, 0.00037076623551493, 0.74625,712.638793945313
0.0381646416666667, 229.911830649742, 0.000629950216970141, 0.76,712.638793945313
0.038831185, 229.923158046019, 0.000502279629743174, 0.77375,712.32763671875
0.03949769, 229.935152753673, 0.000176290503814049, 0.78625,711.709411621094
0.0401640733333333, 229.946359900418, -0.000267151722521705, 0.80125,848.332885742188
0.0408315083333333, 229.957957588997, -0.000443154382062693, 0.8125,700.907043457031
0.0414978333333333, 229.969089584928, -0.000652464368662285, 0.82625,700.907043457031
0.0421639216666667, 229.980252152396, -0.000775176204983172, 0.83875,699.028625488281
0.0428306666666667, 229.99137343309, -0.000703545802896322, 0.85125,703.144775390625
0.0434977083333333, 230.002553000304, -6.61738174699977E-05, 0.86625,697.442810058594
0.0443313233333333, 230.020039359805, -0.000128230200454287, 0.8825,705.576782226563
0.0449974633333333, 230.031344433686, 5.78054552054369E-05, 0.895,696.158630371094
0.0456646583333333, 230.042658878968, 0.000229005356020792, 0.9075,696.158630371094
0.046330685, 230.053580505324, 0.000247280438074437, 0.92125,698.675659179688
0.046997705, 230.064915936573, 8.18087495540669E-05, 0.935,695.8642578125
0.0476640316666667, 230.075434551017, 8.70092169621335E-06, 0.9475,700.908081054688
0.0483311883333333, 230.086792224908, 4.78159569581578E-05, 0.96,696.892517089844
0.0489976566666667, 230.097382355287, 0.000308528361656592, 0.97375,696.892517089844
0.0496639866666667, 230.108492256212, 0.000121735244088207, 0.9875,694.792541503906
0.0503315183333333, 230.119203685918, -8.11265663753126E-05, 1.00125,703.456848144531
0.0509974533333333, 230.129979312754, -0.000150537079962767, 1.015,704.861633300781
0.05166458, 230.140710317506, -0.000432984892908277, 1.02625,714.002685546875
0.0523311783333333, 230.15137338447, -0.000468825592666558, 1.04,714.002685546875
0.0529975783333333, 230.161846817157, -0.000416443723762355, 1.05375,717.833740234375
0.0536639733333333, 230.171908891765, -0.000483716844713847, 1.06625,714.263488769531
0.054331375, 230.182288914352, -0.000134898865520147, 1.08,716.234497070313
0.0549973283333333, 230.192173030528, 2.11727951709496E-05, 1.09375,721.229553222656
0.055664465, 230.202795471246, 1.95753754051768E-05, 1.1075,721.229553222656
0.0563321583333333, 230.213195584239, -0.000196199286477669, 1.12,715.554809570313
0.0569978166666667, 230.224615951245, -0.000238092182202037, 1.13375,859.640380859375
0.0576648283333333, 230.235206347491, -0.00023047256489448, 1.14625,715.904235839844
0.0583308683333333, 230.246276541999, -0.000195882802322311, 1.16,708.984985351563
0.0589977466666667, 230.256597079767, -0.000230676554655831, 1.1725,708.984985351563
0.0596646783333333, 230.267161814116, -7.71247673872896E-05, 1.18625,707.646545410156
0.0603312916666667, 230.277078354586, 0.000256435978183472, 1.19875,711.501770019531
0.0609985166666667, 230.288719269965, 0.000268726360847923, 1.21625,712.06103515625
0.0616652766666667, 230.299984401142, 0.000200968764250416, 1.22625,707.260314941406
0.0623312483333333, 230.31079049928, 1.76869703264261E-05, 1.24,707.260314941406
0.0629977383333333, 230.321101666709, 0.00019837689443525, 1.25375,709.189819335938
0.0636639766666667, 230.331900661504, 0.000110290818935972, 1.2675,707.056274414063
0.0643323116666667, 230.340474580862, 2.95438747533185E-05, 1.28125,704.449768066406
0.06499772, 230.349328061663, 8.33371727547817E-05, 1.29375,701.465026855469
0.0656640133333333, 230.358299268532, 4.83409305630603E-05, 1.3075,701.465026855469
0.0663307633333333, 230.367361368461, -0.000151588527203246, 1.32125,706.969543457031
0.0669978433333333, 230.375458818228, -0.000371952958567717, 1.33375,696.382141113281
0.0676640866666667, 230.384223179834, -0.000213742405295001, 1.3475,697.350769042969
0.06833103, 230.391979032681, -0.000237042234949724, 1.36125,708.199035644531
0.0689977283333333, 230.400010182244, -1.70692839607742E-05, 1.37375,708.199035644531
0.0696649616666667, 230.408336555235, -0.000111717529872026, 1.3875,702.571166992188
0.0703306466666667, 230.416557361417, -5.49573808695668E-05, 1.40125,705.069152832031
0.07099809, 230.424196350112, -0.00027167699525399, 1.415,701.306945800781
0.071664655, 230.432202190884, -0.000433574363326282, 1.4275,706.233520507813
0.0723320933333333, 230.440388505195, -0.00105689955435689, 1.44125,706.233520507813
0.0729973816666667, 230.44760987764, -0.00101656958007326, 1.455,701.736328125
0.0736646416666667, 230.454969391276, -0.000929416457680333, 1.46875,843.871337890625
0.0743306983333333, 230.462092723094, -0.000880671906049145, 1.48125,709.170043945313
0.0749973316666667, 230.469316792671, -0.000596350687205154, 1.495,704.433837890625
0.0756642083333333, 230.475915990509, -0.000109649133716106, 1.5075,704.433837890625
0.07633119, 230.482708842296, -0.000309275606710446, 1.52125,702.864929199219
0.076997735, 230.490131655689, -0.000437712655456256, 1.535,705.529602050781
0.0776639766666667, 230.497203056452, -0.000616001200234145, 1.54875,713.021362304688
0.0783314216666667, 230.504196800961, -0.000768671031783538, 1.56,707.09765625
0.07899791, 230.510965796465, -0.000624106793069612, 1.575,707.09765625
0.0796641383333333, 230.518677566667, -0.000330876021697467, 1.5875,710.392517089844
0.080331335, 230.525501915022, -0.000339605583212214, 1.60125,710.945251464844
0.0809973183333333, 230.533027515516, -0.000168509177223192, 1.61375,714.932434082031
0.0816648283333333, 230.540170101671, -0.000409986548079863, 1.6275,722.860412597656
0.0823316983333333, 230.547792518344, -0.000611585422004552, 1.64125,722.860412597656
0.0829977283333333, 230.554806662988, -0.000885158180746945, 1.655,727.140075683594
0.083664785, 230.562254694717, -0.00116738850461148, 1.6675,720.412475585938
0.084330715, 230.569894633175, -0.00114423566754827, 1.68125,722.988647460938
0.0849979783333333, 230.577337749188, -0.000855302180356606, 1.69375,715.154418945313
0.085665255, 230.585434657826, -0.00104511014650689, 1.7075,715.154418945313
0.0863313666666667, 230.593231528989, -0.00116607607048232, 1.72125,714.841857910156
0.0869977983333333, 230.600884601366, -0.00108709453764111, 1.73375,710.063842773438
0.087664705, 230.608337337882, -0.00129126878219128, 1.7475,709.760986328125
0.0883326383333333, 230.616466489598, -0.00188838128984469, 1.76,707.575317382813
0.08899738, 230.624071640263, -0.00188312555382174, 1.7725,707.575317382813
0.0896639866666667, 230.631904036213, -0.00162207116631686, 1.78625,707.136535644531
0.0903314616666667, 230.638784012301, -0.00151841437288809, 1.8,849.621704101563
0.090997705, 230.646069843079, -0.00147463757173066, 1.81375,713.183532714844
0.0916642216666667, 230.652872437067, -0.000859753956686861, 1.825,704.898193359375
0.092330705, 230.659721034566, -0.000807510080849012, 1.84,704.898193359375
0.0929974433333333, 230.66637157563, -0.000829917455335019, 1.8525,702.673461914063
0.0936649983333333, 230.673385876681, -0.000607426130847916, 1.86625,704.160888671875
0.09433064, 230.680238445809, -0.000436995691400212, 1.88,710.570739746094
0.094997955, 230.687647984547, -0.000888674004100788, 1.89125,706.813415527344
0.0956645883333333, 230.694163245942, -0.00055547474035372, 1.905,706.813415527344
0.096330675, 230.700714905805, -0.000420588015568688, 1.91875,710.684875488281
0.096997705, 230.707342178225, -0.000219506615690647, 1.93125,710.630615234375
0.0976639866666667, 230.713834244956, -8.39764232516009E-05, 1.945,718.172424316406
0.0983312816666667, 230.720144989384, 0.000156163014846077, 1.95875,690.718811035156
0.0989974733333333, 230.727118480252, 0.000114222121519551, 1.97125,690.718811035156
0.0996639966666667, 230.734783185752, 0.00015784593032409, 1.985,687.261962890625
0.100331203333333, 230.742228857031, -0.000292096969501852, 1.99875,692.526306152344
0.100997431666667, 230.74905085297, -0.000313545892145398, 2.01125,691.380615234375
0.101664045, 230.755609823069, -0.000295608293146247, 2.025,691.5908203125
0.102331346666667, 230.761711362162, -0.000288801635056542, 2.03875,691.5908203125
0.102997726666667, 230.766917469296, -0.000330067562295332, 2.05125,686.716003417969
0.10366416, 230.772952003389, 4.73662081827177E-06, 2.06625,689.418762207031
0.104330621666667, 230.779003135998, -3.7924236349343E-05, 2.07875,687.4091796875
0.10499845, 230.785135640241, 4.91463901801508E-05, 2.09125,684.146667480469
0.105664658333333, 230.791338916867, -0.000156010305002927, 2.105,684.146667480469
0.106332653333333, 230.797900775387, -0.000239095631691579, 2.1175,692.287048339844
0.106997725, 230.804048252955, -0.000562806372048327, 2.1325,829.622131347656
0.107664193333333, 230.810405747266, -0.000862923297524805, 2.14625,688.600769042969
0.108330651666667, 230.816911020943, -0.00117617806305984, 2.1575,692.6875
0.108998361666667, 230.823350664575, -0.00104780551108463, 2.17125,692.6875
0.109665033333333, 230.829468639063, -0.00125476961553495, 2.18625,683.50341796875
0.110331095, 230.835548450441, -0.00119956488839372, 2.19875,690.491882324219
0.110997335, 230.84175565644, -0.000925530152850107, 2.2125,688.029418945313
0.111664018333333, 230.848039020064, -0.000866910097268796, 2.225,689.352661132813
0.112330781666667, 230.854156421525, -0.000890430415853306, 2.24,689.352661132813
0.112997783333333, 230.860496205026, -0.000781970863635143, 2.2525,694.298095703125
0.113664665, 230.867274757775, -0.00108509663797465, 2.26625,687.782470703125
0.114331228333333, 230.87402784003, -0.00146142773523698, 2.28,687.494812011719
0.114997701666667, 230.880327043315, -0.00155867835047673, 2.2925,687.2041015625
0.115664775, 230.88681520748, -0.00176158815852115, 2.30625,687.2041015625
0.116330736666667, 230.893432263951, -0.00195971920658788, 2.32,693.277221679688
0.116997958333333, 230.899706624393, -0.00156943431020034, 2.3325,686.667724609375
0.11766408, 230.906505391123, -0.0014094178476698, 2.34625,683.623901367188
0.118330598333333, 230.913190829833, -0.00119633555053714, 2.35875,677.820068359375
0.1189978, 230.920003792515, -0.00075542369709476, 2.3725,677.820068359375
0.119665038333333, 230.927306008591, -0.000536635686596924, 2.385,677.877380371094
0.120330676666667, 230.93448484765, -0.00066082944844077, 2.39875,677.06103515625
0.120997711666667, 230.941013055306, -0.000469118077925193, 2.4125,681.333801269531
0.121664633333333, 230.94803023009, -0.000216863748424516, 2.425,675.509338378906
0.12233127, 230.954922568613, -0.000374847813027324, 2.43875,675.509338378906
0.122997856666667, 230.961404882909, -0.000214648359677077, 2.45125,802.39453125
0.123664036666667, 230.967668025181, 0.000258064896404222, 2.465,661.508728027344
0.124331206666667, 230.974699040187, 0.000354409557155624, 2.48,668.702697753906
0.124997308333333, 230.981691127528, 0.000205549534249383, 2.49125,661.254943847656
0.12566413, 230.989063732786, 0.000297973391888031, 2.505,661.254943847656
0.126331361666667, 230.996371661801, 0.000309326321609158, 2.5175,659.308044433594
0.126997643333333, 231.004123850633, 6.83694246266883E-05, 2.53125,658.733642578125
0.127663996666667, 231.011251723669, -0.000199167637275544, 2.545,656.653686523438
0.128330845, 231.018483853334, 2.6389533223169E-05, 2.5575,659.126220703125
0.128998016666667, 231.026315955221, -9.5989319795178E-05, 2.57125,659.126220703125
0.129664966666667, 231.033853046255, 5.50980912537287E-05, 2.585,654.26513671875
0.130331505, 231.040993255694, 0.000261486224584422, 2.5975,661.664916992188
0.130997683333333, 231.048337483808, 0.000558771292277451, 2.61,664.607666015625
0.131664531666667, 231.055926961495, 0.000378690337561365, 2.62375,661.082580566406
0.132330666666667, 231.0626893768, 0.000576146419540363, 2.63625,661.082580566406
0.132997535, 231.069919509747, 0.00058888827953521, 2.65,653.883117675781
0.133664056666667, 231.07767677534, 0.000601390151583028, 2.66375,657.822998046875
0.13433071, 231.085617701326, 0.000493850053215349, 2.67625,663.199951171875
0.134997958333333, 231.092963004118, 0.000254883556234814, 2.69,661.115112304688
0.135663968333333, 231.100974530945, 0.000148220913791819, 2.7025,661.115112304688
0.136331563333333, 231.108612947244, 0.000283010143448131, 2.715,665.937866210938
0.136998281666667, 231.116576411865, -8.33734535139666E-05, 2.73,675.025939941406
0.137665143333333, 231.124345084058, -0.000156634273703461, 2.74125,676.172241210938
0.138332311666667, 231.132244497214, 6.76974583452501E-05, 2.755,666.780883789063
0.138997708333333, 231.139760685692, 0.000217625427639152, 2.76875,666.780883789063
0.139664003333333, 231.148052301816, -4.87431929191483E-05, 2.78125,790.632751464844
0.140331328333333, 231.156529401473, -8.74020221918828E-06, 2.79625,657.9072265625
0.140997703333333, 231.165733406702, -0.000313496394597582, 2.81,658.847045898438
0.14166402, 231.175773143167, -0.00067010498252332, 2.82125,663.811218261719
0.142331201666667, 231.18574596076, -0.000642801853913662, 2.835,663.811218261719
0.142997346666667, 231.195770236353, -0.000723841283376205, 2.84875,663.985412597656
0.143664613333333, 231.205670210073, -0.000483610349932437, 2.8625,663.92724609375
0.144330695, 231.216041024057, -0.000273830886973371, 2.87625,666.523742675781
0.144997693333333, 231.226015325581, -1.21208034273725E-06, 2.88875,659.70849609375
0.145664685, 231.236872534934, -5.16020493206019E-05, 2.9025,659.70849609375
0.146330681666667, 231.247667417713, -0.000128363693662415, 2.91625,661.76123046875
0.14699791, 231.258995579458, -0.000129845619227882, 2.93,664.88916015625
0.147664011666667, 231.270173564007, 3.77904605889629E-05, 2.9425,658.973205566406
0.148331315, 231.281816094824, 1.8574925828204E-05, 2.955,653.54541015625
0.14899747, 231.293167406788, -0.000118863170791852, 2.96875,653.54541015625
0.14966408, 231.304289648532, 0.000118654398938833, 2.9825,660.926147460938
0.150330865, 231.315188319299, 1.19977562147053E-05, 2.99625,651.663879394531
0.150997551666667, 231.326050964665, -1.77832479342165E-05, 3.00875,655.144836425781
0.151664093333333, 231.336740958238, 0.000166172012153107, 3.0225,658.637939453125
0.152331191666667, 231.347380516492, 0.000215983010183789, 3.03625,658.637939453125
0.15299773, 231.35848031321, -0.000286599745607477, 3.05,646.875427246094
0.153664363333333, 231.369582567694, -0.000107759228564173, 3.06375,657.226135253906
0.154330706666667, 231.380341586154, -0.000238900641476647, 3.07625,657.065856933594
0.154997875, 231.39107937209, -0.00019721773518999, 3.09,654.143981933594
0.155664891666667, 231.402371240395, -0.000667592608722781, 3.1025,654.143981933594
0.156330618333333, 231.413722449779, -0.000794369240877882, 3.11625,787.184997558594
0.156997885, 231.424713665714, -0.00105648707501847, 3.13,654.043273925781
0.157664653333333, 231.435927737448, -0.00146344663384508, 3.14375,650.7607421875
0.158330688333333, 231.447338712938, -0.00193104814668866, 3.15625,656.766540527344
0.158997695, 231.458222531801, -0.00147478006459147, 3.17,656.766540527344
0.159664038333333, 231.469028907444, -0.00109219278153795, 3.18375,653.886596679688
0.160331288333333, 231.480022864738, -0.00112591858752632, 3.19625,655.158813476563
