Time (min), Depth (µm), Load (N), Position (µm), Acoustic (aJ)
9.46666666666667E-06, 223.018795572162, 0.000972503633933215, 0,14.1060476303101
0.000666535, 223.018922326693, 0.000941135709531851, 0.0025,60.3922958374023
0.00133293166666667, 223.018748210684, 0.000614479117158261, 0.00875,0
0.001999725, 223.017535982477, 0.000451126822117251, 0.015,0
0.00266656333333333, 223.016644816214, 0.000446283565411476, 0.0225,425910.8125
0.00333282, 223.01586854385, 0.00035453167396925, 0.03125,0
0.00399969833333333, 223.01614264062, 0.000289604435209535, 0.0375,39.6822929382324
0.004666485, 223.017352733246, 1.32373168150285E-05, 0.04375,0
0.00533432333333333, 223.019868587716, -0.000189696489998593, 0.05,13.0746841430664
0.00599970333333333, 223.02185127581, -8.57757098323434E-05, 0.0575,439372.8125
0.00666625166666667, 223.024271194786, -4.74421352695127E-05, 0.06375,0
0.00733281666666667, 223.027602938567, -0.00010460276413015, 0.07125,0
0.00799956166666667, 223.030270374114, 0.000269256457290522, 0.0775,14.5442676544189
0.00866635333333333, 223.032772919512, 0.000700199811448519, 0.085,0
0.00933292166666667, 223.0365592783, 0.000535098604319516, 0.09125,441420.875
0.00999972166666667, 223.040054201898, 0.000734483589442423, 0.0975,0
0.0106663683333333, 223.043883736511, 0.000844867544925015, 0.105,42.7795448303223
0.0113328766666667, 223.048123306956, 0.000747234448941181, 0.11125,0
0.01199991, 223.053999047845, 0.000556472530742899, 0.1175,0
0.0126664016666667, 223.058994643326, 0.000592853203350114, 0.12375,429959.375
0.0133346866666667, 223.064429694169, 0.000178680506792991, 0.13,0
0.014000035, 223.06966346396, 0.000252829282399247, 0.1375,0
0.0146662283333333, 223.075348825137, 0.000181936843246325, 0.14375,0
0.015332825, 223.080372819146, 0.000147900552842721, 0.15,17.8402881622314
0.0159997766666667, 223.085962665008, 0.000230381409911844, 0.15625,446742.53125
0.016666225, 223.091610871185, 0.000345599622638809, 0.16375,0
0.01733291, 223.097390608572, 0.000220139924343564, 0.17,0
0.0179995383333333, 223.102873597345, 0.000430856840267207, 0.1775,0
0.0186664166666667, 223.108029451574, 0.00069774893452726, 0.18375,0
0.01933286, 223.113793008021, 0.000737780423790882, 0.18875,453294.3125
0.0199996816666667, 223.118917982863, 0.0006876304427813, 0.19625,0
0.0206664133333333, 223.1244812423, 0.0005456145760961, 0.20375,0
0.0213329133333333, 223.130221147691, 0.000519089908358004, 0.20875,0
0.0219997916666667, 223.135903384037, 9.43742414275459E-05, 0.21625,0
0.0226662416666667, 223.141157865927, -0.000130380469366646, 0.22375,428616.3125
0.023332855, 223.14696746885, -9.03549798431453E-05, 0.22875,0
0.02400025, 223.15214058585, -6.09384574092315E-05, 0.235,13.9074640274048
0.0246670383333333, 223.156941832786, -0.000160417960609779, 0.24375,0
0.0253328816666667, 223.161694981288, 0.000119512978698221, 0.24875,0
0.02599946, 223.167472411415, 0.000184788199983254, 0.255,441541.8125
0.0266669533333333, 223.172371259009, 1.50282268288216E-05, 0.2625,17.3344764709473
0.0273327783333333, 223.177155222149, 0.000106691622646238, 0.26875,0
0.02800042, 223.1824417936, -0.000171319413170542, 0.275,14.5259275436401
0.02866638, 223.187626061595, -0.000269009506239191, 0.28125,0
0.0293328583333333, 223.191655764568, -0.000258567030715858, 0.28875,455611.53125
0.0300003216666667, 223.196611609353, -0.000275166696934762, 0.295,0
0.030666245, 223.201878294996, -0.000770053339295158, 0.30125,0
0.0313332833333333, 223.20760010598, -0.000782127732845539, 0.3075,0
0.0319995283333333, 223.212259204785, -0.00112932579349243, 0.315,0
0.0326661483333333, 223.21796816004, -0.00114366807314437, 0.32125,443459.78125
0.0333328333333333, 223.222866569667, -0.00122966625351299, 0.3275,0
0.0339994316666667, 223.227353151981, -0.000886816474518798, 0.33375,0
0.034666825, 223.23147174262, -0.000740978799816474, 0.34125,5.38490390777588
0.0353328216666667, 223.236813802616, -0.000649375400932679, 0.3475,74.0797653198242
0.0359996683333333, 223.241629520883, -0.000723173194143556, 0.35375,427420.15625
0.0366667083333333, 223.246774673045, -0.000707258993483212, 0.36125,0
0.0373330366666667, 223.252286305914, -0.000597526005255396, 0.3675,13.1095962524414
0.0379998883333333, 223.257528255389, -0.000567517012533416, 0.37375,0
0.03866628, 223.262205655342, -0.000767966944152669, 0.38,0
0.0393328366666667, 223.26665646572, -0.000314937199352217, 0.3875,443589.625
0.0399996883333333, 223.272149572134, -8.69516508195468E-05, 0.39375,0
0.04066622, 223.277052909028, -0.000154782743734067, 0.4,11.9320688247681
0.0413344133333333, 223.283030431795, -0.000262913812444155, 0.40875,0
0.0419997933333333, 223.288659528896, 3.60181724987001E-05, 0.4125,0
0.0426664983333333, 223.294197154029, -0.000442169808610924, 0.41875,434840.4375
0.04333289, 223.299035120178, -0.000925970507815227, 0.425,16.6976699829102
0.04399994, 223.304083663979, -0.00134368752633236, 0.43375,0
0.044666365, 223.308998696568, -0.0017650343625005, 0.44,0
0.04533286, 223.313826544718, -0.00215590122968403, 0.44625,0
0.0460009916666667, 223.319310436393, -0.00215443130351379, 0.45375,449632.4375
0.0466665183333333, 223.324557660173, -0.0019075707030599, 0.46,0
0.0473328766666667, 223.329842157592, -0.00174628680417481, 0.46625,36.4798393249512
0.047999635, 223.334298618384, -0.00144215008063872, 0.4725,0
0.0486662216666667, 223.339190410641, -0.00120957626254883, 0.48,0
0.0493328333333333, 223.343291510936, -0.00107104922062072, 0.48625,436982.0625
0.0500009233333333, 223.347918240921, -0.00117383605774682, 0.4925,0
0.0506665433333333, 223.352431998983, -0.00119563446281884, 0.49875,0
0.051333235, 223.357976291745, -0.00127823681378588, 0.50625,0
0.0519998333333333, 223.363126524751, -0.00111668742826016, 0.5125,25.7674713134766
0.0526664366666667, 223.368421573419, -0.00136507795186042, 0.51875,447345.4375
0.053332895, 223.374028896666, -0.00108895832105621, 0.52625,0
0.053999785, 223.379210154865, -0.000988334375302184, 0.53375,0
0.0546664266666667, 223.384136053143, -0.0010481108728322, 0.53875,0
0.0553331216666667, 223.389106528875, -0.00120521748153158, 0.545,0
0.055999565, 223.394020160158, -0.000835097572285852, 0.5525,431560.28125
0.0566662083333333, 223.397945032147, -0.000887039963254883, 0.55875,0
0.057332835, 223.402617331775, -0.000698844416156911, 0.565,0
0.0579996683333333, 223.407138765723, -0.000257886065015525, 0.5725,0
0.0586666766666667, 223.411468866386, -9.27038619474914E-05, 0.57875,35.1953392028809
0.0593328016666667, 223.416017254428, -7.99815009698864E-05, 0.585,442095.46875
0.0599996883333333, 223.421358923097, -0.000106773155251763, 0.5925,0
0.06066635, 223.425735309791, -0.000160549954063536, 0.59875,0
0.06133315, 223.429392038132, -0.000126995139499649, 0.605,0
0.0620004066666667, 223.434551407987, -2.45217866163381E-05, 0.61125,66.7893753051758
0.0626667883333333, 223.438408624205, -0.000122829848730417, 0.61875,443677.53125
0.063332875, 223.442633683969, 8.14823888861022E-05, 0.62625,0
0.0639995316666667, 223.447347472643, 0.000499446894972284, 0.63125,75.0310592651367
0.0646676566666667, 223.452158572873, 0.000653121676041892, 0.6375,0
0.0653329016666667, 223.456439293944, 0.000514960615731942, 0.645,0
0.0659995766666667, 223.461344117398, 0.000554507629328295, 0.6525,430999.15625
0.0666662033333333, 223.466417101693, 0.00040616058063173, 0.6575,0
0.067332855, 223.470785538653, -7.88880559311328E-05, 0.665,0
0.0679995216666667, 223.47531479107, -0.000457119557752449, 0.67125,14.6364374160767
0.0686663866666667, 223.47988425461, -0.000513194241175095, 0.6775,0
0.0693329183333333, 223.484206348228, -0.000219266004870418, 0.685,418133.90625
0.0700001066666667, 223.487759337295, -2.80616088669037E-05, 0.69125,0
0.07066632, 223.492124155028, 9.00154602827687E-05, 0.6975,0
0.0713331833333333, 223.49608310549, 0.000186789099456011, 0.705,0
0.0719997533333333, 223.49967242197, 0.00020749555939242, 0.71,21.7183685302734
0.0726663666666667, 223.503789268082, -0.00026362777658763, 0.71875,430542.375
0.073332865, 223.507981142116, -0.000330860399580234, 0.725,18.6646881103516
0.073999575, 223.512408043765, -0.000431929822988301, 0.73,0
0.0746664066666667, 223.516914213645, -0.000651025318031312, 0.7375,0
0.07533284, 223.521938928821, -0.000757953447114938, 0.745,0
0.07600011, 223.527379665415, -0.000919382838667143, 0.75,459729
0.0766669766666667, 223.532543327603, -0.00130787382514958, 0.7575,0
0.07733293, 223.537537663943, -0.00134100116121603, 0.765,0
0.0779996883333333, 223.542710378753, -0.00110241564516145, 0.77125,0
0.0786663716666667, 223.547555688448, -0.000910588780445564, 0.7775,17.2742385864258
0.0793329883333333, 223.551909491925, -0.000973453622831988, 0.785,440307.5
0.079999705, 223.556223635988, -0.000963242135751773, 0.79125,107.566627502441
0.0806663666666667, 223.560676711703, -0.00112130719633612, 0.79625,0
0.0813328183333333, 223.564833028505, -0.00131895076888678, 0.80375,16.0921497344971
0.081999575, 223.56949361848, -0.00134503595860469, 0.81,98.1992645263672
0.08266667, 223.573470372838, -0.00097298264644184, 0.81625,451418.6875
0.0833328583333333, 223.577741432179, -0.00119654491714416, 0.82375,0
0.083999725, 223.582325964763, -0.00101808688088744, 0.83125,0
0.0846663316666667, 223.587668885744, -0.0010180913806394, 0.83625,0
0.0853328233333333, 223.59206195196, -0.00125513197436734, 0.8425,0
0.0859997166666667, 223.597676853171, -0.00166994213888086, 0.85,446429.625
0.08666638, 223.602846081795, -0.00160477941192608, 0.8575,0
0.087332845, 223.607561929987, -0.00150747929920227, 0.86375,0
0.0879997716666667, 223.612032094292, -0.00161190105420423, 0.87,15.9184236526489
0.0886663116666667, 223.61605467714, -0.00161997364872408, 0.87625,0
0.089333485, 223.620057480575, -0.00145952070812843, 0.88375,433773.46875
0.0899995083333333, 223.623650796905, -0.00122645941454371, 0.89,0
0.0906662066666667, 223.627728074724, -0.00131163263636302, 0.89625,0
0.0913332283333333, 223.630973084113, -0.0011968389023697, 0.90375,15.9569692611694
0.0919997766666667, 223.635685424725, -0.00113043723764528, 0.91,0
0.0926661083333333, 223.639800586747, -0.00116280411186925, 0.91625,463622.6875
0.0933334, 223.644187713622, -0.00161682680679469, 0.9225,0
0.0939997383333333, 223.648434357572, -0.0019960947565912, 0.92875,0
0.094666935, 223.652724069514, -0.0021308374885485, 0.93625,0
0.0953331716666667, 223.656333276804, -0.0025632087710147, 0.9425,0
0.0960002, 223.660359056811, -0.00244618764887872, 0.95,444065.8125
0.0966668666666667, 223.664358185045, -0.00217469228579616, 0.95625,0
0.0973329183333333, 223.667557157798, -0.00182285945797805, 0.9625,0
0.0979995766666667, 223.671463833982, -0.00175718825656554, 0.9675,0
0.09866623, 223.674432385049, -0.00122589694272246, 0.975,0
0.0993329566666667, 223.677536212251, -0.00075498059637382, 0.9825,458355.59375
0.1000005, 223.681147198794, -0.000711259292461815, 0.98875,85.7208938598633
0.100666586666667, 223.68534939853, -0.000705426085458603, 0.995,16.5206890106201
0.101333083333333, 223.688970583321, -0.000538806954557199, 1.0025,0
0.101999726666667, 223.693522511542, -0.000780168831213565, 1.00875,17.3545837402344
0.10266645, 223.698037509211, -0.0013407416742305, 1.015,454041.46875
0.10333349, 223.701919788385, -0.00141827277996122, 1.0225,0
0.103999703333333, 223.705816158157, -0.00148553690134504, 1.03,16.8161869049072
0.104666378333333, 223.709890768864, -0.00154536439630477, 1.035,0
0.10533297, 223.713898742441, -0.00148660334778704, 1.04,0
0.105999661666667, 223.717848116567, -0.00138225808892965, 1.0475,435886
0.106666628333333, 223.721945030413, -0.0012732570639169, 1.055,13.0746841430664
0.107333096666667, 223.726587260374, -0.00131758433739409, 1.06125,74.6672210693359
0.107999663333333, 223.731586162763, -0.00157730979166515, 1.0675,0
0.108666563333333, 223.735910815054, -0.00177555933380225, 1.07375,0
0.109332931666667, 223.739819184896, -0.00134596291197092, 1.08125,432462.3125
0.110000138333333, 223.743829222742, -0.00157466542449587, 1.0875,0
0.110666591666667, 223.746274803868, -0.00130844979624795, 1.09375,118.78955078125
0.111333931666667, 223.749525714056, -0.00103934381314361, 1.10125,0
0.112000656666667, 223.753643810497, -0.000926778967153599, 1.1075,0
0.112667033333333, 223.757689618913, -0.00112211715553513, 1.11375,446445.84375
0.113333521666667, 223.761030785949, -0.000634718137092298, 1.12125,41.7993850708008
0.1139996, 223.766241404189, -0.000613056225140981, 1.12625,16.915246963501
0.114666333333333, 223.770234696362, -0.00055895844240064, 1.1325,16.0341472625732
0.115332858333333, 223.773810819551, -0.000300287435197614, 1.14,0
0.116000241666667, 223.777606466699, -0.000256461136513618, 1.1475,444213.09375
0.116666621666667, 223.782183139535, -0.000463597732249062, 1.1525,12.8835496902466
0.117333421666667, 223.785814686917, -0.000624548647831612, 1.16,0
0.117999745, 223.789711000103, -0.000734353632452038, 1.1675,0
0.118666936666667, 223.793918078989, -0.000552291277216676, 1.1725,0
0.119332995, 223.797658389571, -0.000412009323439199, 1.17875,438800.96875
0.120000311666667, 223.801494923286, -0.000268997506801457, 1.18625,94.3853378295898
0.120666701666667, 223.804906759337, -3.86225782905698E-05, 1.1925,13.4967079162598
0.121332895, 223.808998454967, -8.61508557801016E-06, 1.19875,0
0.121999671666667, 223.812932366223, -0.000297376081420792, 1.205,13.3552875518799
0.122666396666667, 223.816960588351, -0.000616386057890074, 1.2125,439379.15625
0.12333282, 223.821372797524, -0.000828223417534238, 1.21875,0
0.124000126666667, 223.82554603015, -0.000842528199012329, 1.225,0
0.124666743333333, 223.83018243055, -0.000745795057819228, 1.2325,13.3552875518799
0.125332793333333, 223.833710597544, -0.000407563546827812, 1.23875,0
0.126000651666667, 223.838515213059, -0.000505145645360681, 1.245,434491.78125
0.126667418333333, 223.842659600534, -0.000785801048304233, 1.25125,0
0.127332875, 223.846992463705, -0.000701089803286145, 1.25875,0
0.128000186666667, 223.850200214476, -0.000853636641013217, 1.265,0
0.128666416666667, 223.854623714675, -0.00118438802773034, 1.27125,51.4356079101563
0.129333195, 223.857411770771, -0.00100980879663933, 1.27875,444530.375
0.129999811666667, 223.861029871487, -0.000845519048761269, 1.285,0
0.130666455, 223.864804814871, -0.00134482746900636, 1.29125,0
0.13133323, 223.868440671449, -0.00132143014422292, 1.2975,64.8153839111328
0.132000115, 223.871646635141, -0.00139684335629241, 1.305,14.1242017745972
0.132666885, 223.875566882827, -0.00140956721719442, 1.3125,428228.28125
0.133332848333333, 223.879873428874, -0.00100955680927582, 1.31875,0
0.133999786666667, 223.883874998846, -0.000945661518675581, 1.32375,0
0.134666355, 223.887359136285, -0.000746399527374995, 1.33125,0
0.1353329, 223.891181919681, -0.000412853781048266, 1.3375,0
0.135999743333333, 223.894955478637, -0.000324530717429511, 1.345,448219.5
0.136666911666667, 223.89851566423, -0.00101252216035242, 1.35125,0
0.137333623333333, 223.901506100833, -0.000850722287387588, 1.3575,12.2170476913452
0.13799969, 223.905784630764, -0.00136987471093095, 1.36375,0
0.13866656, 223.910212466702, -0.00154716130601617, 1.37,0
0.139332946666667, 223.914407296187, -0.00159394245624218, 1.3775,442097.84375
0.139999705, 223.917765358867, -0.00125032321588033, 1.38375,0
0.140666283333333, 223.921982175356, -0.0012187663009829, 1.39125,0
0.141332888333333, 223.925897797645, -0.00103922081938505, 1.3975,15.2518272399902
0.141999523333333, 223.929721320846, -0.00121879629947097, 1.405,0
0.142666681666667, 223.934213940385, -0.00117909629356423, 1.41125,443321.375
0.143333396666667, 223.938936766119, -0.00125203612984641, 1.41625,0
0.143999621666667, 223.943186694275, -0.00109806286377804, 1.42375,93.7809295654297
0.144666798333333, 223.947587307546, -0.000900920266041836, 1.43125,0
0.14533341, 223.951649374879, -0.00061142280718953, 1.43625,0
0.146000038333333, 223.955881344965, -0.000655780079154787, 1.44375,424428.5625
0.146667993333333, 223.960085398344, -0.000423936724419315, 1.45,0
0.147332883333333, 223.964648206068, -0.000487130050313815, 1.45625,0
0.148000083333333, 223.968570327111, -0.000423684737098314, 1.46375,0
0.148666201666667, 223.973489194801, -0.000545808602946853, 1.47,88.7522277832031
0.149333891666667, 223.977188125253, -0.000405628644007544, 1.4775,454382.09375
0.150000066666667, 223.981484026739, -0.000546027591930982, 1.48375,0
0.150667606666667, 223.986317620026, -0.000400864883273887, 1.49,0
0.151332953333333, 223.990974384929, -0.000489238944343607, 1.49625,0
0.152000105, 223.995229815373, -0.000773731154633332, 1.5025,0
0.152667308333333, 224.000220059002, -0.00117676541063774, 1.51,436794.0625
0.153333476666667, 224.005171737629, -0.000997158432118099, 1.51625,0
0.154000051666667, 224.008794774571, -0.00125030971660321, 1.52375,0
0.154666941666667, 224.013888182854, -0.00140378800751223, 1.53,0
0.155333056666667, 224.019149094162, -0.00138865976736672, 1.53625,13.2146139144897
0.156001493333333, 224.023846746091, -0.000958785859542038, 1.5425,455452.1875
0.15666636, 224.028772094001, -0.0011775873693595, 1.55,0
0.157332895, 224.034323915048, -0.000992709655572889, 1.55625,0
0.15799971, 224.039311980249, -0.00116775086344386, 1.5625,0
0.158667368333333, 224.044118067205, -0.000970488271755395, 1.57,0
0.159332891666667, 224.050444673092, -0.00111677442391806, 1.575,440730.03125
0.159999681666667, 224.055996481178, -0.00118127718402914, 1.5825,0
0.160666635, 224.062749941579, -0.00126724386598529, 1.59,0
0.16133347, 224.068676593125, -0.00107605896904153, 1.59625,0
0.161999945, 224.074668057241, -0.00115361257359579, 1.60125,80.6142730712891
0.162666345, 224.079223721214, -0.001093549590526, 1.60875,422268.46875
0.163332896666667, 224.08404809721, -0.00121891329361693, 1.615,0
0.163999563333333, 224.088961247843, -0.0011767879095463, 1.6225,0
0.164666403333333, 224.094623617083, -0.000774913095254386, 1.62875,12.0322437286377
0.165332991666667, 224.100086087782, -0.000808131926709435, 1.63625,0
0.166000111666667, 224.10660154686, -0.000896177504249825, 1.6425,442427.875
0.166666346666667, 224.112747243968, -0.000691233798374518, 1.64875,0
0.167332903333333, 224.118576886267, -0.000725681068128377, 1.655,14.9146194458008
0.167999685, 224.125179697892, -0.00108773138274557, 1.6625,0
0.168666618333333, 224.131580776723, -0.00078020482948426, 1.66875,31.2266712188721
0.169332821666667, 224.13772503566, -0.00104977278936857, 1.675,440632.78125
0.170000043333333, 224.144299829288, -0.00107931980524682, 1.6825,15.3651313781738
0.170666455, 224.150543805948, -0.0010483358615352, 1.68875,0
0.171332955, 224.156141441795, -0.000985459019774803, 1.695,0
0.17200043, 224.161907838815, -0.00111917130351829, 1.70125,0
0.172666698333333, 224.167702652832, -0.000786351520709007, 1.70875,447563.40625
0.173332821666667, 224.173753568513, -0.00067940839233884, 1.715,0
0.173999545, 224.179682185009, -0.000795213075528733, 1.72125,14.8959999084473
0.174667878333333, 224.18601468106, -0.000894970064871408, 1.7275,0
0.175332955, 224.191839552913, -0.000899993312548082, 1.735,0
0.17600008, 224.198400396793, -0.000754964097226639, 1.74125,459493.40625
0.17666642, 224.203960645298, -0.000622312260185035, 1.7475,157.688583374023
0.177332833333333, 224.209805462309, -0.000508340484849718, 1.75375,15.5547752380371
0.17799971, 224.215118336626, -0.000379048479066526, 1.76,44.8593940734863
0.17866636, 224.22042113636, -0.000367412063548167, 1.7675,17.5763492584229
0.179333576666667, 224.225097897078, -0.0005261085923913, 1.77375,435123.6875
0.180000125, 224.23129130712, -0.000916615477654288, 1.78,46.3942413330078
0.180666633333333, 224.236931701417, -0.000851793233624056, 1.7875,0
0.181332905, 224.242166760516, -0.000920908262040306, 1.79375,0
