Time (min), Depth (µm), Load (N), Position (µm), Acoustic (aJ)
8.40333333333333E-06, 223.038992772822, -0.000570210445940683, 0,82.2719116210938
0.000666836666666667, 223.038516673729, -0.000505178212451486, 0.0025,447752.59375
0.00133329333333333, 223.038413209428, -0.000452949335836416, 0.00875,14.2696218490601
0.00200011833333333, 223.03728569577, -0.000369330035953933, 0.015,96.7455139160156
0.00266655, 223.036479130444, -0.000506867127605858, 0.0225,0
0.00333324, 223.035794781962, -0.000529749978170205, 0.03125,0
0.00400004166666667, 223.036344304894, -0.000408559065470525, 0.0375,433021.21875
0.00466657166666667, 223.038316957008, -0.000435893692513906, 0.04375,0
0.00533338833333333, 223.040631830894, -0.000337402639601375, 0.05,0
0.006003185, 223.043821718278, -0.000348815566341141, 0.0575,0
0.006666585, 223.047614398111, -0.000497714587303121, 0.06375,13.6745281219482
0.007333235, 223.051187633548, -0.000898332464647544, 0.07,442341.375
0.00799994, 223.054398245307, -0.000932851730772758, 0.07875,0
0.00866670666666667, 223.058237509662, -0.00143927879351096, 0.085,37.0936470031738
0.009333335, 223.061690133064, -0.00134305262687243, 0.09125,0
0.00999999666666667, 223.065299838699, -0.00128064226170772, 0.0975,0
0.010666615, 223.069493292906, -0.0012227871677421, 0.105,452641.25
0.0113333733333333, 223.073747658091, -0.00110675599586105, 0.11125,0
0.011999865, 223.078561513789, -0.000542500837796488, 0.1175,0
0.012666575, 223.083972704122, -0.000621834852893716, 0.125,0
0.013333235, 223.089687502046, -0.000597416079400367, 0.13,59.6478691101074
0.0139998983333333, 223.094560082292, -0.000321788423842937, 0.1375,449580.5625
0.0146665966666667, 223.100387458897, -0.000192724406611548, 0.1425,70.6428833007813
0.0153333016666667, 223.105946734074, -0.000228653601909621, 0.15,16.5796203613281
0.015999925, 223.111346697689, -0.000125031306720874, 0.1575,27.5816192626953
0.01666664, 223.116640450637, 0.000148617948123577, 0.1625,28.4889717102051
0.0173332433333333, 223.122433625752, 0.000135927085579695, 0.17,445643.46875
0.0180000333333333, 223.127479462408, 0.000116416065626478, 0.17625,0
0.0186667133333333, 223.132518583986, 0.000283641166093068, 0.1825,62.5737152099609
0.019333275, 223.13785361636, 0.000198907422123916, 0.18875,12.8489170074463
0.0199999683333333, 223.143124800586, 6.12360546872167E-06, 0.19625,0
0.0206667083333333, 223.14850126424, -0.000252644896884279, 0.20375,448358.9375
0.0213333183333333, 223.153951394096, -0.000170711512286107, 0.20875,0
0.0220000016666667, 223.159547777731, -0.00030693167009943, 0.21625,0
0.0226666216666667, 223.16468134251, -0.000188100138868649, 0.22375,52.8926239013672
0.02333325, 223.17009858666, -0.000251222968294941, 0.22875,17.4149131774902
0.02399985, 223.175079524175, -1.61802742334599E-05, 0.235,445075.5625
0.02466692, 223.180144453124, -0.00021248591404638, 0.24375,14.4157905578613
0.02533343, 223.185192871213, -9.00905618383433E-05, 0.25,13.9975843429565
0.0260000833333333, 223.190243493589, 8.59750945913437E-05, 0.255,0
0.02666673, 223.195616417394, 4.58941078436685E-05, 0.2625,0
0.0273333716666667, 223.200787958471, 0.00018923890778395, 0.26875,438166.1875
0.028000335, 223.205748624454, 0.000583528603029577, 0.275,14.0879850387573
0.028666745, 223.211125723438, 0.000547069934310884, 0.28125,0
0.029333375, 223.216512450339, -6.6707518802397E-06, 0.28875,16.2668037414551
0.0300000433333333, 223.221458239062, -2.28264404120166E-05, 0.295,0
0.030666805, 223.226761736277, -0.000410799952911566, 0.30125,438728.71875
0.0313335333333333, 223.232343993282, -0.000786300091926959, 0.3075,0
0.0320001283333333, 223.237638042947, -0.001013616674027, 0.31375,56.7515258789063
0.0326668766666667, 223.243013871862, -0.000674251219995431, 0.32125,0
0.0333334616666667, 223.248251289833, -0.000454675749079615, 0.3275,0
0.034000045, 223.253393256602, -0.000351480932473321, 0.335,458985.125
0.0346670416666667, 223.258053442446, -0.000462188871733287, 0.34125,0
0.03533369, 223.263199305554, -0.000508952022866452, 0.3475,0
0.0360001116666667, 223.268157896733, -0.000591735864728795, 0.35375,0
0.0366668133333333, 223.272794143524, -0.000691453855973223, 0.36125,0
0.0373333833333333, 223.27718377325, -0.00018191144976061, 0.3675,437223.625
0.0380001333333333, 223.282265473398, -0.000306801176697601, 0.37375,0
0.038666915, 223.287017686601, -0.000289810030145685, 0.38,14.9332399368286
0.0393334766666667, 223.291904152926, -0.000442283371534489, 0.3875,0
0.040000095, 223.296946409097, -0.000638089536414854, 0.39375,0
0.04066675, 223.302750799128, -0.00108228022519787, 0.4,457745.78125
0.0413334783333333, 223.307968520335, -0.000957302002721084, 0.40625,73.2968902587891
0.0420001516666667, 223.313514118161, -0.00100522609557616, 0.4125,13.8894958496094
0.0426668116666667, 223.317829496283, -0.00102663752010963, 0.41875,14.3061180114746
0.0433334383333333, 223.322573346637, -0.0009113893088946, 0.42625,0
0.0440009933333333, 223.327322795453, -0.0011738566254424, 0.43375,461121.6875
0.0446676033333333, 223.331981267276, -0.00130095874125677, 0.44,14.214973449707
0.0453343433333333, 223.336123982569, -0.00125191120483236, 0.44625,0
0.0460033666666667, 223.341244513189, -0.000946693035610243, 0.45375,15.0827589035034
0.0466676266666667, 223.346225530797, -0.000911180819381293, 0.46,0
0.04733427, 223.35092307745, -0.000860541862909979, 0.46625,470328.65625
0.048000975, 223.355646097048, -0.000658376017475842, 0.4725,87.7944107055664
0.04866782, 223.361077679401, -0.000718265009293596, 0.48,0
0.0493343483333333, 223.366059880147, -0.000903691695518072, 0.48625,145.111618041992
0.0500009616666667, 223.370735349203, -0.000969994365210624, 0.4925,0
0.0506678166666667, 223.3753029749, -0.000844966645228534, 0.5,444580.96875
0.0513342816666667, 223.380331156361, -0.00090453015345078, 0.50625,0
0.0520023483333333, 223.384584202813, -0.00105867441096488, 0.5125,0
0.0526676916666667, 223.389375286109, -0.00115985332885438, 0.51875,0
0.053334335, 223.394279481072, -0.00115997182290349, 0.52625,0
0.0540012983333333, 223.399116586668, -0.00116445209788243, 0.53375,437367.8125
0.05466767, 223.40307575633, -0.00109109678241302, 0.53875,63.4556579589844
0.0553351933333333, 223.407479471356, -0.000770184901502849, 0.545,0
0.0560010633333333, 223.412159139579, -0.000999917862241618, 0.5525,0
0.056667825, 223.416673582459, -0.000928275460759542, 0.55875,0
0.0573343333333333, 223.421100871476, -0.000741429845815788, 0.565,428992.9375
0.0580010766666667, 223.425979007849, -0.000596826609088633, 0.5725,61.1414680480957
0.0586677983333333, 223.43045049669, -0.000902170771960628, 0.57875,12.3692655563354
0.0593343883333333, 223.434273940882, -0.000464930734073795, 0.585,14.1605100631714
0.060000965, 223.437928751988, -0.000744966668175039, 0.5925,0
0.0606676083333333, 223.441941865542, -0.000776334592597657, 0.59875,426360.9375
0.06133507, 223.445318104356, -0.000960708331721014, 0.60625,14.4157905578613
0.0620012116666667, 223.449300709138, -0.00101719549439706, 0.61125,0
0.0626677216666667, 223.454134170677, -0.00122283516532301, 0.61875,8.60392951965332
0.06333437, 223.458442163869, -0.000960046864889144, 0.625,0
0.0640009833333333, 223.462773585191, -0.00111581854065708, 0.6325,438875.625
0.0646677, 223.46820192528, -0.00102466361927613, 0.63875,14.9705724716187
0.0653343333333333, 223.472897079332, -0.00107363915928667, 0.645,13.7817783355713
0.0660010733333333, 223.477020663147, -0.00102737848287111, 0.65125,0
0.066667695, 223.481695114283, -0.000898095476613083, 0.6575,0
0.0673343833333333, 223.486533420515, -0.00081476416223728, 0.665,444373.5625
0.0680009733333333, 223.490412856551, -0.000640961892157191, 0.67125,25.9926815032959
0.0686677633333333, 223.494714809922, -0.000138311639767778, 0.6775,15.650110244751
0.069334475, 223.499552993997, -0.000308064113278939, 0.685,14.8773794174194
0.0700009883333333, 223.504337478164, -0.000607893053206229, 0.6925,12.0657596588135
0.0706676716666667, 223.508453133698, -0.000662596805511757, 0.6975,447785
0.071334445, 223.513504562566, -0.000938311456642068, 0.70375,0
0.0720009566666667, 223.517929219787, -0.00110759145385993, 0.71125,0
0.072667685, 223.522687535988, -0.00122432759033804, 0.71875,0
0.0733342983333333, 223.526735023317, -0.000815394130635427, 0.72375,0
0.074000975, 223.531902314797, -0.00096164728448247, 0.73,440961.15625
0.0746679166666667, 223.536237173368, -0.000475245715916581, 0.7375,0
0.075334405, 223.540599314555, -0.000502965823552853, 0.74375,0
0.07600146, 223.544784651169, -0.000155782762213753, 0.75125,15.1766033172607
0.076667905, 223.549765187159, -0.000437621605724016, 0.7575,12.4372291564941
0.0773344783333333, 223.553939172271, -0.000361836412381265, 0.765,442319.65625
0.0780011083333333, 223.558573822357, -0.000722196311898428, 0.77125,0
0.0786684033333333, 223.563394747197, -0.000729679436042781, 0.77625,25.5945854187012
0.0793344633333333, 223.567701668086, -0.000944204660600156, 0.785,0
0.080001075, 223.572302656234, -0.00114600452439488, 0.79125,233.736206054688
0.08066779, 223.576770992451, -0.000987132504375313, 0.79625,451408.75
0.0813344816666667, 223.581377958759, -0.00102185126048867, 0.80375,38.7328567504883
0.0820010166666667, 223.585830117301, -0.00069004242691847, 0.81,0
0.082668205, 223.590716278786, -0.000533649782383823, 0.8175,0
0.0833343933333333, 223.595974098195, -0.000161596470242231, 0.8225,0
0.0840010983333333, 223.600503970868, 8.89869432181673E-05, 0.83125,441732.09375
0.0846677633333333, 223.605127974019, 0.000206125059457605, 0.8375,0
0.08533431, 223.610227021002, -9.34473932904574E-05, 0.84375,0
0.0860014866666667, 223.614370619899, -4.32284157370723E-05, 0.85,14.3061180114746
0.08666859, 223.618010842233, 0.000180050369231773, 0.8575,0
0.0873347433333333, 223.62254776313, 5.32797367955395E-05, 0.86375,428586.84375
0.0880010883333333, 223.626758560622, -0.000221870942631622, 0.86875,0
0.08866779, 223.630745587544, -0.000345602727695502, 0.875,48.0441627502441
0.0893352916666667, 223.634742195354, -0.00030753163994575, 0.88375,16.5992641448975
0.0900012166666667, 223.638971684755, -0.000691188369290084, 0.89,0
0.0906677783333333, 223.642652390561, -0.00070962544322179, 0.89625,451759.125
0.091334465, 223.646515307221, -0.000460160973578763, 0.90375,13.7281532287598
0.0920017516666667, 223.650462126941, -0.00029098147131717, 0.91,0
0.0926677933333333, 223.654815471971, -0.000297404148717133, 0.91625,65.3520126342773
0.0933343766666667, 223.65842877908, 0.000226015560454879, 0.9225,0
0.0940010033333333, 223.662902581675, -1.67907436356187E-05, 0.92875,440627.71875
0.0946677083333333, 223.667212679114, 6.33907289407365E-05, 0.93625,13.0572757720947
0.0953343083333333, 223.671304030015, -8.81676584558095E-05, 0.9425,0
0.0960017433333333, 223.675520645599, -0.000402793355150476, 0.95,30.8936519622803
0.096667815, 223.680286602928, -0.000634831700100879, 0.95625,0
0.09733435, 223.684418220699, -0.000504243759378224, 0.9625,444468.84375
0.0980009233333333, 223.688639592036, -0.00060990445214981, 0.96875,68.7006301879883
0.098667655, 223.692572674037, -0.00039242137609535, 0.97625,13.6745281219482
0.0993344483333333, 223.696451087624, -4.62177655191011E-05, 0.9825,67.3581314086914
0.100001153333333, 223.700156184269, -0.000240518006043546, 0.98875,0
0.100667631666667, 223.703945003033, -8.38688743721791E-05, 0.995,444735.96875
0.101334301666667, 223.707615982235, -0.000204164332054335, 1.0025,13.4259510040283
0.102001735, 223.712013691856, -0.000321615932600325, 1.00875,14.8401393890381
0.102667621666667, 223.715806139751, -0.000598644517741684, 1.015,0
0.103334423333333, 223.720027452319, -0.000344243796016118, 1.0225,32.4938545227051
0.104001008333333, 223.724029629854, -0.000539904468186859, 1.0275,434998.6875
0.104667986666667, 223.728001348454, -0.000649445466069804, 1.035,14.2332210540771
0.105334345, 223.731522869964, -0.000567932060410815, 1.04125,0
0.106001683333333, 223.7353037209, -0.00024965554710225, 1.04875,0
0.106667688333333, 223.738498393642, -0.000330682977212076, 1.055,0
0.107334461666667, 223.742138392482, -0.000339384040163161, 1.06125,436458.8125
0.108001, 223.746042242603, -9.94170934143661E-05, 1.06875,0
0.108667635, 223.749792974027, -0.0002648257851098, 1.07375,0
0.109334418333333, 223.753622858823, -0.000475635696346445, 1.08125,0
0.11000094, 223.757479971369, -0.00046620417004094, 1.0875,44.7981376647949
0.11066775, 223.761650539212, -0.000513327303094648, 1.09375,436394.5625
0.111334335, 223.765148462392, -0.000806511576725276, 1.1,11.8488368988037
0.112000981666667, 223.769217170768, -0.000945053617918671, 1.1075,0
0.112667711666667, 223.773277986902, -0.000910676844611765, 1.11375,36.747314453125
0.113334476666667, 223.777399335722, -0.00132361210332366, 1.12,0
0.114000996666667, 223.780671123218, -0.00122242418586648, 1.12625,430809.0625
0.11466767, 223.784600474713, -0.00110116877641746, 1.1325,0
0.115334293333333, 223.788164098961, -0.00101696750576024, 1.14,0
0.116001028333333, 223.791763000714, -0.00116439660055198, 1.1475,48.9236755371094
0.116667675, 223.795730554933, -0.000979752875036039, 1.1525,0
0.117334308333333, 223.800338661897, -0.000986712525478639, 1.16,435774.0625
0.118000998333333, 223.804479782479, -0.000971129808196431, 1.16625,17.2943477630615
0.118667593333333, 223.807874904124, -0.000563223796901333, 1.17375,0
0.119334393333333, 223.812210760086, -0.000416952643918943, 1.18,110.66862487793
0.12000098, 223.815698815219, 7.10155628591621E-06, 1.18625,0
0.120667721666667, 223.819633006444, -0.000191882948936305, 1.19375,445513.6875
0.121334323333333, 223.823166184903, 7.52461334644798E-05, 1.2,20.9614639282227
0.12200093, 223.827597573112, 1.91669502473697E-05, 1.205,77.6520004272461
0.122667633333333, 223.831118061672, 9.09203461352864E-05, 1.2125,20.741189956665
0.123336295, 223.835487362439, -0.000313036363525903, 1.21875,91.5130157470703
0.12400105, 223.839569767137, -0.000176001746612832, 1.225,435293.6875
0.12466808, 223.843348183218, -0.000302251905217373, 1.2325,0
0.125334315, 223.847449484823, -0.000321017462614646, 1.23875,0
0.126000971666667, 223.851528454316, -0.000415649209378717, 1.245,0
0.126667775, 223.85556657027, -0.000442079381794392, 1.2525,16.1115131378174
0.127334355, 223.859154358446, -0.000596004650281852, 1.25875,431790.28125
0.128001928333333, 223.863464711002, -0.000733814728217678, 1.265,42.9663009643555
0.128667805, 223.866933710412, -0.000653096282662448, 1.27125,0
0.129334358333333, 223.870433161699, -0.000416897146694768, 1.27875,0
0.130000968333333, 223.873795022197, -0.0002769586756694, 1.285,0
0.130667591666667, 223.877432453717, -0.0002897710321112, 1.29125,456252.375
0.131334381666667, 223.880301502574, -0.000323210352496037, 1.2975,0
0.13200169, 223.883968441948, -0.000905953581879505, 1.305,0
0.132667706666667, 223.887808764885, -0.00138284262824337, 1.31125,0
0.133334306666667, 223.891240526135, -0.00154888878791646, 1.3175,0
0.134000976666667, 223.894605405285, -0.00160614391203575, 1.325,434659.5625
0.13466767, 223.898533725616, -0.00133298363261053, 1.33125,40.8263969421387
0.135335698333333, 223.901826884736, -0.00106348466924877, 1.3375,0
0.136001006666667, 223.905057860064, -0.000761986313226855, 1.345,0
0.13666802, 223.908565778702, -0.000623655761416828, 1.35125,56.5421447753906
0.137334778333333, 223.912053009598, -0.000328095607106357, 1.3575,439183.65625
0.138001143333333, 223.915988237456, -0.000584401233121618, 1.36375,75.6778259277344
0.138668145, 223.919821446295, -0.000683943733232119, 1.37,0
0.139334348333333, 223.923741191892, -0.000613837254572775, 1.37875,0
0.140000993333333, 223.92764167111, -0.000714231711850596, 1.38375,15.2707271575928
0.140667633333333, 223.931424364441, -0.00104315319047693, 1.39,448293.25
0.141334386666667, 223.935450644308, -0.00098076682408142, 1.3975,0
0.142000971666667, 223.939548166818, -0.000747821024697013, 1.405,0
0.14266764, 223.944088580679, -0.000646358621052784, 1.41,0
0.143334706666667, 223.948542931977, -0.000652389818140989, 1.4175,83.3335266113281
0.144001, 223.953534460535, -0.000406987144462116, 1.42375,454830.125
0.144667636666667, 223.958416427909, -0.000389471024305297, 1.43,13.7460289001465
0.145334561666667, 223.963088417564, -0.000382832357791265, 1.4375,0
0.146001023333333, 223.96794987443, -0.000662457312521, 1.44375,16.954906463623
0.146667796666667, 223.973018564213, -0.000526654133776799, 1.45125,0
0.147334285, 223.978020253705, -0.00045279484362288, 1.45625,449440.5
0.148000975, 223.982650023437, -0.000246160722605036, 1.4625,18.9366321563721
0.148667951666667, 223.988530239497, -0.000368557574737477, 1.47,0
0.149334645, 223.993183301546, -0.00013830264017885, 1.4775,0
0.150000943333333, 223.998612346917, -0.000318179605133584, 1.4825,14.2878704071045
0.150667698333333, 224.003540706258, -0.000328916065839956, 1.49,453126.28125
0.151334281666667, 224.009387716471, -0.000627327576972372, 1.49625,40.9147491455078
0.152000943333333, 224.014170779754, -0.00061801304481283, 1.50375,139.390991210938
0.152667736666667, 224.020485925966, -0.00125031528494849, 1.51,18.10618019104
0.153334318333333, 224.025757617497, -0.00116679498007662, 1.51625,0
0.154000978333333, 224.031869507853, -0.00140824385232712, 1.52375,451948.28125
0.154667621666667, 224.037258699708, -0.00120280667121687, 1.52875,0
0.15533427, 224.042891949115, -0.00158831880734559, 1.53625,15.8415231704712
0.156001035, 224.047563698856, -0.00126699894691272, 1.54375,16.6189098358154
0.156667626666667, 224.052596062813, -0.00107975135220764, 1.55,0
0.157334288333333, 224.0577115585, -0.000961264803674622, 1.55625,447023.15625
0.158000996666667, 224.062783011693, -0.00116406961701082, 1.56375,0
0.158667663333333, 224.067774097124, -0.000676814591310697, 1.57,12.3862104415894
0.159334428333333, 224.073089559398, -0.000593858258099471, 1.57625,0
0.160001048333333, 224.079239486594, -0.00088324772233098, 1.5825,17.1941738128662
0.160667621666667, 224.084257707633, -0.000972047762016241, 1.58875,450454.15625
0.16133439, 224.089779546727, -0.00105146577292256, 1.59625,16.2473468780518
0.162001013333333, 224.095199410582, -0.00125004229864333, 1.6025,19.46506690979
0.16266761, 224.100691974656, -0.00106516908462993, 1.61,15.0640439987183
0.163334425, 224.105819239112, -0.00113848540206485, 1.615,0
0.164001013333333, 224.111538815847, -0.000940420350629352, 1.6225,447897.3125
0.164667663333333, 224.11694828159, -0.000770018409724055, 1.62875,0
0.165334316666667, 224.123140449153, -0.000855703105871143, 1.635,0
0.166000986666667, 224.128610412714, -0.000828579968253638, 1.6425,0
0.166667798333333, 224.134239418539, -0.000477177618803026, 1.64875,0
0.167334333333333, 224.139359428289, -0.000483571797660582, 1.655,439600.25
0.168001005, 224.145097235402, -0.000374063798135762, 1.6625,15.4029293060303
0.16866768, 224.15046391515, -0.000398563567504379, 1.66875,14.4708108901978
0.16933433, 224.156672356204, -0.000766573082795911, 1.675,0
0.170001015, 224.16252899749, -0.0010406213176379, 1.68125,0
0.170667906666667, 224.168421081383, -0.00102200875252976, 1.68875,439711.71875
0.171334308333333, 224.174317828224, -0.0010658860485797, 1.695,0
0.172000981666667, 224.180211630298, -0.00104754796970112, 1.70125,0
0.17266766, 224.185796016609, -0.00102392865606349, 1.70875,0
0.1733343, 224.191276751868, -0.000877114530404608, 1.71375,0
0.17400116, 224.197682533227, -0.000881659302069118, 1.72125,427417.8125
0.174667808333333, 224.202952055001, -0.000836240083477576, 1.7275,0
0.175334405, 224.208524288878, -0.0005623103426847, 1.735,95.136848449707
0.176001015, 224.21358494702, -0.000362476880080202, 1.74125,0
0.176667616666667, 224.219191557376, -0.000550523934662252, 1.7475,0
0.177334495, 224.223673715084, -0.000876409565786298, 1.755,454266.8125
