Time (min), Depth (µm), Load (N), Position (µm), Acoustic (aJ)
8.515E-06, 224.823119614347, -0.000755737350010234, 0,373.655670166016
0.000666271666666667, 224.823273929504, -0.00111922309249388, 0.005,377.355377197266
0.00133196166666667, 224.822648208904, -0.00129821810179323, 0.0175,377.355377197266
0.00199884166666667, 224.821892196966, -0.00124565024222052, 0.0325,395.725799560547
0.00266557833333333, 224.82128459552, -0.00140630567267437, 0.0475,415.637023925781
0.003332375, 224.821211905269, -0.00168789252882113, 0.0625,433.994689941406
0.00399874, 224.823074132797, -0.00139473975356046, 0.0775,453.501342773438
0.00466680833333333, 224.827569699868, -0.00126865158683398, 0.09125,453.501342773438
0.005332, 224.834287836423, -0.00101363139620234, 0.105,451.750335693359
0.00599896166666667, 224.844044575512, -0.000931231535072247, 0.1175,449.110748291016
0.00666536833333333, 224.861533361014, -0.000749643156075838, 0.135,439.952850341797
0.00749870833333333, 224.873429312418, -0.000607378301897189, 0.1475,445.426147460938
0.00816695833333333, 224.885025810863, -0.000609899675222893, 0.16125,444.181335449219
0.00883206666666667, 224.897317582138, -0.000692194541623504, 0.175,444.181335449219
0.00949872833333333, 224.909394025996, -0.000635320398366397, 0.1875,436.608734130859
0.010165535, 224.921949503054, -0.000551459610612482, 0.2025,434.530242919922
0.0108329166666667, 224.934157490647, -0.000540177177338308, 0.21375,437.556549072266
0.0114988666666667, 224.946620760671, -0.000410145708696785, 0.2275,442.224060058594
0.0121656183333333, 224.958356221856, -0.000358008327512822, 0.24125,442.224060058594
0.0128320283333333, 224.970261771577, -0.000268681814298254, 0.255,428.293243408203
0.01349864, 224.981668207057, -0.000225702973093387, 0.2675,513.780639648438
0.01416544, 224.99330216113, -0.000427129355647939, 0.28125,418.938812255859
0.014832055, 225.00448867572, -0.000512010092166103, 0.29375,414.550384521484
0.0154988266666667, 225.016133144374, -0.000502565066562222, 0.3075,414.550384521484
0.016166075, 225.026989490659, -0.00030005423843032, 0.32125,411.996673583984
0.01683217, 225.037778126905, -0.000309748251506395, 0.33375,416.71923828125
0.0174990966666667, 225.048686358443, -0.000150387256046347, 0.34625,405.250549316406
0.0181655433333333, 225.059684121198, -0.000260580721108472, 0.36125,409.013061523438
0.0188320566666667, 225.070670474065, -0.000155412003647425, 0.37375,409.013061523438
0.01949882, 225.081849399044, -0.000508248281061347, 0.3875,406.346771240234
0.0201655816666667, 225.093121190024, -0.000475452428394287, 0.40125,393.047698974609
0.02083227, 225.10452939731, -0.000510240181051447, 0.41375,399.826416015625
0.0214988983333333, 225.115764517426, -0.000585689391349122, 0.42625,402.911743164063
0.022165465, 225.12696517615, -0.000362352109349804, 0.44,402.911743164063
0.0228323316666667, 225.137742167337, -0.000285038492721322, 0.45375,398.912414550781
0.023498825, 225.148651848585, -0.000412383596310274, 0.4675,394.46875
0.0241658183333333, 225.158801143095, -0.000114356065910108, 0.48,399.441253662109
0.0248320333333333, 225.169412893103, 0.000184865404506339, 0.4925,400.777069091797
0.0254988316666667, 225.179678942357, -0.000270109742585205, 0.50625,400.777069091797
0.0261653683333333, 225.190981046731, -0.000354775989892449, 0.51875,392.716369628906
0.0268321233333333, 225.201725671922, -0.000408005316233271, 0.5325,404.034210205078
0.0274988916666667, 225.21294582642, -0.000509068739943724, 0.54625,396.071411132813
0.0281653883333333, 225.223495680363, -0.000944763855397644, 0.55875,405.64111328125
0.028832065, 225.234828864239, -0.00106060753666453, 0.5725,405.64111328125
0.0294988, 225.245115924199, -0.000957208730254376, 0.585,487.866241455078
0.0301656883333333, 225.255578726545, -0.000940304579317848, 0.59875,414.2314453125
0.03083235, 225.266297305, -0.00132695965801188, 0.61125,409.403045654297
0.031498885, 225.277164159498, -0.00122288888540531, 0.625,413.290985107422
0.0321658333333333, 225.287103337585, -0.00114390885250976, 0.6375,413.290985107422
0.0328321883333333, 225.29711635057, -0.00135793310231645, 0.65125,418.877105712891
0.03349877, 225.307082976438, -0.0015404724335333, 0.665,426.688232421875
0.0341653766666667, 225.316677799128, -0.0015716108694372, 0.6775,433.045379638672
0.034832015, 225.326282750848, -0.00167206532373366, 0.69125,442.064636230469
0.0354988683333333, 225.336130614955, -0.00162551516190827, 0.70375,442.064636230469
0.036165555, 225.345510943351, -0.00126001952038419, 0.7175,450.862579345703
0.0368321066666667, 225.354717902383, -0.000973607406603243, 0.73125,439.589874267578
0.0374988933333333, 225.364332728241, -0.000948183683653441, 0.74375,385.109313964844
0.0381655033333333, 225.374119807125, -0.000422493088509813, 0.7575,389.789703369141
0.03883212, 225.383797587586, -0.0004914656240865, 0.77125,389.789703369141
0.0394990033333333, 225.394451188061, -0.00061577338027001, 0.785,391.421569824219
0.04016536, 225.405671040212, -0.000691555573763954, 0.79875,384.612182617188
0.0408321133333333, 225.41722784227, -0.000935887301248869, 0.81125,392.708435058594
0.0414986683333333, 225.428096367592, -0.00123897107768384, 0.825,381.927490234375
0.0421655266666667, 225.439443608418, -0.00117191994560779, 0.8375,381.927490234375
0.042832045, 225.450635689332, -0.00128415330821966, 0.85125,382.674285888672
0.0434986333333333, 225.461533123718, -0.0016715973473411, 0.865,386.43994140625
0.0441653616666667, 225.471682330265, -0.00163358475668558, 0.8775,389.014038085938
0.0448320533333333, 225.482357057421, -0.00155355477647396, 0.89125,385.393707275391
0.0454987516666667, 225.492195209249, -0.00144705412590902, 0.90375,385.393707275391
0.0461653716666667, 225.501846116633, -0.00110879561627835, 0.9175,457.326812744141
0.04683198, 225.511686829144, -0.000941608013900583, 0.93125,383.714538574219
0.0474987016666667, 225.521636510667, -0.000403175558762108, 0.945,382.981475830078
0.0481656933333333, 225.531772613742, -0.000572149571380455, 0.9575,378.796020507813
0.04883212, 225.542036149019, -0.00069313499439438, 0.97125,378.796020507813
0.049498745, 225.552488968383, -0.000833017968195574, 0.985,381.934967041016
0.05016549, 225.562997386806, -0.000983877390713931, 0.9975,381.681335449219
0.0508326533333333, 225.573243409899, -0.00137955001651441, 1.01125,379.689086914063
0.051498785, 225.583439825643, -0.00108078452318032, 1.02625,387.371673583984
0.0521653816666667, 225.593484752689, -0.00095154501475124, 1.03875,387.371673583984
0.0528320283333333, 225.603357032435, -0.000976683752043169, 1.0525,377.362609863281
0.053498795, 225.612895285083, -0.000610325653838435, 1.06625,381.286712646484
0.05416537, 225.622430681847, -0.000337183373484793, 1.07875,383.410430908203
0.0548321416666667, 225.631898483333, -0.000452559078316608, 1.0925,378.347564697266
0.0554987083333333, 225.641525056269, -0.000298692306880875, 1.10625,378.347564697266
0.056165375, 225.650639888871, -0.00045010970136226, 1.11875,386.858520507813
0.0568320383333333, 225.660035410934, -0.000410850673272587, 1.1325,380.014312744141
0.0574986716666667, 225.669288108858, -0.00060304051975782, 1.145,386.241516113281
0.0581655116666667, 225.678442276625, -0.000572125572568748, 1.15875,379.276123046875
0.0588322366666667, 225.687586158527, -0.000617910772799702, 1.17125,379.276123046875
0.0594988783333333, 225.696674691829, -0.000547384315243683, 1.18625,387.052978515625
0.060165575, 225.705873545571, -0.000439413738487252, 1.19875,380.876983642578
0.06083306, 225.714831104418, -0.000162179663702646, 1.21125,382.682952880859
0.061499305, 225.724097959265, -4.03497831009074E-05, 1.22625,381.489349365234
0.0621655133333333, 225.733036032699, 0.000229642655432032, 1.2375,381.489349365234
0.06283212, 225.742760278357, 0.000144469433591471, 1.25125,461.727203369141
0.0634990616666667, 225.751683577377, 2.26485524936441E-05, 1.265,389.885498046875
0.0641654033333333, 225.761217281668, -9.6262474709256E-05, 1.2775,390.838653564453
0.0648322033333333, 225.770089272651, -0.000165169013590945, 1.29125,389.245239257813
0.0654989183333333, 225.779620178678, -0.000322272622420261, 1.305,389.245239257813
0.0661657066666667, 225.788320831927, -0.000270547720510956, 1.3175,392.073577880859
0.0668321083333333, 225.79779691525, -0.000156781434861394, 1.33125,392.001892089844
0.067498615, 225.806843534672, -2.25381777516306E-05, 1.34375,384.54638671875
0.068165805, 225.816030453893, -7.39720942416873E-05, 1.3575,394.687255859375
0.06883204, 225.824987911296, -0.000288006843519197, 1.37125,394.687255859375
0.0694987933333333, 225.834129037026, -0.000359437755596651, 1.38375,389.957824707031
0.070165525, 225.843087828289, -0.000713206986138178, 1.3975,386.213073730469
0.0708320083333333, 225.851675473974, -0.000846383796827192, 1.41,388.672790527344
0.0714988233333333, 225.860115186044, -0.00048749982315663, 1.42375,392.369689941406
0.0721656416666667, 225.868454889532, -0.000516097386738841, 1.4375,392.369689941406
0.07283204, 225.876757545287, -0.000131908184188842, 1.45,386.421203613281
0.0734986833333333, 225.884824064643, -7.11147377646369E-05, 1.46375,389.556671142578
0.07416539, 225.893905492861, -0.000172752632606554, 1.475,385.786315917969
0.074832165, 225.90250960276, -0.000527658806058291, 1.48875,388.350250244141
0.0754987066666667, 225.911183105579, -0.000527051336547447, 1.5025,388.350250244141
0.0761655966666667, 225.919846347533, -0.000909694116782638, 1.515,383.146606445313
0.0768320583333333, 225.928594896031, -0.000846044813784532, 1.53,432.249694824219
0.07749895, 225.936862557391, -0.000899169145417125, 1.5425,464.144287109375
0.0781655133333333, 225.945752247087, -0.000941318528299467, 1.55625,464.415679931641
0.0788320066666667, 225.954042952343, -0.0011129384080115, 1.57,464.415679931641
0.0794991916666667, 225.962041450309, -0.00104421036015505, 1.5825,560.807556152344
0.0801653966666667, 225.96935012293, -0.00110165747464047, 1.59625,466.822631835938
0.0808320716666667, 225.976528028313, -0.00102981108339704, 1.60875,464.711212158203
0.08149885, 225.983393490191, -0.000925366829529041, 1.62375,470.156860351563
0.0821658166666667, 225.990847153573, -0.0011748237995288, 1.63625,470.156860351563
0.0828320383333333, 225.99761400193, -0.00110392536069952, 1.65,462.867828369141
0.08349951, 226.004128484834, -0.00100826316570038, 1.66375,462.261352539063
0.084165825, 226.011284719759, -0.00101905512360967, 1.67625,463.791687011719
0.0848320333333333, 226.018178018691, -0.000971248024943057, 1.69,462.638580322266
0.08549917, 226.02469625353, -0.000693188991587881, 1.70375,462.638580322266
0.0861654266666667, 226.03228477371, -0.000855257351042144, 1.71625,467.65478515625
0.086832035, 226.04015071889, -0.000880067604868506, 1.73125,468.296997070313
0.0874986783333333, 226.047539971644, -0.00105390137338232, 1.7425,461.612762451172
0.088165385, 226.055170923989, -0.00131556773012875, 1.75625,467.451202392578
0.088832145, 226.062281942136, -0.00151051293825286, 1.77,467.451202392578
0.08949884, 226.069296568936, -0.00135459276996901, 1.78375,467.907318115234
0.0901654016666667, 226.076547391322, -0.00131131244387407, 1.79625,461.385864257813
0.0908320333333333, 226.083227776164, -0.00102069304135558, 1.81,470.661071777344
0.09149887, 226.090225483705, -0.000710954099238148, 1.82375,473.777893066406
0.0921661383333333, 226.097687149845, -0.000518978741942581, 1.83625,473.777893066406
0.0928320133333333, 226.105434862138, -0.000404415996328619, 1.85,462.625610351563
0.0934989166666667, 226.113190000368, -0.000636688329549693, 1.86375,465.445953369141
0.0941654033333333, 226.121234843159, -0.000549160226013443, 1.87625,469.865509033203
0.09483212, 226.129711533673, -0.000556878838267854, 1.89,559.98095703125
0.09549875, 226.138992251147, -0.000663087003552899, 1.905,559.98095703125
0.09616534, 226.14805900159, -0.000426304396864827, 1.9175,470.447998046875
0.0968320083333333, 226.158086595555, -0.000361723640706027, 1.93125,470.647552490234
0.097498945, 226.168399458257, -0.000747280774545592, 1.94375,470.866943359375
0.0981653916666667, 226.17858421249, -0.000870087106146392, 1.9575,467.351013183594
0.0988320216666667, 226.188908530304, -0.00101571629133541, 1.97125,467.351013183594
0.0994988766666667, 226.199243678249, -0.00155787305934103, 1.98375,469.978240966797
0.100165425, 226.209623659382, -0.00183810848340917, 1.9975,469.564727783203
0.100832, 226.219702837496, -0.0017177440291832, 2.01,469.979553222656
0.101499908333333, 226.230179752365, -0.00190382468246876, 2.02375,465.381042480469
0.102165788333333, 226.24002217934, -0.00190431365793049, 2.03625,465.381042480469
0.102832126666667, 226.250212829894, -0.00168081888382632, 2.05,460.430328369141
0.103498675, 226.259759170233, -0.00114169796330173, 2.0625,456.698974609375
0.104165626666667, 226.270258982321, -0.000977133729172859, 2.07625,457.459625244141
0.104832026666667, 226.280330941155, -0.00104833665278353, 2.08875,451.108459472656
0.105498723333333, 226.290774994304, -0.000715636863926504, 2.1025,451.108459472656
0.106165481666667, 226.301162935284, -0.000959320623984195, 2.11625,455.255981445313
0.10683205, 226.312048288328, -0.000799074672956193, 2.12875,457.671051025391
0.107498798333333, 226.322848493549, -0.000816092818168622, 2.1425,453.306610107422
0.10816551, 226.334200252728, -0.00064023565129475, 2.155,458.042419433594
0.108831976666667, 226.345455385281, -0.000902371484485671, 2.16875,458.042419433594
0.109499016666667, 226.356513375679, -0.000897102249164354, 2.1825,452.26416015625
0.110165681666667, 226.367442477354, -0.00135930103341473, 2.195,459.976654052734
0.110832036666667, 226.378054129125, -0.0013812644302136, 2.2075,457.589996337891
0.111498683333333, 226.387934092487, -0.00115616773659171, 2.22125,549.685791015625
0.112165493333333, 226.397782847312, -0.000614243456911097, 2.235,549.685791015625
0.112832065, 226.4073646176, -9.85888576925038E-05, 2.2475,454.672790527344
0.113498833333333, 226.417467726912, 8.97161839294146E-05, 2.26125,454.669860839844
0.114165398333333, 226.427705563061, 0.000243824443194073, 2.27375,453.487518310547
0.11483204, 226.43798849734, 7.1420102891615E-05, 2.2875,464.510803222656
0.115498841666667, 226.44868840483, -0.000297868848107183, 2.30125,464.510803222656
0.116165725, 226.459716306936, -0.000499860702289288, 2.31375,462.187774658203
0.116832063333333, 226.470078380291, -0.000466941855736144, 2.3275,461.253051757813
0.117498783333333, 226.480481974112, -0.000698026248617297, 2.34,475.611419677734
0.118165496666667, 226.491304800484, -0.000877949711249786, 2.3525,467.0654296875
0.118832023333333, 226.501705548366, -0.000821000571730008, 2.36625,467.0654296875
0.11949879, 226.51217379659, -0.000732235030327275, 2.38,469.752105712891
0.12016532, 226.52289957432, -0.000756098831685148, 2.39375,469.209777832031
0.120832095, 226.533823194814, -0.000821842029469014, 2.4075,473.107391357422
0.121498681666667, 226.544631970091, -0.000527669305465352, 2.42,445.831420898438
0.122165396666667, 226.556253168336, -0.000308762800918405, 2.43375,445.831420898438
0.122832173333333, 226.567571698175, -0.000531999587940197, 2.4475,419.827331542969
0.12349865, 226.578526537179, -0.00034081319107203, 2.46125,423.648254394531
0.12416544, 226.589234441044, -0.00018906731304006, 2.47375,417.492706298828
0.124832068333333, 226.600002129637, -0.00015201617407581, 2.4875,424.348358154297
0.125498881666667, 226.610142740871, -0.000233829564679213, 2.5,424.348358154297
0.126165353333333, 226.620614488832, -3.1863209211963E-05, 2.515,418.434417724609
0.126832646666667, 226.630847009314, -0.000114293068830121, 2.5275,415.331512451172
0.127498693333333, 226.641597403223, -8.59084945769359E-05, 2.54125,415.875183105469
0.12816561, 226.651785451772, -0.000291666659573244, 2.55375,503.299468994141
0.128831985, 226.662273797012, -0.00051331652632134, 2.5675,503.299468994141
0.129498698333333, 226.672296823984, -0.000408854273381752, 2.58125,416.093414306641
0.130165758333333, 226.68285729101, -0.000495987896757437, 2.595,415.206604003906
0.130832846666667, 226.692615732857, -0.000591015623606476, 2.6075,420.450073242188
0.131498665, 226.702644821559, -0.00042578092314182, 2.62,416.776672363281
0.132165623333333, 226.712306677093, -0.000414552487146163, 2.635,416.776672363281
0.13283203, 226.722687841107, -0.000326442412813925, 2.6475,414.699798583984
0.133499703333333, 226.732750157185, -0.000207885367812702, 2.66125,420.519744873047
0.134165373333333, 226.743248566049, -0.00028776535552024, 2.67375,416.256713867188
0.134833523333333, 226.753614635747, -0.000408800276060727, 2.6875,415.736175537109
0.135498923333333, 226.764061344333, -0.000332686599146138, 2.70125,415.736175537109
0.136165336666667, 226.774226348498, -0.000827415749401684, 2.715,417.667755126953
0.136832156666667, 226.784487763016, -0.000762395515307713, 2.72875,420.764282226563
0.137498675, 226.794034517648, -0.000693592471231103, 2.74125,412.798706054688
0.138165303333333, 226.804512066549, -0.000765243872259598, 2.75375,421.040374755859
0.138832161666667, 226.814582484671, -0.000839998617388532, 2.7675,421.040374755859
0.139498923333333, 226.824647157747, -0.000545153927124686, 2.78125,425.155822753906
0.140165686666667, 226.834455470388, -0.0008882391942927, 2.795,424.507232666016
0.140831996666667, 226.844438859383, -0.000562292066289375, 2.8075,430.1201171875
0.141498906666667, 226.853582813599, -0.000442103103261104, 2.82125,430.1201171875
0.142165676666667, 226.863475402563, -0.000433088556045976, 2.835,421.294250488281
0.142832048333333, 226.872399859697, -0.00033514797553822, 2.84875,419.401977539063
0.143498896666667, 226.882393184126, -0.000160276259167321, 2.8625,421.843536376953
0.14416563, 226.892185154652, -0.000551563105226274, 2.87375,424.798858642578
0.144832086666667, 226.902377213602, -0.000509998692988727, 2.8875,506.343597412109
0.145498673333333, 226.912338484607, -0.000821557043747379, 2.90125,506.343597412109
0.146165633333333, 226.923000138592, -0.00125882258032781, 2.91375,422.315002441406
0.146832008333333, 226.932741978866, -0.00140565770494959, 2.9275,417.814392089844
0.14749884, 226.942855223863, -0.00135242237893241, 2.94,416.514099121094
0.148165445, 226.953270521061, -0.00169740355086495, 2.95375,411.876708984375
0.14883202, 226.963415449518, -0.00162708708281041, 2.9675,411.876708984375
0.149498858333333, 226.973233550271, -0.00140954700967113, 2.98,415.882110595703
0.150165388333333, 226.983413774699, -0.00141943751288654, 2.99375,414.804962158203
0.150832386666667, 226.993226032145, -0.00125962204024729, 3.00625,417.482971191406
0.151498875, 227.002248436632, -0.00080149105167994, 3.02,410.190124511719
0.152166351666667, 227.011748150902, -0.000749529161672412, 3.0325,410.190124511719
0.15283282, 227.021564790548, -0.000781618549839267, 3.04625,414.089019775391
0.153500323333333, 227.031003778594, -0.000950871548439128, 3.05875,414.177978515625
0.15416575, 227.040568346582, -0.00097510883101592, 3.0725,413.427459716797
0.154832818333333, 227.0497942811, -0.00134576421337988, 3.08625,414.507080078125
0.155498793333333, 227.058773619457, -0.000959917594045471, 3.09875,414.507080078125
0.156165561666667, 227.067585371214, -0.000747343771391783, 3.1125,419.01708984375
0.156831955, 227.076629723316, -0.000506151386235494, 3.12625,416.047119140625
0.157499163333333, 227.085654674678, -0.00074966115497739, 3.13875,414.708984375
0.158165386666667, 227.095257273812, -0.00045791680898643, 3.15125,422.615356445313
0.158832135, 227.102870512563, -0.000786745292278512, 3.16375,422.615356445313
0.159498886666667, 227.110909175968, -0.00126587072631021, 3.17875,442.217742919922
0.160165551666667, 227.118763138538, -0.00137406629172712, 3.1925,459.356658935547
