Time (min), Depth (µm), Load (N), Position (µm), Acoustic (aJ)
7.88666666666667E-06, 224.812408027215, -0.000114705654035307, 0,455.292053222656
0.000664486666666667, 224.81196395076, 5.92586079440966E-05, 0.005,455.292053222656
0.00133118833333333, 224.811182834802, -0.000157988979936544, 0.0175,453.013946533203
0.00199786, 224.810414818759, -0.000164444655715887, 0.0325,468.398651123047
0.00266440333333333, 224.810399737829, -0.000218522939438986, 0.04875,511.544158935547
0.00333137, 224.813065638909, -0.000287700964680173, 0.06375,528.71240234375
0.003997745, 224.818382592261, -0.000572130178102452, 0.0775,528.71240234375
0.00466443666666667, 224.826494264649, -0.000818546800847961, 0.09125,522.622131347656
0.00533129333333333, 224.836842156627, -0.00127155554670677, 0.105,528.884521484375
0.00599798666666667, 224.847893546415, -0.00132519135262463, 0.1175,525.652282714844
0.00666451833333333, 224.858663186259, -0.00126269249187762, 0.13125,522.189453125
0.00733117, 224.869092277023, -0.000744041043169968, 0.145,522.189453125
0.00799785, 224.880364373694, -0.000912476582842528, 0.1575,518.947692871094
0.008664705, 224.891657749533, -0.00107760478863204, 0.17125,507.67236328125
0.00933122, 224.903139052567, -0.00146198748147257, 0.185,508.111572265625
0.00999765666666667, 224.914563710893, -0.0014355603089057, 0.1975,508.311218261719
0.0106646633333333, 224.926219522849, -0.00172844459765568, 0.21125,508.311218261719
0.0113313266666667, 224.937714696413, -0.00152186447395886, 0.225,606.134948730469
0.0119980166666667, 224.948893182501, -0.00127512686732729, 0.2375,496.841583251953
0.0126643783333333, 224.960525344746, -0.00113780576478944, 0.25125,497.504058837891
0.01333118, 224.972183919996, -0.00113762727374294, 0.265,488.460144042969
0.013998625, 224.983685301163, -0.00121064210626654, 0.2775,488.460144042969
0.0146644466666667, 224.995085984311, -0.000979506715955676, 0.29125,485.383270263672
0.015331155, 225.006500745822, -0.00100186159308757, 0.30375,480.962646484375
0.0159979866666667, 225.017698096185, -0.000650531240050821, 0.3175,481.787750244141
0.016664705, 225.029077916295, -0.000389763338149466, 0.33125,472.210418701172
0.01733112, 225.040643089101, -0.00022698251447613, 0.345,472.210418701172
0.0179977483333333, 225.051853097484, -4.27227696499292E-05, 0.3575,464.157348632813
0.0186644033333333, 225.063279616673, 0.000217005684491189, 0.37125,472.459899902344
0.0193312233333333, 225.074544987303, 2.3473405409991E-05, 0.385,458.883941650391
0.0199978116666667, 225.086190712136, -0.00024486911604557, 0.39625,459.990814208984
0.0206644133333333, 225.097127196439, -0.000402835181534284, 0.41,459.990814208984
0.0213314033333333, 225.108184167181, -0.000730864204991905, 0.42375,458.980590820313
0.021997645, 225.118792512673, -0.000724365031426122, 0.43625,456.836303710938
0.0226644183333333, 225.129513404033, -0.000721855657453135, 0.45,452.910552978516
0.0233312733333333, 225.139966722783, -0.000661839172018596, 0.4625,455.378295898438
0.0239976616666667, 225.150683156797, -0.000667129406281559, 0.47625,455.378295898438
0.02466441, 225.161251277401, -0.00047226669404213, 0.48875,458.739685058594
0.0253313266666667, 225.172323973409, -0.000500187791633455, 0.5025,454.247283935547
0.0259977433333333, 225.188331406913, -0.000318254429981788, 0.51875,455.769378662109
0.0268312033333333, 225.199137423733, -0.000688335341235539, 0.5325,547.390686035156
0.02749766, 225.209522723979, -0.000646031466118408, 0.545,457.8564453125
0.0281644883333333, 225.220280720013, -0.00100478794617218, 0.55875,457.8564453125
0.0288310633333333, 225.230171823675, -0.000718285836820775, 0.5725,468.993957519531
0.029497735, 225.240283128628, -0.000597009428387601, 0.585,459.22412109375
0.0301645633333333, 225.249978002668, -0.000171539299312272, 0.59875,468.088836669922
0.03083116, 225.260385473285, 5.79686727447539E-05, 0.61125,468.772674560547
0.0314978483333333, 225.27029848404, 0.000367476626482832, 0.625,468.772674560547
0.032164405, 225.28045198257, 0.000446438660285544, 0.6375,476.211853027344
0.0328311016666667, 225.29071374906, 0.000150721013870223, 0.65125,477.290740966797
0.0334979666666667, 225.301018855759, 4.42953595254506E-05, 0.665,483.07275390625
0.0341645916666667, 225.310508989672, -0.000271377284593977, 0.6775,496.199188232422
0.03483134, 225.320693412408, -0.000545572512091246, 0.69125,496.199188232422
0.0354978983333333, 225.330927506546, -0.00104616636778373, 0.70375,513.38037109375
0.0361644216666667, 225.340775658339, -0.000987733802774078, 0.7175,516.146789550781
0.0368312466666667, 225.349897490558, -0.00102138911227298, 0.73125,497.795684814453
0.037497845, 225.359221253722, -0.000738621815387071, 0.74375,416.137908935547
0.03816447, 225.368509552894, -0.000760882197260304, 0.7575,416.137908935547
0.038831515, 225.377843706811, -0.000534404073029211, 0.77125,420.198608398438
0.0394977483333333, 225.387420717561, -0.000350690300770813, 0.785,419.451263427734
0.0401653833333333, 225.397463776584, -0.000199104914756262, 0.7975,418.340728759766
0.0408313616666667, 225.407965371152, -0.000232773723574797, 0.81125,417.135467529297
0.0414977583333333, 225.418244072618, 7.75636885283157E-05, 0.82375,417.135467529297
0.0421647716666667, 225.428284735009, 0.000300058012864224, 0.8375,411.053619384766
0.0428311916666667, 225.438408045852, 0.000276761183058307, 0.85125,404.029998779297
0.0434977783333333, 225.448791154388, 3.72892114688579E-05, 0.865,499.797058105469
0.04416456, 225.458320942183, 0.000179327577020107, 0.8775,408.271392822266
0.0448310816666667, 225.468622945234, -2.18828163778682E-05, 0.89125,408.271392822266
0.0454977116666667, 225.478439967764, -0.000103382722738482, 0.905,404.804626464844
0.04616441, 225.487691798071, -0.000249202398369221, 0.9175,404.238006591797
0.046831105, 225.497130144148, 2.95690992262817E-05, 0.93125,400.814270019531
0.0474978833333333, 225.50643213573, -8.41949263878336E-06, 0.94375,409.510192871094
0.0481648016666667, 225.515386260198, -8.05388701873655E-05, 0.9575,409.510192871094
0.04883109, 225.524818901565, -0.000370693296034569, 0.9725,409.273498535156
0.0494977416666667, 225.534569514501, -0.000280355833580919, 0.985,415.521453857422
0.0501644233333333, 225.543922423024, -0.000545265027461054, 0.99875,408.238922119141
0.0508313716666667, 225.553569079856, -0.000535667009568041, 1.0125,411.147369384766
0.0514978866666667, 225.563184333636, -0.000515367029208678, 1.025,411.147369384766
0.052164545, 225.573064109452, -0.00051128873403358, 1.03875,404.997375488281
0.05283113, 225.582269626012, -0.000653211605405778, 1.0525,406.471435546875
0.053497735, 225.591851358327, -0.000648782327877811, 1.065,404.897491455078
0.054164475, 225.601031795794, -0.000811176170991344, 1.0775,405.266754150391
0.0548312183333333, 225.609891276364, -0.000760442719282625, 1.0925,405.266754150391
0.0554977366666667, 225.618445936135, -0.000503325634037676, 1.105,406.408081054688
0.0561644, 225.62733732935, -0.000435244053705304, 1.11875,410.909240722656
0.0568312066666667, 225.636145926401, -8.59475984994394E-05, 1.1325,404.466064453125
0.0574978483333333, 225.644539435789, 0.000230334014991473, 1.145,402.880157470703
0.0581644166666667, 225.652900820149, 0.000175142787191124, 1.1575,402.880157470703
0.0588313783333333, 225.66137873479, 0.00012318539697806, 1.1725,407.173400878906
0.059497755, 225.669788150229, -3.80220057199552E-05, 1.185,416.201782226563
0.0601644166666667, 225.678017318493, -0.000192022270448833, 1.19875,492.688751220703
0.0608314066666667, 225.68718620445, -0.000613480101044062, 1.21125,414.428436279297
0.0614977466666667, 225.69594888896, -0.000627684387565881, 1.225,414.428436279297
0.0621645233333333, 225.704422090279, -0.000630639239150397, 1.23875,420.162841796875
0.0628311066666667, 225.713176438081, -0.000325386571709509, 1.25125,415.954406738281
0.0634978533333333, 225.721893730324, -0.000546533963697497, 1.265,417.465026855469
0.06416487, 225.730416176286, -0.000450505787122706, 1.2775,417.968627929688
0.064831105, 225.738971656161, -0.000223874670581227, 1.29125,417.968627929688
0.0654977733333333, 225.748103454696, -7.84449753165897E-05, 1.30375,414.312194824219
0.0661645283333333, 225.756697579082, 6.83796498343648E-05, 1.3175,414.106323242188
0.0668311066666667, 225.765604711627, 0.000449901986370289, 1.33125,417.191253662109
0.067497945, 225.774723940197, 0.000441422912273394, 1.34375,418.736999511719
0.0681644133333333, 225.784184901335, 0.000151328483423575, 1.3575,418.736999511719
0.068831165, 225.793050180015, -1.45751834312043E-05, 1.37125,412.421447753906
0.0694977566666667, 225.802078001987, 3.24339553253484E-05, 1.38375,415.391845703125
0.0701645066666667, 225.811271561966, -0.000185367104766365, 1.39625,420.818817138672
0.0708315116666667, 225.820501561423, 0.000284985269921632, 1.41,411.945465087891
0.07149805, 225.829598699138, 0.000647139079322649, 1.4225,411.945465087891
0.07216451, 225.839486399175, 0.000672777291547133, 1.43625,421.206939697266
0.0728311116666667, 225.849700280356, 0.000355069249693674, 1.45,414.715118408203
0.0734977633333333, 225.859824283185, 0.000226015731954362, 1.4625,419.94677734375
0.07416442, 225.869572073869, 0.000159083093906172, 1.47625,415.647705078125
0.074831095, 225.880199833033, -0.000211548289667337, 1.48875,415.647705078125
0.0754977533333333, 225.889752047928, -0.000140712847662992, 1.5025,409.378143310547
0.0761645366666667, 225.90025305751, -2.95054334917245E-05, 1.515,407.358306884766
0.0768313766666667, 225.910148269041, 0.000140740515190617, 1.52875,520.180297851563
0.0774977733333333, 225.920378384787, -7.78480053615849E-05, 1.5425,442.448181152344
0.0781644616666667, 225.929681829995, 5.28149315812337E-05, 1.55625,442.448181152344
0.07883122, 225.939827676431, -6.12543388190403E-05, 1.57,444.649047851563
0.079497775, 225.948800517911, -0.000269109398449915, 1.5825,444.564697265625
0.0801647583333333, 225.958308537703, -0.000651887171902653, 1.59625,439.636108398438
0.08083115, 225.967122214906, -0.000749116788158248, 1.60875,438.597259521484
0.0814977416666667, 225.97597752106, -0.000474662073739214, 1.6225,438.597259521484
0.0821644366666667, 225.984478462846, -0.000419634337741329, 1.63625,446.230438232422
0.0828312033333333, 225.993606781778, -0.000372931183584295, 1.65,442.828247070313
0.0834977433333333, 226.001880733513, -7.4740161424174E-05, 1.6625,446.870208740234
0.0841647266666667, 226.01111842232, -8.08650935749783E-06, 1.675,451.495971679688
0.0848313983333333, 226.020167303619, -0.000324366622945261, 1.68875,451.495971679688
0.0854978216666667, 226.028896531541, -0.000186958524792016, 1.7025,438.267364501953
0.0861643883333333, 226.037600752955, -0.000242433238347089, 1.71625,449.465576171875
0.0868311166666667, 226.046727896647, -0.000393916629480964, 1.73,447.11669921875
0.087497735, 226.055258541502, -0.00052779090510251, 1.7425,439.432037353516
0.0881644883333333, 226.06364793199, -0.000337448965779648, 1.75625,439.432037353516
0.0888311516666667, 226.071704344196, -0.00031634352588821, 1.77,439.6767578125
0.08949777, 226.08006940277, -0.000314624612224519, 1.78375,440.099029541016
0.09016456, 226.088280796442, -0.000304345628524903, 1.79625,439.64697265625
0.0908311533333333, 226.096205693724, -0.000372503705001842, 1.81,449.441864013672
0.0914978616666667, 226.10468342604, -0.000747630362755808, 1.82375,449.441864013672
0.0921644333333333, 226.113403767985, -0.00112588886321638, 1.83625,451.896301269531
0.0928313583333333, 226.121254561823, -0.00113773526819371, 1.85125,448.934234619141
0.0934977666666667, 226.129213291006, -0.00125189753392824, 1.86375,537.461364746094
0.0941663433333333, 226.13684016217, -0.00100751630895927, 1.8775,445.238922119141
0.0948325766666667, 226.144273624765, -0.000747087390036812, 1.89,445.238922119141
0.0954978866666667, 226.151530183867, -0.000537285428169189, 1.90375,449.477478027344
0.0961644333333333, 226.158714583432, -0.000314711607818654, 1.9175,451.133026123047
0.0968314116666667, 226.165985063249, -0.000434987566504822, 1.93125,450.631378173828
0.0974977066666667, 226.173424783029, -0.000575834991888597, 1.94375,449.769592285156
0.0981644483333333, 226.180728925972, -0.000573510108638466, 1.95625,449.769592285156
0.098831375, 226.18842265997, -0.000644410047413404, 1.97,458.751708984375
0.09949778, 226.196434533074, -0.00097080865276838, 1.98375,457.536315917969
0.100164425, 226.204364595013, -0.000778776298324235, 1.99625,455.291961669922
0.100831178333333, 226.212648019369, -0.000887033360662942, 2.01,452.839141845703
0.10149781, 226.221225037905, -0.00111913320255639, 2.02375,452.839141845703
0.102164488333333, 226.229610683955, -0.00106978418132693, 2.03625,453.573974609375
0.102831308333333, 226.237923492137, -0.0011054898878464, 2.05,450.821685791016
0.103497793333333, 226.246190941334, -0.000676175451866648, 2.0625,446.039520263672
0.10416456, 226.25453208246, -0.000234323145653395, 2.07625,433.437377929688
0.1048312, 226.262870436871, 0.000320064008083058, 2.08875,433.437377929688
0.105497928333333, 226.272054684192, 0.000231842939344978, 2.1025,442.323120117188
0.106164565, 226.281549547316, 0.000223570854836987, 2.11625,432.474548339844
0.10683122, 226.291368352819, -4.38762116010508E-05, 2.12875,424.354309082031
0.107497781666667, 226.300721674244, -2.70965544325022E-05, 2.1425,437.987274169922
0.108164435, 226.310329975846, -0.000429911821410271, 2.155,437.987274169922
0.108831188333333, 226.319506043956, -0.000239740873511889, 2.16875,428.633087158203
0.10949787, 226.328598159316, -0.000152977731527571, 2.1825,513.460693359375
0.110164471666667, 226.337568949695, -0.000258842414060508, 2.195,435.711242675781
0.110831566666667, 226.347128683745, -0.000227415992586163, 2.2075,428.999816894531
0.111497696666667, 226.356346967792, -0.000178201964574248, 2.22125,428.999816894531
0.112165151666667, 226.365496393979, -0.000161069825085917, 2.23375,435.090576171875
0.11283106, 226.374357169241, 0.000252612396042561, 2.2475,433.803771972656
0.113497766666667, 226.383030488008, 0.000452558352998557, 2.26125,430.268585205078
0.114164585, 226.392080870488, 0.00022340136333691, 2.27375,439.226013183594
0.114831081666667, 226.401072021993, 0.0002994730423257, 2.2875,439.226013183594
0.11549795, 226.41000540743, 0.000398598563345824, 2.3,434.995758056641
0.116164381666667, 226.419077895312, 0.000258211614838865, 2.31375,447.490356445313
0.116831073333333, 226.428366748821, 0.000358142595412318, 2.3275,438.987121582031
0.117497741666667, 226.437856795229, 0.000270516996768602, 2.34,447.875244140625
0.118164425, 226.447854188154, -0.000132137778298018, 2.3525,447.875244140625
0.11883119, 226.457867642898, -0.000527943897370388, 2.3675,459.484252929688
0.11950621, 226.468251644332, -0.000702145147405506, 2.38,453.950561523438
0.120172516666667, 226.478332129467, -0.00113535338785876, 2.3925,460.695190429688
0.120839248333333, 226.48877262139, -0.0011681162422102, 2.4075,458.859954833984
0.121505758333333, 226.499295811451, -0.00101737531378346, 2.42,458.859954833984
0.122172513333333, 226.510238838938, -0.00120147756652607, 2.43375,459.812133789063
0.122839273333333, 226.520850336423, -0.0012019215442132, 2.4475,455.867828369141
0.123506241666667, 226.531990211058, -0.000794375514796133, 2.46125,449.163177490234
0.124172611666667, 226.542555539477, -0.000726797909148271, 2.47375,448.716705322266
0.124839153333333, 226.552856140586, -0.000546343473192012, 2.4875,448.716705322266
0.12550631, 226.563336186584, -0.00040170423823667, 2.5,447.688995361328
0.126173973333333, 226.573775373065, -0.000339632856029602, 2.515,542.813659667969
0.126840125, 226.584606633639, -0.000603324111081751, 2.5275,451.554504394531
0.127506165, 226.594928444508, -0.000616019473420097, 2.54,453.150482177734
0.128172633333333, 226.605150000015, -0.00044119725457576, 2.55375,453.150482177734
0.128839163333333, 226.615062453562, -0.000479148348351998, 2.5675,447.760681152344
0.129505961666667, 226.625898061757, -0.000374648597281074, 2.58125,440.122711181641
0.130172518333333, 226.636151973002, -0.000374131123276934, 2.595,446.704925537109
0.130839261666667, 226.646705584744, -0.000333775650278446, 2.6075,441.774291992188
0.131505828333333, 226.656964516327, -0.000793601553697781, 2.62,441.774291992188
0.132172523333333, 226.66740776005, -0.000664275049610806, 2.635,440.494567871094
0.132840983333333, 226.677037721082, -0.000719044798590077, 2.64875,448.090484619141
0.13350587, 226.687355712914, -0.000900951161623739, 2.66125,446.495819091797
0.134172586666667, 226.697148187999, -0.000955137439925126, 2.67375,450.537750244141
0.134839163333333, 226.707540464269, -0.000628710336006488, 2.6875,450.537750244141
0.135505808333333, 226.717671703675, -0.00075384755049127, 2.70125,444.979400634766
0.13617318, 226.727555396155, -0.000860745681150593, 2.715,446.386627197266
0.136839223333333, 226.73672646961, -0.000701461181856366, 2.7275,448.106903076172
0.137505811666667, 226.746388211068, -0.000754572014169331, 2.74125,448.260345458984
0.138172695, 226.755662159309, -0.00106768878665927, 2.75375,448.260345458984
0.138839153333333, 226.764565285296, -0.000836599894047416, 2.76875,460.061248779297
0.139506518333333, 226.773815447751, -0.000722068646803414, 2.7825,461.902221679688
0.140173388333333, 226.783389005406, -0.000975789902625526, 2.795,461.158325195313
0.1408393, 226.792672342161, -0.00106282303102368, 2.8075,457.644653320313
0.141506225, 226.802237622585, -0.00102024466969825, 2.82125,457.644653320313
0.142172483333333, 226.812240155856, -0.00112673032101915, 2.83375,455.014221191406
0.142839241666667, 226.821977707788, -0.00130871468014304, 2.84875,548.774169921875
0.143505873333333, 226.831703340336, -0.00120114608321169, 2.86125,456.103851318359
0.14417264, 226.841797838764, -0.0011886307118655, 2.87375,453.325592041016
0.144839193333333, 226.851415441274, -0.00103979468772846, 2.8875,453.325592041016
0.145505821666667, 226.86113931029, -0.000980415670271575, 2.90125,454.769714355469
0.146172541666667, 226.870800782964, -0.00111134709370383, 2.91375,439.69189453125
0.14684007, 226.880549486543, -0.000966736357354658, 2.9275,443.248352050781
0.147505906666667, 226.890404449789, -0.00116756876973925, 2.94,437.548217773438
0.148172761666667, 226.900583521711, -0.00127761974202557, 2.95375,437.548217773438
0.148839238333333, 226.910174924244, -0.00149094052715961, 2.9675,433.906188964844
0.149505831666667, 226.919732803245, -0.00130649329180425, 2.98,432.930328369141
0.150172496666667, 226.929122963454, -0.00134142053745217, 2.99375,425.872894287109
0.150839226666667, 226.93827043204, -0.00098257256203105, 3.00625,436.199401855469
0.151505803333333, 226.947178565767, -0.00083943925149539, 3.02,436.199401855469
0.152172483333333, 226.956843516439, -0.000720253738020423, 3.0325,433.350891113281
0.152839205, 226.965985085246, -0.000603108122116461, 3.04625,427.656860351563
0.153505793333333, 226.975798782175, -0.000538839350254792, 3.05875,431.003784179688
0.154172633333333, 226.984721907006, -0.00035120177507734, 3.0725,432.344390869141
0.154839315, 226.994042079362, -8.10218459089768E-05, 3.08625,432.344390869141
0.155505896666667, 227.002929865439, 0.000158717112245507, 3.09875,435.619415283203
0.156172591666667, 227.012273574722, 0.000283492844864087, 3.1125,437.340118408203
0.156839163333333, 227.021013481199, 0.000250978978027348, 3.12625,437.249786376953
0.157506533333333, 227.030963524782, 0.000301760427338225, 3.13875,441.218414306641
0.158172516666667, 227.040646671905, -5.69630543574262E-05, 3.15125,441.218414306641
0.158839165, 227.048501736829, -0.000266783015317888, 3.16375,436.507080078125
0.159505825, 227.056563181337, -7.05868700501678E-05, 3.1775,634.973815917969
